# xPDFsuite Configuration #
[PDF]
wavelength = 0.1
dataformat = QA
inputfile = BiMsol6_insitu_700 C-00389.xy
backgroundfile = Quartz2mm-dist500-00000.xy
mode = xray
bgscale = 0.0042
composition = Bi2Fe4O9
outputtype = gr
qmaxinst = 24.998449118
qmin = 0.1
qmax = 21.4986662415
rmax = 80.0
rmin = 0.0
rstep = 0.01
rpoly = 0.9

[Misc]
inputdir = C:/Data/Seafile/CPH/Beamtime/Desy Oct 20/In situ data/Processed/BiMsol6/PDF
savedir = C:/Data/Seafile/CPH/Beamtime/Desy Oct 20/In situ data/PDF/BiMsol6
backgroundfilefull = C:/Data/Seafile/CPH/Beamtime/Desy Oct 20/In situ data/Processed/Standard_Empty_Cap/Quartz2mm-dist500-00000.xy

#### start data
#S 1
#L r($\AA$)  G($\AA^{-2}$)
0 0
0.01 0.00708288
0.02 0.0137729
0.03 0.0197337
0.04 0.0246629
0.05 0.0283062
0.06 0.030469
0.07 0.0309372
0.08 0.0296457
0.09 0.0267468
0.1 0.0223644
0.11 0.0166928
0.12 0.00998821
0.13 0.00255744
0.14 -0.00525716
0.15 -0.0130151
0.16 -0.0203457
0.17 -0.0269001
0.18 -0.0323637
0.19 -0.0364714
0.2 -0.0389498
0.21 -0.0396073
0.22 -0.038539
0.23 -0.0358058
0.24 -0.031553
0.25 -0.026005
0.26 -0.0194576
0.27 -0.0122431
0.28 -0.00485879
0.29 0.00225262
0.3 0.00866043
0.31 0.0139524
0.32 0.0177545
0.33 0.0196869
0.34 0.0193738
0.35 0.0168513
0.36 0.012099
0.37 0.00520665
0.38 -0.00362405
0.39 -0.0140816
0.4 -0.0258099
0.41 -0.0381639
0.42 -0.0505076
0.43 -0.0621941
0.44 -0.0725504
0.45 -0.0809024
0.46 -0.0865355
0.47 -0.0885314
0.48 -0.0866645
0.49 -0.0805459
0.5 -0.0699128
0.51 -0.0546439
0.52 -0.0347708
0.53 -0.01019
0.54 0.0185471
0.55 0.0506997
0.56 0.0855811
0.57 0.122383
0.58 0.160195
0.59 0.198023
0.6 0.234609
0.61 0.268928
0.62 0.299965
0.63 0.326765
0.64 0.348464
0.65 0.364315
0.66 0.373291
0.67 0.374955
0.68 0.369464
0.69 0.356802
0.7 0.337149
0.71 0.310871
0.72 0.278513
0.73 0.240266
0.74 0.197686
0.75 0.151777
0.76 0.103608
0.77 0.0542914
0.78 0.00495197
0.79 -0.0431982
0.8 -0.088933
0.81 -0.131405
0.82 -0.169803
0.83 -0.203459
0.84 -0.231864
0.85 -0.25468
0.86 -0.271152
0.87 -0.281848
0.88 -0.28708
0.89 -0.287233
0.9 -0.282833
0.91 -0.27452
0.92 -0.262933
0.93 -0.248896
0.94 -0.233477
0.95 -0.217508
0.96 -0.201786
0.97 -0.187055
0.98 -0.173977
0.99 -0.163364
1 -0.155543
1.01 -0.150746
1.02 -0.149128
1.03 -0.150714
1.04 -0.155404
1.05 -0.163051
1.06 -0.173438
1.07 -0.185886
1.08 -0.19991
1.09 -0.214989
1.1 -0.230584
1.11 -0.246162
1.12 -0.261135
1.13 -0.275017
1.14 -0.28745
1.15 -0.298134
1.16 -0.306854
1.17 -0.313489
1.18 -0.317973
1.19 -0.320214
1.2 -0.320586
1.21 -0.319322
1.22 -0.31671
1.23 -0.313078
1.24 -0.308778
1.25 -0.304176
1.26 -0.299675
1.27 -0.295602
1.28 -0.292229
1.29 -0.289774
1.3 -0.288389
1.31 -0.288169
1.32 -0.289241
1.33 -0.291402
1.34 -0.294512
1.35 -0.298376
1.36 -0.302754
1.37 -0.30737
1.38 -0.31191
1.39 -0.316029
1.4 -0.31945
1.41 -0.321919
1.42 -0.323221
1.43 -0.323196
1.44 -0.321741
1.45 -0.318661
1.46 -0.314166
1.47 -0.308383
1.48 -0.301499
1.49 -0.293758
1.5 -0.285451
1.51 -0.276911
1.52 -0.268542
1.53 -0.260714
1.54 -0.253769
1.55 -0.248025
1.56 -0.243755
1.57 -0.24118
1.58 -0.240654
1.59 -0.242097
1.6 -0.245463
1.61 -0.250655
1.62 -0.257498
1.63 -0.265747
1.64 -0.275112
1.65 -0.285201
1.66 -0.295512
1.67 -0.305606
1.68 -0.315037
1.69 -0.32337
1.7 -0.330195
1.71 -0.33495
1.72 -0.337415
1.73 -0.337423
1.74 -0.334831
1.75 -0.329586
1.76 -0.321718
1.77 -0.311291
1.78 -0.298395
1.79 -0.283557
1.8 -0.267141
1.81 -0.249562
1.82 -0.23127
1.83 -0.212736
1.84 -0.194489
1.85 -0.177036
1.86 -0.160785
1.87 -0.146106
1.88 -0.133308
1.89 -0.122628
1.9 -0.11426
1.91 -0.108484
1.92 -0.105029
1.93 -0.103781
1.94 -0.104547
1.95 -0.10707
1.96 -0.111033
1.97 -0.116122
1.98 -0.121869
1.99 -0.127821
2 -0.13358
2.01 -0.138773
2.02 -0.14306
2.03 -0.146147
2.04 -0.147628
2.05 -0.147504
2.06 -0.145707
2.07 -0.142249
2.08 -0.137215
2.09 -0.130765
2.1 -0.12307
2.11 -0.114459
2.12 -0.105338
2.13 -0.0960736
2.14 -0.0870442
2.15 -0.0786311
2.16 -0.0712012
2.17 -0.0652726
2.18 -0.0610302
2.19 -0.0586971
2.2 -0.0584446
2.21 -0.0603767
2.22 -0.0645267
2.23 -0.0709504
2.24 -0.0795683
2.25 -0.0900359
2.26 -0.102108
2.27 -0.115494
2.28 -0.129868
2.29 -0.144879
2.3 -0.160158
2.31 -0.175287
2.32 -0.189923
2.33 -0.203757
2.34 -0.216522
2.35 -0.227993
2.36 -0.237951
2.37 -0.246202
2.38 -0.252837
2.39 -0.257884
2.4 -0.261425
2.41 -0.263596
2.42 -0.264575
2.43 -0.264516
2.44 -0.26375
2.45 -0.262568
2.46 -0.261235
2.47 -0.26001
2.48 -0.259134
2.49 -0.258843
2.5 -0.259392
2.51 -0.260861
2.52 -0.263339
2.53 -0.266871
2.54 -0.271457
2.55 -0.277053
2.56 -0.283634
2.57 -0.291022
2.58 -0.299022
2.59 -0.307453
2.6 -0.316121
2.61 -0.324824
2.62 -0.333361
2.63 -0.341485
2.64 -0.349049
2.65 -0.355906
2.66 -0.361935
2.67 -0.367044
2.68 -0.371171
2.69 -0.37422
2.7 -0.376205
2.71 -0.377211
2.72 -0.37729
2.73 -0.376511
2.74 -0.374956
2.75 -0.372711
2.76 -0.369806
2.77 -0.366397
2.78 -0.362556
2.79 -0.358337
2.8 -0.353776
2.81 -0.348892
2.82 -0.34366
2.83 -0.338046
2.84 -0.332022
2.85 -0.325522
2.86 -0.318471
2.87 -0.310781
2.88 -0.302364
2.89 -0.293036
2.9 -0.282789
2.91 -0.271565
2.92 -0.259317
2.93 -0.246016
2.94 -0.231659
2.95 -0.216227
2.96 -0.199747
2.97 -0.182378
2.98 -0.164228
2.99 -0.145422
3 -0.12611
3.01 -0.106449
3.02 -0.0866117
3.03 -0.0668026
3.04 -0.0471956
3.05 -0.0279518
3.06 -0.00921887
3.07 0.00887424
3.08 0.026194
3.09 0.0426075
3.1 0.0581338
3.11 0.0727553
3.12 0.0864828
3.13 0.099354
3.14 0.111431
3.15 0.122747
3.16 0.133455
3.17 0.143695
3.18 0.153589
3.19 0.163263
3.2 0.172837
3.21 0.182427
3.22 0.192149
3.23 0.202078
3.24 0.212271
3.25 0.222761
3.26 0.233557
3.27 0.244646
3.28 0.256006
3.29 0.267558
3.3 0.279211
3.31 0.290867
3.32 0.30242
3.33 0.313755
3.34 0.324752
3.35 0.335237
3.36 0.345145
3.37 0.35438
3.38 0.362859
3.39 0.37052
3.4 0.377315
3.41 0.383164
3.42 0.388068
3.43 0.392097
3.44 0.395289
3.45 0.397698
3.46 0.399394
3.47 0.400457
3.48 0.400928
3.49 0.400974
3.5 0.400695
3.51 0.400192
3.52 0.399559
3.53 0.398887
3.54 0.398266
3.55 0.397782
3.56 0.397494
3.57 0.397455
3.58 0.397707
3.59 0.398285
3.6 0.399216
3.61 0.400558
3.62 0.402291
3.63 0.40442
3.64 0.40695
3.65 0.409886
3.66 0.413232
3.67 0.417009
3.68 0.421237
3.69 0.425888
3.7 0.430965
3.71 0.436472
3.72 0.442407
3.73 0.448767
3.74 0.455577
3.75 0.462787
3.76 0.470357
3.77 0.478248
3.78 0.486407
3.79 0.494768
3.8 0.503252
3.81 0.511755
3.82 0.520158
3.83 0.528341
3.84 0.536174
3.85 0.543518
3.86 0.550228
3.87 0.556083
3.88 0.560954
3.89 0.564727
3.9 0.567269
3.91 0.568457
3.92 0.56818
3.93 0.566314
3.94 0.562644
3.95 0.557275
3.96 0.550175
3.97 0.541334
3.98 0.530765
3.99 0.518498
4 0.504469
4.01 0.488799
4.02 0.471648
4.03 0.453111
4.04 0.433294
4.05 0.412308
4.06 0.39026
4.07 0.367184
4.08 0.343306
4.09 0.318737
4.1 0.293583
4.11 0.267943
4.12 0.241911
4.13 0.215561
4.14 0.188986
4.15 0.162278
4.16 0.135507
4.17 0.108742
4.18 0.0820494
4.19 0.0554956
4.2 0.0291802
4.21 0.00315841
4.22 -0.0224961
4.23 -0.0477052
4.24 -0.0723869
4.25 -0.0964561
4.26 -0.119787
4.27 -0.142262
4.28 -0.163843
4.29 -0.184445
4.3 -0.20399
4.31 -0.222407
4.32 -0.239635
4.33 -0.255494
4.34 -0.270058
4.35 -0.283331
4.36 -0.295316
4.37 -0.306037
4.38 -0.315533
4.39 -0.323821
4.4 -0.330944
4.41 -0.337087
4.42 -0.342356
4.43 -0.346866
4.44 -0.350738
4.45 -0.354095
4.46 -0.357036
4.47 -0.359717
4.48 -0.362255
4.49 -0.364745
4.5 -0.367267
4.51 -0.369884
4.52 -0.372647
4.53 -0.37559
4.54 -0.3787
4.55 -0.38196
4.56 -0.385331
4.57 -0.388764
4.58 -0.392192
4.59 -0.395529
4.6 -0.398687
4.61 -0.401585
4.62 -0.404144
4.63 -0.406287
4.64 -0.40795
4.65 -0.40907
4.66 -0.409556
4.67 -0.409448
4.68 -0.408746
4.69 -0.407471
4.7 -0.405662
4.71 -0.403375
4.72 -0.400659
4.73 -0.397622
4.74 -0.394381
4.75 -0.39104
4.76 -0.387708
4.77 -0.384489
4.78 -0.381488
4.79 -0.378844
4.8 -0.376612
4.81 -0.374858
4.82 -0.373634
4.83 -0.372976
4.84 -0.372902
4.85 -0.373443
4.86 -0.374579
4.87 -0.376239
4.88 -0.378374
4.89 -0.380924
4.9 -0.383819
4.91 -0.386987
4.92 -0.390363
4.93 -0.393844
4.94 -0.397356
4.95 -0.400833
4.96 -0.404215
4.97 -0.407451
4.98 -0.410489
4.99 -0.413288
5 -0.415842
5.01 -0.418136
5.02 -0.420163
5.03 -0.421919
5.04 -0.423402
5.05 -0.424581
5.06 -0.425473
5.07 -0.426067
5.08 -0.426343
5.09 -0.426269
5.1 -0.4258
5.11 -0.424864
5.12 -0.423357
5.13 -0.421233
5.14 -0.418397
5.15 -0.414748
5.16 -0.410175
5.17 -0.404564
5.18 -0.397688
5.19 -0.38949
5.2 -0.3799
5.21 -0.368823
5.22 -0.356176
5.23 -0.341895
5.24 -0.325891
5.25 -0.30802
5.26 -0.288439
5.27 -0.267173
5.28 -0.244266
5.29 -0.219786
5.3 -0.193821
5.31 -0.166377
5.32 -0.137647
5.33 -0.107821
5.34 -0.0770423
5.35 -0.0454616
5.36 -0.0132307
5.37 0.0195041
5.38 0.0526091
5.39 0.0858965
5.4 0.119235
5.41 0.152502
5.42 0.185587
5.43 0.218386
5.44 0.250774
5.45 0.282661
5.46 0.313987
5.47 0.344678
5.48 0.374659
5.49 0.403854
5.5 0.432182
5.51 0.459439
5.52 0.485632
5.53 0.510654
5.54 0.53439
5.55 0.556714
5.56 0.577492
5.57 0.596477
5.58 0.613483
5.59 0.628462
5.6 0.641261
5.61 0.651731
5.62 0.659731
5.63 0.665134
5.64 0.667524
5.65 0.667078
5.66 0.663762
5.67 0.657545
5.68 0.648431
5.69 0.636454
5.7 0.621565
5.71 0.603807
5.72 0.583526
5.73 0.560896
5.74 0.536114
5.75 0.509405
5.76 0.481007
5.77 0.451063
5.78 0.419975
5.79 0.388036
5.8 0.355507
5.81 0.322637
5.82 0.289666
5.83 0.256822
5.84 0.224344
5.85 0.192384
5.86 0.161083
5.87 0.130556
5.88 0.10089
5.89 0.072151
5.9 0.0444642
5.91 0.0177991
5.92 -0.00787157
5.93 -0.0325553
5.94 -0.0562661
5.95 -0.0790199
5.96 -0.10081
5.97 -0.121578
5.98 -0.141407
5.99 -0.160283
6 -0.178176
6.01 -0.19504
6.02 -0.210816
6.03 -0.225338
6.04 -0.238544
6.05 -0.250389
6.06 -0.26077
6.07 -0.269584
6.08 -0.276732
6.09 -0.282101
6.1 -0.285429
6.11 -0.286846
6.12 -0.286314
6.13 -0.283819
6.14 -0.279375
6.15 -0.273025
6.16 -0.264729
6.17 -0.254625
6.18 -0.242945
6.19 -0.229849
6.2 -0.215517
6.21 -0.200147
6.22 -0.18395
6.23 -0.1671
6.24 -0.149908
6.25 -0.13259
6.26 -0.115353
6.27 -0.0983862
6.28 -0.081862
6.29 -0.0659659
6.3 -0.0508415
6.31 -0.0365333
6.32 -0.0230951
6.33 -0.0105499
6.34 0.00110876
6.35 0.0119155
6.36 0.0218556
6.37 0.0310985
6.38 0.0397584
6.39 0.0479535
6.4 0.0558103
6.41 0.0634591
6.42 0.0710323
6.43 0.0786731
6.44 0.0864993
6.45 0.0946114
6.46 0.103095
6.47 0.112019
6.48 0.121434
6.49 0.131425
6.5 0.141969
6.51 0.153047
6.52 0.164642
6.53 0.176723
6.54 0.189251
6.55 0.202191
6.56 0.215505
6.57 0.229112
6.58 0.242964
6.59 0.257019
6.6 0.271239
6.61 0.285597
6.62 0.300078
6.63 0.314662
6.64 0.32934
6.65 0.34411
6.66 0.358975
6.67 0.373938
6.68 0.389002
6.69 0.404171
6.7 0.419425
6.71 0.43474
6.72 0.450084
6.73 0.465409
6.74 0.480652
6.75 0.495715
6.76 0.510492
6.77 0.524876
6.78 0.538737
6.79 0.551935
6.8 0.56432
6.81 0.575723
6.82 0.585852
6.83 0.594654
6.84 0.601975
6.85 0.607667
6.86 0.611596
6.87 0.613641
6.88 0.613573
6.89 0.611313
6.9 0.606917
6.91 0.600356
6.92 0.591622
6.93 0.580731
6.94 0.567721
6.95 0.552422
6.96 0.535151
6.97 0.516011
6.98 0.495108
6.99 0.472559
7 0.448486
7.01 0.42295
7.02 0.396075
7.03 0.368073
7.04 0.339061
7.05 0.309147
7.06 0.278434
7.07 0.247014
7.08 0.214917
7.09 0.182283
7.1 0.149189
7.11 0.115701
7.12 0.0818804
7.13 0.0477885
7.14 0.0134821
7.15 -0.0209687
7.16 -0.0554764
7.17 -0.0899616
7.18 -0.124337
7.19 -0.158506
7.2 -0.192363
7.21 -0.225743
7.22 -0.258537
7.23 -0.290626
7.24 -0.321874
7.25 -0.352145
7.26 -0.381304
7.27 -0.40918
7.28 -0.435549
7.29 -0.460411
7.3 -0.483667
7.31 -0.505235
7.32 -0.52505
7.33 -0.543067
7.34 -0.559115
7.35 -0.573278
7.36 -0.585649
7.37 -0.596274
7.38 -0.605223
7.39 -0.612579
7.4 -0.618421
7.41 -0.622763
7.42 -0.625878
7.43 -0.627895
7.44 -0.628947
7.45 -0.629162
7.46 -0.628665
7.47 -0.627537
7.48 -0.625909
7.49 -0.623894
7.5 -0.621563
7.51 -0.618969
7.52 -0.616149
7.53 -0.613119
7.54 -0.609858
7.55 -0.606371
7.56 -0.602625
7.57 -0.598579
7.58 -0.594179
7.59 -0.589369
7.6 -0.584054
7.61 -0.578165
7.62 -0.571669
7.63 -0.564513
7.64 -0.556651
7.65 -0.548047
7.66 -0.538674
7.67 -0.528431
7.68 -0.517403
7.69 -0.50561
7.7 -0.49308
7.71 -0.479855
7.72 -0.465984
7.73 -0.451507
7.74 -0.436494
7.75 -0.421062
7.76 -0.405297
7.77 -0.389285
7.78 -0.373114
7.79 -0.356873
7.8 -0.340659
7.81 -0.324565
7.82 -0.308669
7.83 -0.293049
7.84 -0.277774
7.85 -0.262911
7.86 -0.248539
7.87 -0.234744
7.88 -0.221536
7.89 -0.208958
7.9 -0.19705
7.91 -0.185846
7.92 -0.175378
7.93 -0.165744
7.94 -0.156922
7.95 -0.14891
7.96 -0.141724
7.97 -0.135375
7.98 -0.129871
7.99 -0.125237
8 -0.121528
8.01 -0.11866
8.02 -0.116619
8.03 -0.115389
8.04 -0.114948
8.05 -0.115267
8.06 -0.116368
8.07 -0.118177
8.08 -0.120622
8.09 -0.123657
8.1 -0.12723
8.11 -0.131286
8.12 -0.135776
8.13 -0.140667
8.14 -0.145861
8.15 -0.151301
8.16 -0.156932
8.17 -0.1627
8.18 -0.168554
8.19 -0.174444
8.2 -0.180318
8.21 -0.186131
8.22 -0.19184
8.23 -0.197405
8.24 -0.202787
8.25 -0.207946
8.26 -0.212805
8.27 -0.21735
8.28 -0.221533
8.29 -0.225306
8.3 -0.228615
8.31 -0.231401
8.32 -0.233567
8.33 -0.235029
8.34 -0.235752
8.35 -0.23566
8.36 -0.234674
8.37 -0.232713
8.38 -0.229698
8.39 -0.225417
8.4 -0.219904
8.41 -0.213097
8.42 -0.204937
8.43 -0.195369
8.44 -0.184351
8.45 -0.171784
8.46 -0.157611
8.47 -0.141937
8.48 -0.124776
8.49 -0.106155
8.5 -0.0861151
8.51 -0.0647116
8.52 -0.0418905
8.53 -0.0178421
8.54 0.00732165
8.55 0.0335062
8.56 0.0606126
8.57 0.0885392
8.58 0.117204
8.59 0.146523
8.6 0.176339
8.61 0.20656
8.62 0.237098
8.63 0.267871
8.64 0.298803
8.65 0.329827
8.66 0.360865
8.67 0.391857
8.68 0.422746
8.69 0.453477
8.7 0.483995
8.71 0.514235
8.72 0.544101
8.73 0.573552
8.74 0.602509
8.75 0.630887
8.76 0.658587
8.77 0.685504
8.78 0.711441
8.79 0.736283
8.8 0.759928
8.81 0.782229
8.82 0.803034
8.83 0.822187
8.84 0.839508
8.85 0.854644
8.86 0.867639
8.87 0.878357
8.88 0.886672
8.89 0.892474
8.9 0.895669
8.91 0.896005
8.92 0.893461
8.93 0.888152
8.94 0.880077
8.95 0.869258
8.96 0.855739
8.97 0.839584
8.98 0.820595
8.99 0.799184
9 0.775472
9.01 0.749594
9.02 0.721692
9.03 0.691913
9.04 0.660327
9.05 0.627095
9.06 0.592475
9.07 0.556614
9.08 0.519654
9.09 0.48173
9.1 0.442971
9.11 0.403435
9.12 0.363318
9.13 0.322736
9.14 0.281796
9.15 0.2406
9.16 0.199253
9.17 0.157863
9.18 0.116558
9.19 0.0754568
9.2 0.0346835
9.21 -0.00562931
9.22 -0.0453396
9.23 -0.0842959
9.24 -0.122233
9.25 -0.159028
9.26 -0.194523
9.27 -0.228534
9.28 -0.260875
9.29 -0.291359
9.3 -0.319733
9.31 -0.345679
9.32 -0.369211
9.33 -0.390179
9.34 -0.408451
9.35 -0.423916
9.36 -0.436484
9.37 -0.445837
9.38 -0.45209
9.39 -0.455337
9.4 -0.4556
9.41 -0.452931
9.42 -0.447405
9.43 -0.439069
9.44 -0.427863
9.45 -0.414198
9.46 -0.398236
9.47 -0.38015
9.48 -0.360121
9.49 -0.338338
9.5 -0.314889
9.51 -0.290034
9.52 -0.264023
9.53 -0.237029
9.54 -0.209219
9.55 -0.180749
9.56 -0.15176
9.57 -0.122361
9.58 -0.0927257
9.59 -0.0629614
9.6 -0.0331682
9.61 -0.00343863
9.62 0.0261408
9.63 0.0554675
9.64 0.0844503
9.65 0.113022
9.66 0.141099
9.67 0.168597
9.68 0.195424
9.69 0.221485
9.7 0.24657
9.71 0.270661
9.72 0.293651
9.73 0.315427
9.74 0.335879
9.75 0.354896
9.76 0.372285
9.77 0.387909
9.78 0.401781
9.79 0.413823
9.8 0.423972
9.81 0.432178
9.82 0.438413
9.83 0.442458
9.84 0.444507
9.85 0.444621
9.86 0.44285
9.87 0.439269
9.88 0.433965
9.89 0.426983
9.9 0.418405
9.91 0.408485
9.92 0.397362
9.93 0.385176
9.94 0.372073
9.95 0.358193
9.96 0.343625
9.97 0.328558
9.98 0.313121
9.99 0.297421
10 0.281548
10.01 0.265581
10.02 0.249583
10.03 0.233609
10.04 0.217693
10.05 0.201854
10.06 0.186102
10.07 0.170436
10.08 0.15485
10.09 0.139337
10.1 0.123878
10.11 0.108456
10.12 0.093059
10.13 0.0776794
10.14 0.0623143
10.15 0.0469682
10.16 0.031657
10.17 0.0163999
10.18 0.0012259
10.19 -0.0138289
10.2 -0.0287218
10.21 -0.0434047
10.22 -0.0578027
10.23 -0.0718595
10.24 -0.0855319
10.25 -0.0987659
10.26 -0.11151
10.27 -0.123719
10.28 -0.135347
10.29 -0.146296
10.3 -0.156609
10.31 -0.166274
10.32 -0.175289
10.33 -0.183662
10.34 -0.191411
10.35 -0.198529
10.36 -0.20506
10.37 -0.211084
10.38 -0.216651
10.39 -0.221818
10.4 -0.226644
10.41 -0.231189
10.42 -0.235496
10.43 -0.239655
10.44 -0.243724
10.45 -0.247755
10.46 -0.251797
10.47 -0.255894
10.48 -0.260086
10.49 -0.264412
10.5 -0.268886
10.51 -0.273523
10.52 -0.278333
10.53 -0.283319
10.54 -0.288479
10.55 -0.293821
10.56 -0.299316
10.57 -0.304944
10.58 -0.310687
10.59 -0.316522
10.6 -0.322423
10.61 -0.328365
10.62 -0.334318
10.63 -0.34025
10.64 -0.346132
10.65 -0.351935
10.66 -0.357632
10.67 -0.363194
10.68 -0.368576
10.69 -0.37376
10.7 -0.378725
10.71 -0.383449
10.72 -0.387909
10.73 -0.392089
10.74 -0.395964
10.75 -0.399501
10.76 -0.402721
10.77 -0.405619
10.78 -0.408198
10.79 -0.410465
10.8 -0.412431
10.81 -0.414092
10.82 -0.415486
10.83 -0.416651
10.84 -0.417621
10.85 -0.418431
10.86 -0.419119
10.87 -0.419728
10.88 -0.4203
10.89 -0.420884
10.9 -0.421519
10.91 -0.422241
10.92 -0.423082
10.93 -0.424066
10.94 -0.425223
10.95 -0.426559
10.96 -0.428064
10.97 -0.429725
10.98 -0.43152
10.99 -0.433415
11 -0.435366
11.01 -0.437313
11.02 -0.439187
11.03 -0.440915
11.04 -0.44242
11.05 -0.443619
11.06 -0.44443
11.07 -0.444734
11.08 -0.444436
11.09 -0.443486
11.1 -0.441814
11.11 -0.439355
11.12 -0.436056
11.13 -0.431876
11.14 -0.42668
11.15 -0.420549
11.16 -0.413488
11.17 -0.405512
11.18 -0.396648
11.19 -0.386937
11.2 -0.376397
11.21 -0.365082
11.22 -0.353121
11.23 -0.340592
11.24 -0.32758
11.25 -0.314171
11.26 -0.300451
11.27 -0.28649
11.28 -0.272396
11.29 -0.258247
11.3 -0.24411
11.31 -0.230044
11.32 -0.216096
11.33 -0.202314
11.34 -0.188736
11.35 -0.175364
11.36 -0.162205
11.37 -0.149251
11.38 -0.136492
11.39 -0.123904
11.4 -0.11147
11.41 -0.0991426
11.42 -0.0868778
11.43 -0.074634
11.44 -0.0623677
11.45 -0.0500349
11.46 -0.0375887
11.47 -0.0249718
11.48 -0.0121563
11.49 0.00089317
11.5 0.0142085
11.51 0.0278177
11.52 0.0417449
11.53 0.0560371
11.54 0.0706991
11.55 0.0857278
11.56 0.10113
11.57 0.11691
11.58 0.133065
11.59 0.149599
11.6 0.166535
11.61 0.183823
11.62 0.20145
11.63 0.219395
11.64 0.237638
11.65 0.256151
11.66 0.27492
11.67 0.293898
11.68 0.313035
11.69 0.332283
11.7 0.351593
11.71 0.370908
11.72 0.390168
11.73 0.409285
11.74 0.428196
11.75 0.446827
11.76 0.465099
11.77 0.482931
11.78 0.500242
11.79 0.51691
11.8 0.532837
11.81 0.547979
11.82 0.562259
11.83 0.575602
11.84 0.587939
11.85 0.599204
11.86 0.609213
11.87 0.61802
11.88 0.625593
11.89 0.631896
11.9 0.636899
11.91 0.64058
11.92 0.642864
11.93 0.643701
11.94 0.643188
11.95 0.641324
11.96 0.638118
11.97 0.633577
11.98 0.627714
11.99 0.620418
12 0.611808
12.01 0.601928
12.02 0.590798
12.03 0.578439
12.04 0.564875
12.05 0.550094
12.06 0.534069
12.07 0.516934
12.08 0.498728
12.09 0.479494
12.1 0.459285
12.11 0.43816
12.12 0.416122
12.13 0.393305
12.14 0.369826
12.15 0.345785
12.16 0.321293
12.17 0.296469
12.18 0.271442
12.19 0.246362
12.2 0.221393
12.21 0.196684
12.22 0.172388
12.23 0.14866
12.24 0.125649
12.25 0.10358
12.26 0.0825821
12.27 0.0627468
