# xPDFsuite Configuration #
[PDF]
wavelength = 0.1
dataformat = QA
inputfile = BiMsol6_insitu_700 C-00388.xy
backgroundfile = Quartz2mm-dist500-00000.xy
mode = xray
bgscale = 0.0042
composition = Bi2Fe4O9
outputtype = gr
qmaxinst = 24.998449118
qmin = 0.1
qmax = 21.4986662415
rmax = 80.0
rmin = 0.0
rstep = 0.01
rpoly = 0.9

[Misc]
inputdir = C:/Data/Seafile/CPH/Beamtime/Desy Oct 20/In situ data/Processed/BiMsol6/PDF
savedir = C:/Data/Seafile/CPH/Beamtime/Desy Oct 20/In situ data/PDF/BiMsol6
backgroundfilefull = C:/Data/Seafile/CPH/Beamtime/Desy Oct 20/In situ data/Processed/Standard_Empty_Cap/Quartz2mm-dist500-00000.xy

#### start data
#S 1
#L r($\AA$)  G($\AA^{-2}$)
0 0
0.01 0.00676952
0.02 0.0131588
0.03 0.0188425
0.04 0.0235285
0.05 0.0269716
0.06 0.0289846
0.07 0.0293626
0.08 0.0280457
0.09 0.0251835
0.1 0.0208993
0.11 0.0153843
0.12 0.0088895
0.13 0.00171473
0.14 -0.00580364
0.15 -0.0132403
0.16 -0.0202367
0.17 -0.0264564
0.18 -0.0315974
0.19 -0.0354071
0.2 -0.0376261
0.21 -0.0380764
0.22 -0.0368592
0.23 -0.0340425
0.24 -0.0297762
0.25 -0.0242872
0.26 -0.0178708
0.27 -0.0108623
0.28 -0.00374745
0.29 0.00304171
0.3 0.00908559
0.31 0.0139851
0.32 0.017381
0.33 0.0189096
0.34 0.0182149
0.35 0.0153486
0.36 0.0103058
0.37 0.00318997
0.38 -0.00578501
0.39 -0.0162982
0.4 -0.0279788
0.41 -0.0401835
0.42 -0.052281
0.43 -0.0636295
0.44 -0.0735651
0.45 -0.0814261
0.46 -0.086513
0.47 -0.0879261
0.48 -0.0854665
0.49 -0.0787681
0.5 -0.0675918
0.51 -0.0518397
0.52 -0.031566
0.53 -0.00669658
0.54 0.0222003
0.55 0.0543751
0.56 0.0891323
0.57 0.125659
0.58 0.163047
0.59 0.200307
0.6 0.236183
0.61 0.269682
0.62 0.299815
0.63 0.325654
0.64 0.346365
0.65 0.361235
0.66 0.369277
0.67 0.370094
0.68 0.363873
0.69 0.350631
0.7 0.330573
0.71 0.304089
0.72 0.271739
0.73 0.23375
0.74 0.191654
0.75 0.14645
0.76 0.0991895
0.77 0.0509642
0.78 0.00286895
0.79 -0.0439155
0.8 -0.088209
0.81 -0.129217
0.82 -0.166177
0.83 -0.198468
0.84 -0.225629
0.85 -0.247368
0.86 -0.262995
0.87 -0.273097
0.88 -0.278009
0.89 -0.278135
0.9 -0.274008
0.91 -0.266268
0.92 -0.255554
0.93 -0.242672
0.94 -0.228639
0.95 -0.214241
0.96 -0.200232
0.97 -0.187297
0.98 -0.176044
0.99 -0.167213
1 -0.161069
1.01 -0.157786
1.02 -0.157466
1.03 -0.160087
1.04 -0.165509
1.05 -0.173547
1.06 -0.18394
1.07 -0.196035
1.08 -0.209355
1.09 -0.223397
1.1 -0.237651
1.11 -0.251625
1.12 -0.264768
1.13 -0.27667
1.14 -0.287045
1.15 -0.295659
1.16 -0.302369
1.17 -0.30712
1.18 -0.309914
1.19 -0.310744
1.2 -0.310014
1.21 -0.307995
1.22 -0.305
1.23 -0.301375
1.24 -0.297474
1.25 -0.293676
1.26 -0.290347
1.27 -0.287759
1.28 -0.286134
1.29 -0.285633
1.3 -0.286346
1.31 -0.288294
1.32 -0.291528
1.33 -0.295766
1.34 -0.3008
1.35 -0.306371
1.36 -0.312183
1.37 -0.317916
1.38 -0.323196
1.39 -0.327654
1.4 -0.331027
1.41 -0.333065
1.42 -0.333574
1.43 -0.332423
1.44 -0.329551
1.45 -0.324794
1.46 -0.318452
1.47 -0.31072
1.48 -0.301853
1.49 -0.292163
1.5 -0.282006
1.51 -0.271789
1.52 -0.261983
1.53 -0.252989
1.54 -0.245185
1.55 -0.238909
1.56 -0.234448
1.57 -0.232019
1.58 -0.231993
1.59 -0.234232
1.6 -0.238647
1.61 -0.245094
1.62 -0.253344
1.63 -0.263092
1.64 -0.273988
1.65 -0.285568
1.66 -0.297269
1.67 -0.308599
1.68 -0.319065
1.69 -0.328192
1.7 -0.335542
1.71 -0.340506
1.72 -0.342878
1.73 -0.342504
1.74 -0.339261
1.75 -0.333123
1.76 -0.32416
1.77 -0.312475
1.78 -0.298213
1.79 -0.281969
1.8 -0.264165
1.81 -0.245271
1.82 -0.225791
1.83 -0.206244
1.84 -0.187221
1.85 -0.169256
1.86 -0.152771
1.87 -0.138146
1.88 -0.125689
1.89 -0.115629
1.9 -0.108139
1.91 -0.103484
1.92 -0.101329
1.93 -0.10151
1.94 -0.103783
1.95 -0.107836
1.96 -0.113298
1.97 -0.119791
1.98 -0.126791
1.99 -0.133806
2 -0.140402
2.01 -0.146176
2.02 -0.150771
2.03 -0.153882
2.04 -0.155075
2.05 -0.154397
2.06 -0.151805
2.07 -0.147339
2.08 -0.141126
2.09 -0.133368
2.1 -0.124285
2.11 -0.114263
2.12 -0.103763
2.13 -0.0931994
2.14 -0.082996
2.15 -0.073573
2.16 -0.0653299
2.17 -0.0588357
2.18 -0.0542691
2.19 -0.0518562
2.2 -0.0517644
2.21 -0.0540847
2.22 -0.05883
2.23 -0.0660348
2.24 -0.0755843
2.25 -0.0870826
2.26 -0.100243
2.27 -0.114734
2.28 -0.130186
2.29 -0.146211
2.3 -0.162392
2.31 -0.178286
2.32 -0.193531
2.33 -0.207804
2.34 -0.220828
2.35 -0.232382
2.36 -0.242247
2.37 -0.250239
2.38 -0.256487
2.39 -0.261045
2.4 -0.264026
2.41 -0.265599
2.42 -0.265977
2.43 -0.265351
2.44 -0.264085
2.45 -0.262496
2.46 -0.260871
2.47 -0.259484
2.48 -0.258587
2.49 -0.258422
2.5 -0.25925
2.51 -0.261123
2.52 -0.264113
2.53 -0.268244
2.54 -0.273485
2.55 -0.279764
2.56 -0.287018
2.57 -0.295034
2.58 -0.303585
2.59 -0.31246
2.6 -0.321441
2.61 -0.330306
2.62 -0.338833
2.63 -0.346754
2.64 -0.353938
2.65 -0.360243
2.66 -0.365561
2.67 -0.36982
2.68 -0.372981
2.69 -0.374973
2.7 -0.375849
2.71 -0.37573
2.72 -0.374704
2.73 -0.372874
2.74 -0.370353
2.75 -0.367254
2.76 -0.36365
2.77 -0.359701
2.78 -0.355489
2.79 -0.351074
2.8 -0.346493
2.81 -0.341754
2.82 -0.336829
2.83 -0.331665
2.84 -0.326201
2.85 -0.320346
2.86 -0.313995
2.87 -0.307036
2.88 -0.299353
2.89 -0.29073
2.9 -0.281139
2.91 -0.270504
2.92 -0.258765
2.93 -0.245886
2.94 -0.231862
2.95 -0.216672
2.96 -0.200352
2.97 -0.183081
2.98 -0.164982
2.99 -0.146204
3 -0.126915
3.01 -0.107297
3.02 -0.0875471
3.03 -0.0678903
3.04 -0.0485144
3.05 -0.029592
3.06 -0.0112768
3.07 0.00630126
3.08 0.0230115
3.09 0.0387304
3.1 0.0535033
3.11 0.0673367
3.12 0.0802697
3.13 0.0923719
3.14 0.10374
3.15 0.114452
3.16 0.124696
3.17 0.134641
3.18 0.144438
3.19 0.154234
3.2 0.164168
3.21 0.174369
3.22 0.184975
3.23 0.196028
3.24 0.207564
3.25 0.219592
3.26 0.232087
3.27 0.244995
3.28 0.258246
3.29 0.271702
3.3 0.285211
3.31 0.298621
3.32 0.311769
3.33 0.324491
3.34 0.336614
3.35 0.347893
3.36 0.358259
3.37 0.367596
3.38 0.375812
3.39 0.382844
3.4 0.388659
3.41 0.393178
3.42 0.39645
3.43 0.398606
3.44 0.399739
3.45 0.399965
3.46 0.399419
3.47 0.398249
3.48 0.396583
3.49 0.394651
3.5 0.392616
3.51 0.390634
3.52 0.388848
3.53 0.387388
3.54 0.386392
3.55 0.385967
3.56 0.386147
3.57 0.386972
3.58 0.388459
3.59 0.390608
3.6 0.393396
3.61 0.396847
3.62 0.400848
3.63 0.40533
3.64 0.410228
3.65 0.415474
3.66 0.421002
3.67 0.426755
3.68 0.432675
3.69 0.438699
3.7 0.444791
3.71 0.450922
3.72 0.457072
3.73 0.463231
3.74 0.469394
3.75 0.47556
3.76 0.481731
3.77 0.487908
3.78 0.494087
3.79 0.50026
3.8 0.506408
3.81 0.512495
3.82 0.51848
3.83 0.524309
3.84 0.529911
3.85 0.535206
3.86 0.5401
3.87 0.544437
3.88 0.548112
3.89 0.551025
3.9 0.553051
3.91 0.55407
3.92 0.553961
3.93 0.552588
3.94 0.549729
3.95 0.54542
3.96 0.539591
3.97 0.532185
3.98 0.523165
3.99 0.512514
4 0.500116
4.01 0.486038
4.02 0.470398
4.03 0.453251
4.04 0.434672
4.05 0.414746
4.06 0.393559
4.07 0.371111
4.08 0.34765
4.09 0.32329
4.1 0.298148
4.11 0.27234
4.12 0.245982
4.13 0.219167
4.14 0.192025
4.15 0.164684
4.16 0.137248
4.17 0.109816
4.18 0.0824836
4.19 0.0553461
4.2 0.028538
4.21 0.00212706
4.22 -0.0237989
4.23 -0.049152
4.24 -0.0738457
4.25 -0.0977951
4.26 -0.120873
4.27 -0.142973
4.28 -0.164078
4.29 -0.184123
4.3 -0.203049
4.31 -0.220807
4.32 -0.23736
4.33 -0.252556
4.34 -0.266494
4.35 -0.279201
4.36 -0.290701
4.37 -0.301035
4.38 -0.310258
4.39 -0.318407
4.4 -0.325538
4.41 -0.331831
4.42 -0.337393
4.43 -0.342336
4.44 -0.346774
4.45 -0.35082
4.46 -0.354568
4.47 -0.358149
4.48 -0.361657
4.49 -0.365166
4.5 -0.368733
4.51 -0.372397
4.52 -0.376182
4.53 -0.380093
4.54 -0.384096
4.55 -0.388148
4.56 -0.392192
4.57 -0.396157
4.58 -0.399962
4.59 -0.403491
4.6 -0.406652
4.61 -0.409365
4.62 -0.411546
4.63 -0.413124
4.64 -0.414037
4.65 -0.414232
4.66 -0.41362
4.67 -0.412277
4.68 -0.410228
4.69 -0.407517
4.7 -0.404215
4.71 -0.400406
4.72 -0.396178
4.73 -0.391676
4.74 -0.387051
4.75 -0.382442
4.76 -0.377986
4.77 -0.37382
4.78 -0.370074
4.79 -0.366937
4.8 -0.364454
4.81 -0.362704
4.82 -0.361743
4.83 -0.361604
4.84 -0.362296
4.85 -0.36385
4.86 -0.366219
4.87 -0.369289
4.88 -0.372978
4.89 -0.377187
4.9 -0.381804
4.91 -0.386712
4.92 -0.391791
4.93 -0.396891
4.94 -0.401893
4.95 -0.406687
4.96 -0.411177
4.97 -0.415278
4.98 -0.418898
4.99 -0.421967
5 -0.424488
5.01 -0.426445
5.02 -0.427838
5.03 -0.428679
5.04 -0.42899
5.05 -0.428753
5.06 -0.428048
5.07 -0.426914
5.08 -0.425381
5.09 -0.42347
5.1 -0.421192
5.11 -0.418533
5.12 -0.415456
5.13 -0.411956
5.14 -0.407981
5.15 -0.403465
5.16 -0.398328
5.17 -0.392474
5.18 -0.385719
5.19 -0.377985
5.2 -0.369181
5.21 -0.359192
5.22 -0.347907
5.23 -0.335225
5.24 -0.321015
5.25 -0.30509
5.26 -0.287534
5.27 -0.268318
5.28 -0.24743
5.29 -0.224885
5.3 -0.20072
5.31 -0.174878
5.32 -0.147514
5.33 -0.118795
5.34 -0.0888445
5.35 -0.0577987
5.36 -0.0258055
5.37 0.00698687
5.38 0.0404534
5.39 0.0743519
5.4 0.10852
5.41 0.142799
5.42 0.177036
5.43 0.211084
5.44 0.244775
5.45 0.277964
5.46 0.31055
5.47 0.342418
5.48 0.373461
5.49 0.403577
5.5 0.432664
5.51 0.460484
5.52 0.487058
5.53 0.512287
5.54 0.536066
5.55 0.558287
5.56 0.578838
5.57 0.597498
5.58 0.614115
5.59 0.62868
5.6 0.641072
5.61 0.651173
5.62 0.65887
5.63 0.664059
5.64 0.666358
5.65 0.665945
5.66 0.662787
5.67 0.656854
5.68 0.648138
5.69 0.636659
5.7 0.622346
5.71 0.605216
5.72 0.585577
5.73 0.563569
5.74 0.539358
5.75 0.513132
5.76 0.485102
5.77 0.455364
5.78 0.42431
5.79 0.392221
5.8 0.359348
5.81 0.325944
5.82 0.292253
5.83 0.258516
5.84 0.224989
5.85 0.191871
5.86 0.159338
5.87 0.127545
5.88 0.0966242
5.89 0.0666821
5.9 0.0379013
5.91 0.0102909
5.92 -0.0161435
5.93 -0.0413796
5.94 -0.0654081
5.95 -0.0882299
5.96 -0.109827
5.97 -0.130124
5.98 -0.149246
5.99 -0.167199
6 -0.183985
6.01 -0.199596
6.02 -0.214015
6.03 -0.227123
6.04 -0.238917
6.05 -0.249402
6.06 -0.258523
6.07 -0.266223
6.08 -0.27244
6.09 -0.277095
6.1 -0.279975
6.11 -0.281195
6.12 -0.280722
6.13 -0.278533
6.14 -0.274624
6.15 -0.26901
6.16 -0.261624
6.17 -0.252552
6.18 -0.241971
6.19 -0.229987
6.2 -0.216729
6.21 -0.202344
6.22 -0.186994
6.23 -0.170785
6.24 -0.154013
6.25 -0.136868
6.26 -0.119541
6.27 -0.102218
6.28 -0.0850769
6.29 -0.0683103
6.3 -0.0520925
6.31 -0.0365235
6.32 -0.0217045
6.33 -0.00771205
6.34 0.00540262
6.35 0.0176146
6.36 0.0288322
6.37 0.0391739
6.38 0.0487054
6.39 0.0575025
6.4 0.0656591
6.41 0.0732833
6.42 0.0804832
6.43 0.0873955
6.44 0.0941811
6.45 0.100971
6.46 0.107893
6.47 0.115066
6.48 0.122601
6.49 0.130648
6.5 0.139266
6.51 0.148509
6.52 0.158425
6.53 0.169048
6.54 0.180392
6.55 0.192481
6.56 0.205336
6.57 0.218863
6.58 0.23302
6.59 0.247753
6.6 0.263004
6.61 0.278704
6.62 0.294809
6.63 0.311213
6.64 0.327829
6.65 0.344579
6.66 0.361389
6.67 0.378181
6.68 0.394882
6.69 0.411399
6.7 0.427672
6.71 0.443637
6.72 0.459228
6.73 0.474381
6.74 0.489033
6.75 0.503076
6.76 0.516451
6.77 0.529119
6.78 0.541015
6.79 0.552069
6.8 0.562213
6.81 0.571365
6.82 0.579338
6.83 0.586166
6.84 0.591772
6.85 0.596082
6.86 0.599021
6.87 0.600515
6.88 0.600395
6.89 0.598593
6.9 0.595131
6.91 0.589952
6.92 0.583005
6.93 0.574247
6.94 0.563642
6.95 0.550949
6.96 0.536362
6.97 0.519881
6.98 0.501517
6.99 0.48129
7 0.459233
7.01 0.435304
7.02 0.409545
7.03 0.382148
7.04 0.3532
7.05 0.322802
7.06 0.291065
7.07 0.258112
7.08 0.223978
7.09 0.188921
7.1 0.153109
7.11 0.116703
7.12 0.0798673
7.13 0.0427717
7.14 0.00559105
7.15 -0.031476
7.16 -0.0682564
7.17 -0.104586
7.18 -0.140307
7.19 -0.175269
7.2 -0.209332
7.21 -0.242263
7.22 -0.274004
7.23 -0.304483
7.24 -0.333619
7.25 -0.361346
7.26 -0.387612
7.27 -0.412342
7.28 -0.435425
7.29 -0.456995
7.3 -0.477064
7.31 -0.49566
7.32 -0.512818
7.33 -0.528584
7.34 -0.542906
7.35 -0.555908
7.36 -0.567701
7.37 -0.578343
7.38 -0.587894
7.39 -0.596412
7.4 -0.603933
7.41 -0.610432
7.42 -0.616046
7.43 -0.620808
7.44 -0.624744
7.45 -0.627877
7.46 -0.630219
7.47 -0.631728
7.48 -0.632428
7.49 -0.632358
7.5 -0.631521
7.51 -0.629919
7.52 -0.627555
7.53 -0.624432
7.54 -0.620482
7.55 -0.615804
7.56 -0.610419
7.57 -0.604352
7.58 -0.597634
7.59 -0.590299
7.6 -0.582354
7.61 -0.573848
7.62 -0.564858
7.63 -0.555428
7.64 -0.545601
7.65 -0.535417
7.66 -0.524912
7.67 -0.51409
7.68 -0.503008
7.69 -0.491686
7.7 -0.480135
7.71 -0.46836
7.72 -0.456359
7.73 -0.444114
7.74 -0.431606
7.75 -0.418838
7.76 -0.405793
7.77 -0.39246
7.78 -0.378828
7.79 -0.364892
7.8 -0.350627
7.81 -0.336073
7.82 -0.321261
7.83 -0.306231
7.84 -0.291034
7.85 -0.275735
7.86 -0.260415
7.87 -0.245181
7.88 -0.230138
7.89 -0.215399
7.9 -0.201083
7.91 -0.187312
7.92 -0.174209
7.93 -0.161977
7.94 -0.150691
7.95 -0.140435
7.96 -0.131297
7.97 -0.123351
7.98 -0.116653
7.99 -0.111275
8 -0.107318
8.01 -0.104651
8.02 -0.103242
8.03 -0.10304
8.04 -0.103972
8.05 -0.10595
8.06 -0.108936
8.07 -0.112762
8.08 -0.117271
8.09 -0.122334
8.1 -0.127827
8.11 -0.133626
8.12 -0.139619
8.13 -0.145694
8.14 -0.151746
8.15 -0.157698
8.16 -0.163492
8.17 -0.169085
8.18 -0.174447
8.19 -0.179549
8.2 -0.184398
8.21 -0.189017
8.22 -0.193427
8.23 -0.197653
8.24 -0.201719
8.25 -0.205647
8.26 -0.209441
8.27 -0.21312
8.28 -0.216677
8.29 -0.220087
8.3 -0.223312
8.31 -0.226295
8.32 -0.228939
8.33 -0.231136
8.34 -0.232797
8.35 -0.233799
8.36 -0.234011
8.37 -0.233295
8.38 -0.231511
8.39 -0.228373
8.4 -0.223861
8.41 -0.217863
8.42 -0.210276
8.43 -0.201014
8.44 -0.19001
8.45 -0.177144
8.46 -0.162352
8.47 -0.145781
8.48 -0.127474
8.49 -0.107499
8.5 -0.0859474
8.51 -0.0629304
8.52 -0.0384601
8.53 -0.0128028
8.54 0.0138629
8.55 0.0413794
8.56 0.0695897
8.57 0.0983409
8.58 0.127498
8.59 0.156924
8.6 0.186475
8.61 0.216055
8.62 0.245586
8.63 0.275009
8.64 0.304281
8.65 0.333363
8.66 0.362255
8.67 0.390966
8.68 0.419507
8.69 0.447894
8.7 0.476138
8.71 0.504248
8.72 0.532211
8.73 0.560024
8.74 0.587653
8.75 0.615043
8.76 0.642123
8.77 0.668793
8.78 0.694885
8.79 0.720253
8.8 0.744753
8.81 0.768202
8.82 0.790404
8.83 0.811153
8.84 0.830215
8.85 0.84718
8.86 0.862023
8.87 0.874551
8.88 0.884589
8.89 0.89198
8.9 0.896592
8.91 0.898129
8.92 0.896546
8.93 0.89196
8.94 0.884369
8.95 0.8738
8.96 0.860312
8.97 0.84399
8.98 0.824648
8.99 0.802751
9 0.778456
9.01 0.75193
9.02 0.723351
9.03 0.692901
9.04 0.660678
9.05 0.626875
9.06 0.591765
9.07 0.555508
9.08 0.518253
9.09 0.480137
9.1 0.441284
9.11 0.401752
9.12 0.361712
9.13 0.321263
9.14 0.280491
9.15 0.239482
9.16 0.198317
9.17 0.157086
9.18 0.115898
9.19 0.0748607
9.2 0.0340892
9.21 -0.0062878
9.22 -0.0461282
9.23 -0.0852762
9.24 -0.123462
9.25 -0.160545
9.26 -0.196351
9.27 -0.230676
9.28 -0.263317
9.29 -0.294068
9.3 -0.322655
9.31 -0.348737
9.32 -0.372319
9.33 -0.393241
9.34 -0.411365
9.35 -0.426578
9.36 -0.43879
9.37 -0.447684
9.38 -0.453391
9.39 -0.456023
9.4 -0.455621
9.41 -0.452254
9.42 -0.446021
9.43 -0.436989
9.44 -0.425125
9.45 -0.410858
9.46 -0.394364
9.47 -0.375833
9.48 -0.355456
9.49 -0.333427
9.5 -0.309844
9.51 -0.284961
9.52 -0.259017
9.53 -0.232177
9.54 -0.204593
9.55 -0.176406
9.56 -0.147742
9.57 -0.118694
9.58 -0.0894133
9.59 -0.0599941
9.6 -0.0305233
9.61 -0.00108321
9.62 0.0282465
9.63 0.0573693
9.64 0.0861928
9.65 0.114642
9.66 0.142626
9.67 0.170048
9.68 0.196804
9.69 0.222784
9.7 0.247756
9.71 0.271689
9.72 0.294462
9.73 0.315951
9.74 0.336036
9.75 0.354601
9.76 0.371449
9.77 0.386446
9.78 0.399621
9.79 0.410908
9.8 0.420264
9.81 0.427661
9.82 0.433095
9.83 0.436382
9.84 0.437742
9.85 0.437264
9.86 0.435024
9.87 0.431119
9.88 0.425657
9.89 0.418704
9.9 0.410358
9.91 0.400861
9.92 0.390344
9.93 0.378938
9.94 0.366766
9.95 0.353945
9.96 0.340538
9.97 0.326688
9.98 0.312484
9.99 0.297991
10 0.283259
10.01 0.268327
10.02 0.253217
10.03 0.237938
10.04 0.222512
10.05 0.20694
10.06 0.19122
10.07 0.175351
10.08 0.159333
10.09 0.143156
10.1 0.12684
10.11 0.110407
10.12 0.0938827
10.13 0.0773021
10.14 0.0607084
10.15 0.044155
10.16 0.027717
10.17 0.0114557
10.18 -0.0045588
10.19 -0.0202547
10.2 -0.0355605
10.21 -0.0504071
10.22 -0.064689
10.23 -0.0783551
10.24 -0.0913839
10.25 -0.10374
10.26 -0.1154
10.27 -0.126354
10.28 -0.136598
10.29 -0.146079
10.3 -0.154905
10.31 -0.163117
10.32 -0.170765
10.33 -0.177906
10.34 -0.184604
10.35 -0.190906
10.36 -0.196892
10.37 -0.202649
10.38 -0.208238
10.39 -0.213715
10.4 -0.21913
10.41 -0.224525
10.42 -0.229934
10.43 -0.235379
10.44 -0.240872
10.45 -0.246412
10.46 -0.251993
10.47 -0.257601
10.48 -0.263216
10.49 -0.26881
10.5 -0.274358
10.51 -0.279832
10.52 -0.285209
10.53 -0.290467
10.54 -0.295589
10.55 -0.300548
10.56 -0.305353
10.57 -0.310008
10.58 -0.314523
10.59 -0.318914
10.6 -0.323201
10.61 -0.327407
10.62 -0.331563
10.63 -0.335704
10.64 -0.339858
10.65 -0.344053
10.66 -0.348311
10.67 -0.352649
10.68 -0.357088
10.69 -0.361624
10.7 -0.366248
10.71 -0.370945
10.72 -0.375693
10.73 -0.380461
10.74 -0.385211
10.75 -0.38989
10.76 -0.394454
10.77 -0.398854
10.78 -0.403043
10.79 -0.406974
10.8 -0.410608
10.81 -0.413879
10.82 -0.416772
10.83 -0.419285
10.84 -0.421412
10.85 -0.423157
10.86 -0.424537
10.87 -0.425573
10.88 -0.426281
10.89 -0.42674
10.9 -0.427004
10.91 -0.427128
10.92 -0.427171
10.93 -0.427191
10.94 -0.427248
10.95 -0.427398
10.96 -0.427679
10.97 -0.428118
10.98 -0.428734
10.99 -0.429529
11 -0.430494
11.01 -0.431614
11.02 -0.432826
11.03 -0.434073
11.04 -0.435284
11.05 -0.436379
11.06 -0.437267
11.07 -0.43783
11.08 -0.437951
11.09 -0.43755
11.1 -0.436529
11.11 -0.434797
11.12 -0.432273
11.13 -0.428884
11.14 -0.424467
11.15 -0.419073
11.16 -0.412686
11.17 -0.405302
11.18 -0.396932
11.19 -0.387608
11.2 -0.377336
11.21 -0.366168
11.22 -0.354244
11.23 -0.341652
11.24 -0.328488
11.25 -0.314852
11.26 -0.300848
11.27 -0.286563
11.28 -0.272127
11.29 -0.257638
11.3 -0.243181
11.31 -0.228828
11.32 -0.214643
11.33 -0.200683
11.34 -0.186999
11.35 -0.173591
11.36 -0.160464
11.37 -0.14761
11.38 -0.135007
11.39 -0.122627
11.4 -0.110441
11.41 -0.0983837
11.42 -0.0863976
11.43 -0.0744256
11.44 -0.06241
11.45 -0.0502934
11.46 -0.0380156
11.47 -0.0255045
11.48 -0.0127303
11.49 0.000346457
11.5 0.0137584
11.51 0.0275314
11.52 0.041684
11.53 0.0562586
11.54 0.0712449
11.55 0.0866245
11.56 0.102389
11.57 0.118525
11.58 0.135014
11.59 0.151841
11.6 0.169007
11.61 0.186452
11.62 0.204147
11.63 0.222065
11.64 0.240175
11.65 0.258448
11.66 0.276858
11.67 0.295367
11.68 0.313934
11.69 0.332524
11.7 0.351101
11.71 0.369624
11.72 0.388051
11.73 0.406315
11.74 0.424378
11.75 0.442189
11.76 0.459689
11.77 0.476819
11.78 0.493516
11.79 0.509682
11.8 0.525233
11.81 0.540131
11.82 0.554302
11.83 0.567675
11.84 0.580177
11.85 0.591737
11.86 0.60217
11.87 0.611504
11.88 0.619686
11.89 0.62666
11.9 0.632374
11.91 0.63678
11.92 0.639779
11.93 0.64129
11.94 0.641388
11.95 0.640053
11.96 0.637273
11.97 0.633042
11.98 0.627361
11.99 0.620099
12 0.611385
12.01 0.601269
12.02 0.58978
12.03 0.576953
12.04 0.56283
12.05 0.547418
12.06 0.530718
12.07 0.512896
12.08 0.494019
12.09 0.474161
12.1 0.453403
12.11 0.43183
12.12 0.409481
12.13 0.386507
12.14 0.363035
12.15 0.339174
12.16 0.31504
12.17 0.290749
12.18 0.266425
12.19 0.242215
12.2 0.218242
12.21 0.194632
12.22 0.171507
12.23 0.148986
12.24 0.127185
12.25 0.106283
12.26 0.0863695
