# xPDFsuite Configuration #
[PDF]
wavelength = 0.1
dataformat = QA
inputfile = BiMsol6_insitu_700 C-00639.xy
backgroundfile = Quartz2mm-dist500-00000.xy
mode = xray
bgscale = 0.0042
composition = Bi2Fe4O9
outputtype = gr
qmaxinst = 24.998449118
qmin = 0.1
qmax = 21.4986662415
rmax = 80.0
rmin = 0.0
rstep = 0.01
rpoly = 0.9

[Misc]
inputdir = C:/Data/Seafile/CPH/Beamtime/Desy Oct 20/In situ data/Processed/BiMsol6/PDF
savedir = C:/Data/Seafile/CPH/Beamtime/Desy Oct 20/In situ data/PDF/BiMsol6
backgroundfilefull = C:/Data/Seafile/CPH/Beamtime/Desy Oct 20/In situ data/Processed/Standard_Empty_Cap/Quartz2mm-dist500-00000.xy

#### start data
#S 1
#L r($\AA$)  G($\AA^{-2}$)
0 0
0.01 0.00645163
0.02 0.0125395
0.03 0.0179521
0.04 0.0224101
0.05 0.0256788
0.06 0.0275789
0.07 0.0279144
0.08 0.0266275
0.09 0.0238616
0.1 0.0197342
0.11 0.0144283
0.12 0.00818373
0.13 0.00128732
0.14 -0.00593937
0.15 -0.0130893
0.16 -0.0198194
0.17 -0.0258076
0.18 -0.0307647
0.19 -0.0344489
0.2 -0.0366114
0.21 -0.0370814
0.22 -0.0359552
0.23 -0.033297
0.24 -0.0292496
0.25 -0.0240293
0.26 -0.017918
0.27 -0.0112352
0.28 -0.00444501
0.29 0.00203962
0.3 0.00781783
0.31 0.0125082
0.32 0.0157674
0.33 0.0172478
0.34 0.0166091
0.35 0.0139001
0.36 0.00911549
0.37 0.00235392
0.38 -0.00618086
0.39 -0.0161827
0.4 -0.0272976
0.41 -0.0389116
0.42 -0.0504222
0.43 -0.061217
0.44 -0.0706623
0.45 -0.0781266
0.46 -0.082943
0.47 -0.0842533
0.48 -0.0818687
0.49 -0.0754415
0.5 -0.0647453
0.51 -0.0496892
0.52 -0.030328
0.53 -0.00659601
0.54 0.0209598
0.55 0.0516196
0.56 0.0847141
0.57 0.119461
0.58 0.154987
0.59 0.190341
0.6 0.224309
0.61 0.255945
0.62 0.284296
0.63 0.308471
0.64 0.327669
0.65 0.341205
0.66 0.348129
0.67 0.34806
0.68 0.341184
0.69 0.327519
0.7 0.307267
0.71 0.280805
0.72 0.248681
0.73 0.211117
0.74 0.169601
0.75 0.125099
0.76 0.0786393
0.77 0.0312824
0.78 -0.0159031
0.79 -0.0617615
0.8 -0.105137
0.81 -0.145252
0.82 -0.181354
0.83 -0.21283
0.84 -0.239219
0.85 -0.260224
0.86 -0.275149
0.87 -0.284562
0.88 -0.28878
0.89 -0.288189
0.9 -0.283302
0.91 -0.274737
0.92 -0.263112
0.93 -0.249212
0.94 -0.234048
0.95 -0.218402
0.96 -0.203024
0.97 -0.188608
0.98 -0.17577
0.99 -0.165262
1 -0.157383
1.01 -0.152336
1.02 -0.150257
1.03 -0.151159
1.04 -0.154939
1.05 -0.161454
1.06 -0.170491
1.07 -0.181418
1.08 -0.193784
1.09 -0.207105
1.1 -0.220887
1.11 -0.23464
1.12 -0.247831
1.13 -0.26002
1.14 -0.270891
1.15 -0.280176
1.16 -0.287694
1.17 -0.293342
1.18 -0.297074
1.19 -0.298821
1.2 -0.298927
1.21 -0.29761
1.22 -0.295135
1.23 -0.2918
1.24 -0.287921
1.25 -0.283824
1.26 -0.279863
1.27 -0.276316
1.28 -0.273411
1.29 -0.271326
1.3 -0.270177
1.31 -0.270027
1.32 -0.270961
1.33 -0.272779
1.34 -0.275339
1.35 -0.278452
1.36 -0.281888
1.37 -0.285397
1.38 -0.288684
1.39 -0.291447
1.4 -0.293457
1.41 -0.294503
1.42 -0.294412
1.43 -0.293067
1.44 -0.290403
1.45 -0.286281
1.46 -0.280921
1.47 -0.27447
1.48 -0.267123
1.49 -0.259124
1.5 -0.250754
1.51 -0.242333
1.52 -0.234237
1.53 -0.226783
1.54 -0.220271
1.55 -0.214969
1.56 -0.2111
1.57 -0.208833
1.58 -0.208451
1.59 -0.209835
1.6 -0.212902
1.61 -0.217524
1.62 -0.223502
1.63 -0.230577
1.64 -0.238451
1.65 -0.246728
1.66 -0.254959
1.67 -0.262738
1.68 -0.269666
1.69 -0.275361
1.7 -0.279472
1.71 -0.281506
1.72 -0.281319
1.73 -0.278807
1.74 -0.273889
1.75 -0.266565
1.76 -0.256915
1.77 -0.245044
1.78 -0.231094
1.79 -0.215567
1.8 -0.198819
1.81 -0.181244
1.82 -0.163256
1.83 -0.145277
1.84 -0.127786
1.85 -0.111203
1.86 -0.0958479
1.87 -0.0820094
1.88 -0.0699126
1.89 -0.0597132
1.9 -0.0515228
1.91 -0.0455135
1.92 -0.0413942
1.93 -0.0390102
1.94 -0.0381468
1.95 -0.0385395
1.96 -0.0398859
1.97 -0.0418773
1.98 -0.044116
1.99 -0.0462441
2 -0.0479556
2.01 -0.0489799
2.02 -0.0490939
2.03 -0.0481274
2.04 -0.0458456
2.05 -0.042362
2.06 -0.0377357
2.07 -0.0320956
2.08 -0.0256357
2.09 -0.0186078
2.1 -0.0113179
2.11 -0.00416137
2.12 0.00248192
2.13 0.00823901
2.14 0.0127452
2.15 0.0156579
2.16 0.0166703
2.17 0.0152645
2.18 0.0114533
2.19 0.00513895
2.2 -0.00371868
2.21 -0.0150837
2.22 -0.0288442
2.23 -0.044904
2.24 -0.0630155
2.25 -0.0826968
2.26 -0.103576
2.27 -0.125247
2.28 -0.147285
2.29 -0.169256
2.3 -0.190645
2.31 -0.211048
2.32 -0.230115
2.33 -0.247536
2.34 -0.263055
2.35 -0.276481
2.36 -0.287615
2.37 -0.296296
2.38 -0.302747
2.39 -0.307071
2.4 -0.309431
2.41 -0.310043
2.42 -0.309165
2.43 -0.307014
2.44 -0.304014
2.45 -0.300522
2.46 -0.296857
2.47 -0.293321
2.48 -0.29019
2.49 -0.287725
2.5 -0.286204
2.51 -0.285702
2.52 -0.286305
2.53 -0.288047
2.54 -0.290913
2.55 -0.294841
2.56 -0.299786
2.57 -0.305549
2.58 -0.311912
2.59 -0.31868
2.6 -0.325647
2.61 -0.332606
2.62 -0.339352
2.63 -0.345641
2.64 -0.351341
2.65 -0.356325
2.66 -0.360493
2.67 -0.363782
2.68 -0.366163
2.69 -0.367584
2.7 -0.368104
2.71 -0.367841
2.72 -0.36689
2.73 -0.365361
2.74 -0.363378
2.75 -0.361067
2.76 -0.358546
2.77 -0.355968
2.78 -0.353437
2.79 -0.35104
2.8 -0.348844
2.81 -0.346895
2.82 -0.345229
2.83 -0.343846
2.84 -0.342699
2.85 -0.341745
2.86 -0.340922
2.87 -0.340159
2.88 -0.339377
2.89 -0.338475
2.9 -0.337376
2.91 -0.336008
2.92 -0.334311
2.93 -0.332234
2.94 -0.329742
2.95 -0.326794
2.96 -0.323372
2.97 -0.319521
2.98 -0.31526
2.99 -0.310621
3 -0.305638
3.01 -0.300344
3.02 -0.294746
3.03 -0.288888
3.04 -0.282782
3.05 -0.276418
3.06 -0.269767
3.07 -0.26278
3.08 -0.255369
3.09 -0.247399
3.1 -0.238788
3.11 -0.229402
3.12 -0.219093
3.13 -0.207706
3.14 -0.195083
3.15 -0.180937
3.16 -0.165183
3.17 -0.14774
3.18 -0.128509
3.19 -0.107422
3.2 -0.0844426
3.21 -0.0595366
3.22 -0.0326227
3.23 -0.00398399
3.24 0.0262338
3.25 0.0578423
3.26 0.0906131
3.27 0.124282
3.28 0.158573
3.29 0.1931
3.3 0.227498
3.31 0.261417
3.32 0.294507
3.33 0.326429
3.34 0.356838
3.35 0.385223
3.36 0.411488
3.37 0.435407
3.38 0.456793
3.39 0.475506
3.4 0.491448
3.41 0.504392
3.42 0.514361
3.43 0.52156
3.44 0.526072
3.45 0.528021
3.46 0.527553
3.47 0.524841
3.48 0.519859
3.49 0.513061
3.5 0.504654
3.51 0.49484
3.52 0.483813
3.53 0.471756
3.54 0.458803
3.55 0.445116
3.56 0.430878
3.57 0.416199
3.58 0.401172
3.59 0.385871
3.6 0.37036
3.61 0.354677
3.62 0.338882
3.63 0.323014
3.64 0.307111
3.65 0.291212
3.66 0.275362
3.67 0.259624
3.68 0.244076
3.69 0.22879
3.7 0.213856
3.71 0.199376
3.72 0.185462
3.73 0.172236
3.74 0.159914
3.75 0.148586
3.76 0.138365
3.77 0.129379
3.78 0.121748
3.79 0.115583
3.8 0.111031
3.81 0.108278
3.82 0.107243
3.83 0.107965
3.84 0.110459
3.85 0.114722
3.86 0.120726
3.87 0.128559
3.88 0.138062
3.89 0.149089
3.9 0.161538
3.91 0.175295
3.92 0.190235
3.93 0.206244
3.94 0.223245
3.95 0.240998
3.96 0.259368
3.97 0.278221
3.98 0.297429
3.99 0.316866
4 0.336414
4.01 0.35594
4.02 0.375334
4.03 0.394494
4.04 0.413324
4.05 0.431729
4.06 0.449614
4.07 0.466817
4.08 0.483307
4.09 0.498998
4.1 0.513801
4.11 0.52763
4.12 0.540397
4.13 0.551941
4.14 0.562173
4.15 0.571076
4.16 0.578578
4.17 0.584611
4.18 0.589114
4.19 0.592037
4.2 0.593153
4.21 0.59261
4.22 0.590405
4.23 0.586538
4.24 0.581024
4.25 0.573893
4.26 0.56511
4.27 0.55471
4.28 0.542864
4.29 0.529646
4.3 0.515136
4.31 0.499416
4.32 0.482572
4.33 0.464592
4.34 0.445656
4.35 0.425858
4.36 0.405269
4.37 0.383955
4.38 0.361972
4.39 0.339351
4.4 0.316116
4.41 0.292352
4.42 0.268091
4.43 0.243361
4.44 0.218191
4.45 0.192609
4.46 0.166616
4.47 0.140279
4.48 0.113655
4.49 0.0867981
4.5 0.0597736
4.51 0.0326572
4.52 0.0055382
4.53 -0.0214661
4.54 -0.0482476
4.55 -0.0746893
4.56 -0.100669
4.57 -0.12606
4.58 -0.150737
4.59 -0.174499
4.6 -0.197251
4.61 -0.218918
4.62 -0.239406
4.63 -0.258639
4.64 -0.276555
4.65 -0.293092
4.66 -0.308112
4.67 -0.321761
4.68 -0.334065
4.69 -0.345073
4.7 -0.354852
4.71 -0.363483
4.72 -0.370999
4.73 -0.377544
4.74 -0.383284
4.75 -0.388337
4.76 -0.392818
4.77 -0.396841
4.78 -0.400509
4.79 -0.403896
4.8 -0.407117
4.81 -0.410233
4.82 -0.413289
4.83 -0.416315
4.84 -0.419322
4.85 -0.422306
4.86 -0.425245
4.87 -0.42811
4.88 -0.430861
4.89 -0.433454
4.9 -0.435839
4.91 -0.437971
4.92 -0.439765
4.93 -0.441213
4.94 -0.442287
4.95 -0.442966
4.96 -0.443243
4.97 -0.443119
4.98 -0.44259
4.99 -0.441675
5 -0.440433
5.01 -0.438904
5.02 -0.437128
5.03 -0.435151
5.04 -0.433011
5.05 -0.430738
5.06 -0.42837
5.07 -0.425927
5.08 -0.423413
5.09 -0.42082
5.1 -0.418124
5.11 -0.415282
5.12 -0.412229
5.13 -0.408911
5.14 -0.405259
5.15 -0.401192
5.16 -0.396632
5.17 -0.391498
5.18 -0.385654
5.19 -0.379067
5.2 -0.371709
5.21 -0.363546
5.22 -0.354569
5.23 -0.344786
5.24 -0.334216
5.25 -0.322879
5.26 -0.310935
5.27 -0.298494
5.28 -0.285688
5.29 -0.272666
5.3 -0.259591
5.31 -0.246656
5.32 -0.234056
5.33 -0.221959
5.34 -0.210531
5.35 -0.199925
5.36 -0.190277
5.37 -0.181717
5.38 -0.174446
5.39 -0.168404
5.4 -0.163614
5.41 -0.160067
5.42 -0.157725
5.43 -0.156521
5.44 -0.156422
5.45 -0.157272
5.46 -0.158878
5.47 -0.161086
5.48 -0.163733
5.49 -0.166652
5.5 -0.16968
5.51 -0.172638
5.52 -0.175378
5.53 -0.177778
5.54 -0.179736
5.55 -0.181172
5.56 -0.182033
5.57 -0.182253
5.58 -0.181825
5.59 -0.180809
5.6 -0.179244
5.61 -0.177186
5.62 -0.174704
5.63 -0.17187
5.64 -0.168742
5.65 -0.165426
5.66 -0.161989
5.67 -0.158486
5.68 -0.154953
5.69 -0.15141
5.7 -0.147855
5.71 -0.144261
5.72 -0.140581
5.73 -0.136749
5.74 -0.132684
5.75 -0.12829
5.76 -0.123461
5.77 -0.118023
5.78 -0.111896
5.79 -0.104988
5.8 -0.0972057
5.81 -0.0884737
5.82 -0.0787352
5.83 -0.0679229
5.84 -0.0559802
5.85 -0.0430247
5.86 -0.0291155
5.87 -0.0143398
5.88 0.00118803
5.89 0.0173297
5.9 0.0339498
5.91 0.0508238
5.92 0.0677501
5.93 0.0845364
5.94 0.100993
5.95 0.116936
5.96 0.132179
5.97 0.146493
5.98 0.159826
5.99 0.172085
6 0.183208
6.01 0.193164
6.02 0.201955
6.03 0.209533
6.04 0.21601
6.05 0.221528
6.06 0.226203
6.07 0.230165
6.08 0.233557
6.09 0.236521
6.1 0.239194
6.11 0.241751
6.12 0.244314
6.13 0.246984
6.14 0.249836
6.15 0.252923
6.16 0.256282
6.17 0.259895
6.18 0.263702
6.19 0.267628
6.2 0.271572
6.21 0.27541
6.22 0.279002
6.23 0.282127
6.24 0.284655
6.25 0.286423
6.26 0.287275
6.27 0.287065
6.28 0.285666
6.29 0.282899
6.3 0.278658
6.31 0.272985
6.32 0.265867
6.33 0.257323
6.34 0.247402
6.35 0.236185
6.36 0.223667
6.37 0.210108
6.38 0.195678
6.39 0.180545
6.4 0.164885
6.41 0.148879
6.42 0.132703
6.43 0.116549
6.44 0.10058
6.45 0.0849277
6.46 0.069705
6.47 0.0549992
6.48 0.0408723
6.49 0.0274189
6.5 0.0146003
6.51 0.00238041
6.52 -0.0092849
6.53 -0.0204589
6.54 -0.0312203
6.55 -0.0416527
6.56 -0.0518541
6.57 -0.0619505
6.58 -0.0720382
6.59 -0.0822056
6.6 -0.0925303
6.61 -0.103075
6.62 -0.11391
6.63 -0.125049
6.64 -0.136482
6.65 -0.148189
6.66 -0.160129
6.67 -0.172241
6.68 -0.184449
6.69 -0.196646
6.7 -0.208717
6.71 -0.220547
6.72 -0.232017
6.73 -0.243004
6.74 -0.253391
6.75 -0.263003
6.76 -0.27174
6.77 -0.279542
6.78 -0.286329
6.79 -0.292034
6.8 -0.296602
6.81 -0.299987
6.82 -0.302039
6.83 -0.302879
6.84 -0.302509
6.85 -0.300939
6.86 -0.298187
6.87 -0.294277
6.88 -0.289168
6.89 -0.282899
6.9 -0.275559
6.91 -0.267174
6.92 -0.257763
6.93 -0.247344
6.94 -0.235929
6.95 -0.223413
6.96 -0.209909
6.97 -0.195419
6.98 -0.179941
6.99 -0.16347
7 -0.146007
7.01 -0.127501
7.02 -0.107944
7.03 -0.0874158
7.04 -0.065938
7.05 -0.0435418
7.06 -0.0202685
7.07 0.00382956
7.08 0.0287596
7.09 0.0543689
7.1 0.0805587
7.11 0.107231
7.12 0.134279
7.13 0.16159
7.14 0.189045
7.15 0.216503
7.16 0.24383
7.17 0.270902
7.18 0.297596
7.19 0.323793
7.2 0.349379
7.21 0.374173
7.22 0.398113
7.23 0.421127
7.24 0.443136
7.25 0.464066
7.26 0.483854
7.27 0.502409
7.28 0.5196
7.29 0.535494
7.3 0.550055
7.31 0.56325
7.32 0.57505
7.33 0.585429
7.34 0.594241
7.35 0.601524
7.36 0.607305
7.37 0.611559
7.38 0.614261
7.39 0.615387
7.4 0.614884
7.41 0.612593
7.42 0.608655
7.43 0.603053
7.44 0.595777
7.45 0.58682
7.46 0.576186
7.47 0.563768
7.48 0.54963
7.49 0.533884
7.5 0.516574
7.51 0.497758
7.52 0.477504
7.53 0.455889
7.54 0.432886
7.55 0.408754
7.56 0.383615
7.57 0.357601
7.58 0.330852
7.59 0.303517
7.6 0.275736
7.61 0.247695
7.62 0.219582
7.63 0.19156
7.64 0.163794
7.65 0.136443
7.66 0.109664
7.67 0.0837014
7.68 0.0586316
7.69 0.0345789
7.7 0.0116598
7.71 -0.010022
7.72 -0.0303766
7.73 -0.0492591
7.74 -0.066572
7.75 -0.0823737
7.76 -0.0966412
7.77 -0.109367
7.78 -0.12056
7.79 -0.130244
7.8 -0.138314
7.81 -0.144954
7.82 -0.150253
7.83 -0.15429
7.84 -0.157151
7.85 -0.158927
7.86 -0.159684
7.87 -0.159499
7.88 -0.158552
7.89 -0.156943
7.9 -0.15477
7.91 -0.152124
7.92 -0.149091
7.93 -0.145726
7.94 -0.142124
7.95 -0.138348
7.96 -0.134441
7.97 -0.130436
7.98 -0.126356
7.99 -0.122212
8 -0.118
8.01 -0.11372
8.02 -0.109356
8.03 -0.104891
8.04 -0.100303
8.05 -0.0955702
8.06 -0.0906574
8.07 -0.0855525
8.08 -0.0802511
8.09 -0.07475
8.1 -0.0690541
8.11 -0.0631779
8.12 -0.0571442
8.13 -0.0509824
8.14 -0.0447553
8.15 -0.038519
8.16 -0.0323373
8.17 -0.0262803
8.18 -0.0204218
8.19 -0.0148616
8.2 -0.00968066
8.21 -0.00493573
8.22 -0.000691168
8.23 0.00299753
8.24 0.00608594
8.25 0.00854047
8.26 0.0102728
8.27 0.0113589
8.28 0.0118187
8.29 0.0116885
8.3 0.0110203
8.31 0.00988013
8.32 0.00833003
8.33 0.00647284
8.34 0.00442966
8.35 0.00230199
8.36 0.000191385
8.37 -0.00180398
8.38 -0.00359272
8.39 -0.00505454
8.4 -0.00614687
8.41 -0.00682463
8.42 -0.00705898
8.43 -0.00684098
8.44 -0.0061823
8.45 -0.00509939
8.46 -0.00364587
8.47 -0.00192657
8.48 -3.33575e-05
8.49 0.00192886
8.5 0.0038454
8.51 0.00559547
8.52 0.00701552
8.53 0.00799501
8.54 0.00842711
8.55 0.00821029
8.56 0.00725745
8.57 0.00549893
8.58 0.00285458
8.59 -0.000747472
8.6 -0.00523486
8.61 -0.010584
8.62 -0.0167492
8.63 -0.0236646
8.64 -0.031246
8.65 -0.0394331
8.66 -0.0480668
8.67 -0.0570094
8.68 -0.0661373
8.69 -0.075328
8.7 -0.0844647
8.71 -0.0934336
8.72 -0.102111
8.73 -0.11044
8.74 -0.118365
8.75 -0.125849
8.76 -0.132878
8.77 -0.139457
8.78 -0.145581
8.79 -0.151316
8.8 -0.156741
8.81 -0.161927
8.82 -0.166955
8.83 -0.171908
8.84 -0.17687
8.85 -0.181939
8.86 -0.187178
8.87 -0.192645
8.88 -0.198377
8.89 -0.204399
8.9 -0.210712
8.91 -0.217316
8.92 -0.22416
8.93 -0.231171
8.94 -0.23827
8.95 -0.245365
8.96 -0.252353
8.97 -0.259124
8.98 -0.265513
8.99 -0.271435
9 -0.276785
9.01 -0.281468
9.02 -0.285402
9.03 -0.288523
9.04 -0.290739
9.05 -0.292017
9.06 -0.292419
9.07 -0.291973
9.08 -0.29073
9.09 -0.288759
9.1 -0.28615
9.11 -0.282959
9.12 -0.279368
9.13 -0.275502
9.14 -0.271486
9.15 -0.267441
9.16 -0.263481
9.17 -0.259721
9.18 -0.256269
9.19 -0.253174
9.2 -0.250482
9.21 -0.248218
9.22 -0.246383
9.23 -0.24496
9.24 -0.243937
9.25 -0.243222
9.26 -0.242731
9.27 -0.242375
9.28 -0.242061
9.29 -0.241691
9.3 -0.241163
9.31 -0.24036
9.32 -0.239219
9.33 -0.237675
9.34 -0.23568
9.35 -0.233203
9.36 -0.230233
9.37 -0.226742
9.38 -0.222791
9.39 -0.218449
9.4 -0.213782
9.41 -0.208873
9.42 -0.203812
9.43 -0.198695
9.44 -0.193636
9.45 -0.188731
9.46 -0.184066
9.47 -0.179712
9.48 -0.175728
9.49 -0.172153
9.5 -0.169035
9.51 -0.166353
9.52 -0.164056
9.53 -0.162089
9.54 -0.160376
9.55 -0.158821
9.56 -0.157315
9.57 -0.155709
9.58 -0.153868
9.59 -0.151655
9.6 -0.148936
9.61 -0.145583
9.62 -0.141476
9.63 -0.136452
9.64 -0.13042
9.65 -0.123367
9.66 -0.115255
9.67 -0.106068
9.68 -0.0958159
9.69 -0.0845298
9.7 -0.0721585
9.71 -0.0588968
9.72 -0.0448396
9.73 -0.0300922
9.74 -0.0147685
9.75 0.00101322
9.76 0.0171455
9.77 0.0334996
9.78 0.0499488
9.79 0.0663983
9.8 0.0827664
9.81 0.0989868
9.82 0.115009
9.83 0.130773
9.84 0.146284
9.85 0.161544
9.86 0.176567
9.87 0.191376
9.88 0.206
9.89 0.220468
9.9 0.234813
9.91 0.249075
9.92 0.263276
9.93 0.277429
9.94 0.291532
9.95 0.30557
9.96 0.319503
9.97 0.333283
9.98 0.346849
9.99 0.360123
10 0.373018
10.01 0.385436
10.02 0.397252
10.03 0.408309
10.04 0.418554
10.05 0.427893
10.06 0.436238
10.07 0.443519
10.08 0.449678
10.09 0.454584
10.1 0.458278
10.11 0.460815
10.12 0.462232
10.13 0.46259
10.14 0.461969
10.15 0.460456
10.16 0.458122
10.17 0.455184
10.18 0.451784
10.19 0.448065
10.2 0.444171
10.21 0.440241
10.22 0.43642
10.23 0.432837
10.24 0.429582
10.25 0.426733
10.26 0.424342
10.27 0.422442
10.28 0.421045
10.29 0.420182
10.3 0.419756
10.31 0.419706
10.32 0.419956
10.33 0.420413
10.34 0.420978
10.35 0.421535
10.36 0.421959
10.37 0.422142
10.38 0.421982
10.39 0.421387
10.4 0.420273
10.41 0.418571
10.42 0.416151
10.43 0.413042
10.44 0.409228
10.45 0.404704
10.46 0.399479
10.47 0.393574
10.48 0.386989
10.49 0.379755
10.5 0.371958
10.51 0.363642
10.52 0.354848
10.53 0.345613
10.54 0.335968
10.55 0.325901
10.56 0.315459
10.57 0.304652
10.58 0.293475
10.59 0.281914
10.6 0.269948
10.61 0.257534
10.62 0.244619
10.63 0.231208
10.64 0.217274
10.65 0.202794
10.66 0.187753
10.67 0.172145
10.68 0.155929
10.69 0.139163
10.7 0.1219
10.71 0.104191
10.72 0.0861013
10.73 0.0677092
10.74 0.049101
10.75 0.0303821
10.76 0.0116764
10.77 -0.00690726
10.78 -0.0252608
10.79 -0.0432801
10.8 -0.0608688
10.81 -0.0778937
10.82 -0.0942973
10.83 -0.110048
10.84 -0.125113
10.85 -0.139478
10.86 -0.153149
10.87 -0.166144
10.88 -0.178463
10.89 -0.190238
10.9 -0.20155
10.91 -0.212491
10.92 -0.223161
10.93 -0.233662
10.94 -0.2441
10.95 -0.254587
10.96 -0.265213
10.97 -0.276053
10.98 -0.287165
10.99 -0.298589
11 -0.310346
11.01 -0.322467
11.02 -0.334881
11.03 -0.347535
11.04 -0.360357
11.05 -0.373253
11.06 -0.386114
11.07 -0.398802
11.08 -0.411163
11.09 -0.42307
11.1 -0.434387
11.11 -0.444979
11.12 -0.454721
11.13 -0.4635
11.14 -0.471088
11.15 -0.477513
11.16 -0.482723
11.17 -0.486686
11.18 -0.489388
11.19 -0.490839
11.2 -0.491013
11.21 -0.489941
11.22 -0.487778
11.23 -0.484607
11.24 -0.48052
11.25 -0.475616
11.26 -0.469995
11.27 -0.463708
11.28 -0.456911
11.29 -0.449699
11.3 -0.442148
11.31 -0.43432
11.32 -0.426264
11.33 -0.418005
11.34 -0.409551
11.35 -0.400916
11.36 -0.392082
11.37 -0.383021
11.38 -0.373695
11.39 -0.364056
11.4 -0.354018
11.41 -0.343544
11.42 -0.332595
11.43 -0.321125
11.44 -0.3091
11.45 -0.296493
11.46 -0.283275
11.47 -0.269408
11.48 -0.254967
11.49 -0.239987
11.5 -0.224516
11.51 -0.208619
11.52 -0.192372
11.53 -0.175849
11.54 -0.15917
11.55 -0.142449
11.56 -0.125791
11.57 -0.109304
11.58 -0.0930913
11.59 -0.0772567
11.6 -0.0619435
11.61 -0.0471889
11.62 -0.033059
11.63 -0.0196068
11.64 -0.00687155
11.65 0.00512137
11.66 0.0163107
11.67 0.0267118
11.68 0.0363798
11.69 0.0453419
11.7 0.0536334
11.71 0.0612966
11.72 0.0683772
11.73 0.0748703
11.74 0.0808915
11.75 0.086489
11.76 0.0917076
11.77 0.0965874
11.78 0.101163
11.79 0.105449
11.8 0.109466
11.81 0.113246
11.82 0.116793
11.83 0.12011
11.84 0.12319
11.85 0.126025
11.86 0.128576
11.87 0.130851
11.88 0.132839
11.89 0.134527
11.9 0.1359
11.91 0.13695
11.92 0.137653
11.93 0.137993
11.94 0.137994
11.95 0.137656
11.96 0.136981
11.97 0.135972
11.98 0.134634
11.99 0.132938
12 0.130909
12.01 0.128554
12.02 0.125864
12.03 0.122829
12.04 0.119434
12.05 0.115643
12.06 0.111403
12.07 0.106713
12.08 0.101533
12.09 0.0958208
12.1 0.0895304
12.11 0.0826149
12.12 0.0749659
12.13 0.0665706
12.14 0.0574109
12.15 0.0474539
12.16 0.0366754
12.17 0.025061
