# xPDFsuite Configuration #
[PDF]
wavelength = 0.1
dataformat = QA
inputfile = BiMsol6_insitu_700 C-00730.xy
backgroundfile = Quartz2mm-dist500-00000.xy
mode = xray
bgscale = 0.0042
composition = Bi2Fe4O9
outputtype = gr
qmaxinst = 24.998449118
qmin = 0.1
qmax = 21.4986662415
rmax = 80.0
rmin = 0.0
rstep = 0.01
rpoly = 0.9

[Misc]
inputdir = C:/Data/Seafile/CPH/Beamtime/Desy Oct 20/In situ data/Processed/BiMsol6/PDF
savedir = C:/Data/Seafile/CPH/Beamtime/Desy Oct 20/In situ data/PDF/BiMsol6
backgroundfilefull = C:/Data/Seafile/CPH/Beamtime/Desy Oct 20/In situ data/Processed/Standard_Empty_Cap/Quartz2mm-dist500-00000.xy

#### start data
#S 1
#L r($\AA$)  G($\AA^{-2}$)
0 0
0.01 0.00630213
0.02 0.0122475
0.03 0.0175307
0.04 0.0218779
0.05 0.025059
0.06 0.0268986
0.07 0.0272051
0.08 0.0259224
0.09 0.0231917
0.1 0.0191291
0.11 0.0139147
0.12 0.00778467
0.13 0.00102091
0.14 -0.00605994
0.15 -0.0130589
0.16 -0.0196395
0.17 -0.025486
0.18 -0.0303154
0.19 -0.0338915
0.2 -0.0359715
0.21 -0.0363896
0.22 -0.0352425
0.23 -0.0325955
0.24 -0.0285911
0.25 -0.0234439
0.26 -0.0174326
0.27 -0.0108744
0.28 -0.00422595
0.29 0.00210662
0.3 0.00772909
0.31 0.0122669
0.32 0.0153837
0.33 0.0167392
0.34 0.016001
0.35 0.0132213
0.36 0.00839854
0.37 0.00163387
0.38 -0.00686781
0.39 -0.0168007
0.4 -0.0278102
0.41 -0.039288
0.42 -0.0506378
0.43 -0.0612531
0.44 -0.0705076
0.45 -0.0777775
0.46 -0.0824043
0.47 -0.0835403
0.48 -0.0810042
0.49 -0.0744557
0.5 -0.063675
0.51 -0.0485769
0.52 -0.0292204
0.53 -0.00554619
0.54 0.0218991
0.55 0.0523987
0.56 0.0852859
0.57 0.119783
0.58 0.155022
0.59 0.190059
0.6 0.223687
0.61 0.254971
0.62 0.28297
0.63 0.3068
0.64 0.325672
0.65 0.33891
0.66 0.345573
0.67 0.345291
0.68 0.338253
0.69 0.324482
0.7 0.304183
0.71 0.277735
0.72 0.245686
0.73 0.208264
0.74 0.166945
0.75 0.122693
0.76 0.0765279
0.77 0.0295061
0.78 -0.0173115
0.79 -0.0627759
0.8 -0.10574
0.81 -0.145435
0.82 -0.181116
0.83 -0.212177
0.84 -0.238163
0.85 -0.258783
0.86 -0.273348
0.87 -0.282429
0.88 -0.286345
0.89 -0.285485
0.9 -0.280364
0.91 -0.2716
0.92 -0.259814
0.93 -0.245792
0.94 -0.230543
0.95 -0.21485
0.96 -0.199461
0.97 -0.185072
0.98 -0.172298
0.99 -0.161898
1 -0.154165
1.01 -0.149305
1.02 -0.147455
1.03 -0.148627
1.04 -0.15272
1.05 -0.159591
1.06 -0.169028
1.07 -0.180395
1.08 -0.193237
1.09 -0.207067
1.1 -0.221384
1.11 -0.235693
1.12 -0.249452
1.13 -0.262211
1.14 -0.273641
1.15 -0.283464
1.16 -0.291484
1.17 -0.297587
1.18 -0.30171
1.19 -0.303765
1.2 -0.30409
1.21 -0.30289
1.22 -0.300421
1.23 -0.296973
1.24 -0.292857
1.25 -0.288387
1.26 -0.28392
1.27 -0.279745
1.28 -0.276096
1.29 -0.273163
1.3 -0.271075
1.31 -0.269912
1.32 -0.269774
1.33 -0.270495
1.34 -0.271954
1.35 -0.273988
1.36 -0.276395
1.37 -0.278949
1.38 -0.281389
1.39 -0.283438
1.4 -0.284884
1.41 -0.28553
1.42 -0.285221
1.43 -0.283846
1.44 -0.281349
1.45 -0.277609
1.46 -0.272822
1.47 -0.26712
1.48 -0.260684
1.49 -0.253736
1.5 -0.246533
1.51 -0.239368
1.52 -0.23258
1.53 -0.22645
1.54 -0.221239
1.55 -0.217181
1.56 -0.214463
1.57 -0.213222
1.58 -0.213691
1.59 -0.215736
1.6 -0.219255
1.61 -0.224103
1.62 -0.230072
1.63 -0.236899
1.64 -0.244278
1.65 -0.251817
1.66 -0.2591
1.67 -0.265745
1.68 -0.271381
1.69 -0.275658
1.7 -0.278264
1.71 -0.278743
1.72 -0.277002
1.73 -0.272981
1.74 -0.266641
1.75 -0.258023
1.76 -0.247243
1.77 -0.234446
1.78 -0.219821
1.79 -0.203872
1.8 -0.186971
1.81 -0.169518
1.82 -0.151927
1.83 -0.134615
1.84 -0.118062
1.85 -0.102654
1.86 -0.0886712
1.87 -0.0763677
1.88 -0.0659289
1.89 -0.0574677
1.9 -0.0510499
1.91 -0.0467945
1.92 -0.0443618
1.93 -0.043553
1.94 -0.0441124
1.95 -0.0457388
1.96 -0.0480982
1.97 -0.0508388
1.98 -0.0535471
1.99 -0.055869
2 -0.0574972
2.01 -0.0581679
2.02 -0.0576725
2.03 -0.0558616
2.04 -0.0525101
2.05 -0.047793
2.06 -0.0418094
2.07 -0.0347316
2.08 -0.0267986
2.09 -0.0183086
2.1 -0.00961871
2.11 -0.00117441
2.12 0.00660913
2.13 0.0133247
2.14 0.0185791
2.15 0.022008
2.16 0.0232898
2.17 0.0218723
2.18 0.0177968
2.19 0.0109787
2.2 0.00139628
2.21 -0.0108889
2.22 -0.0257336
2.23 -0.0430083
2.24 -0.0624208
2.25 -0.0834363
2.26 -0.105638
2.27 -0.128575
2.28 -0.15178
2.29 -0.174778
2.3 -0.197
2.31 -0.218023
2.32 -0.23748
2.33 -0.255044
2.34 -0.270455
2.35 -0.283523
2.36 -0.294049
2.37 -0.301884
2.38 -0.307297
2.39 -0.310422
2.4 -0.311461
2.41 -0.310671
2.42 -0.308356
2.43 -0.304782
2.44 -0.300425
2.45 -0.295686
2.46 -0.290924
2.47 -0.286478
2.48 -0.282654
2.49 -0.279744
2.5 -0.278064
2.51 -0.277669
2.52 -0.278647
2.53 -0.281023
2.54 -0.284764
2.55 -0.289784
2.56 -0.29602
2.57 -0.303222
2.58 -0.311125
2.59 -0.319488
2.6 -0.328059
2.61 -0.336585
2.62 -0.344813
2.63 -0.352442
2.64 -0.359313
2.65 -0.365264
2.66 -0.37017
2.67 -0.37395
2.68 -0.376562
2.69 -0.377934
2.7 -0.378133
2.71 -0.377305
2.72 -0.375564
2.73 -0.373049
2.74 -0.369913
2.75 -0.36632
2.76 -0.362422
2.77 -0.358427
2.78 -0.354483
2.79 -0.350717
2.8 -0.347238
2.81 -0.344126
2.82 -0.341461
2.83 -0.339273
2.84 -0.337527
2.85 -0.336193
2.86 -0.335216
2.87 -0.334525
2.88 -0.334036
2.89 -0.333654
2.9 -0.333262
2.91 -0.332763
2.92 -0.332067
2.93 -0.331091
2.94 -0.329768
2.95 -0.328022
2.96 -0.325796
2.97 -0.323098
2.98 -0.319919
2.99 -0.316259
3 -0.312129
3.01 -0.307543
3.02 -0.302473
3.03 -0.296965
3.04 -0.29103
3.05 -0.284658
3.06 -0.277825
3.07 -0.270491
3.08 -0.262577
3.09 -0.253961
3.1 -0.244595
3.11 -0.234365
3.12 -0.22315
3.13 -0.210816
3.14 -0.197232
3.15 -0.182137
3.16 -0.165469
3.17 -0.147169
3.18 -0.127157
3.19 -0.105377
3.2 -0.0818082
3.21 -0.0564274
3.22 -0.0291692
3.23 -0.000308439
3.24 0.0300097
3.25 0.0616
3.26 0.0942402
3.27 0.127674
3.28 0.161631
3.29 0.195741
3.3 0.229658
3.31 0.263047
3.32 0.295574
3.33 0.326916
3.34 0.356745
3.35 0.38457
3.36 0.41031
3.37 0.433754
3.38 0.454728
3.39 0.473103
3.4 0.488794
3.41 0.501587
3.42 0.511513
3.43 0.518774
3.44 0.523457
3.45 0.525682
3.46 0.525595
3.47 0.523361
3.48 0.518955
3.49 0.512807
3.5 0.505112
3.51 0.496055
3.52 0.485813
3.53 0.474549
3.54 0.462375
3.55 0.449426
3.56 0.435866
3.57 0.421783
3.58 0.407248
3.59 0.392318
3.6 0.377037
3.61 0.361411
3.62 0.345502
3.63 0.329342
3.64 0.312965
3.65 0.296409
3.66 0.279724
3.67 0.262972
3.68 0.246244
3.69 0.229639
3.7 0.213269
3.71 0.19726
3.72 0.181753
3.73 0.166897
3.74 0.152942
3.75 0.140013
3.76 0.128255
3.77 0.117824
3.78 0.108871
3.79 0.101531
3.8 0.095979
3.81 0.0924326
3.82 0.0908091
3.83 0.0911549
3.84 0.0934902
3.85 0.0978087
3.86 0.104078
3.87 0.112391
3.88 0.12256
3.89 0.134416
3.9 0.147832
3.91 0.162671
3.92 0.178784
3.93 0.196032
3.94 0.21431
3.95 0.23335
3.96 0.252994
3.97 0.273089
3.98 0.293489
3.99 0.314056
4 0.334655
4.01 0.355148
4.02 0.375429
4.03 0.395396
4.04 0.414958
4.05 0.434027
4.06 0.452517
4.07 0.470273
4.08 0.487284
4.09 0.503473
4.1 0.518765
4.11 0.533081
4.12 0.546345
4.13 0.558403
4.14 0.569168
4.15 0.578627
4.16 0.586705
4.17 0.59333
4.18 0.598436
4.19 0.601965
4.2 0.603679
4.21 0.603719
4.22 0.602067
4.23 0.598716
4.24 0.593672
4.25 0.586956
4.26 0.578526
4.27 0.568409
4.28 0.556782
4.29 0.543719
4.3 0.529304
4.31 0.513625
4.32 0.496776
4.33 0.478752
4.34 0.459748
4.35 0.439868
4.36 0.419194
4.37 0.397801
4.38 0.375754
4.39 0.353088
4.4 0.329832
4.41 0.306068
4.42 0.281824
4.43 0.25712
4.44 0.231975
4.45 0.206403
4.46 0.180386
4.47 0.153973
4.48 0.127202
4.49 0.100111
4.5 0.0727476
4.51 0.0451721
4.52 0.0174582
4.53 -0.0102943
4.54 -0.0379672
4.55 -0.0654406
4.56 -0.0925828
4.57 -0.119253
4.58 -0.145305
4.59 -0.170515
4.6 -0.194747
4.61 -0.217889
4.62 -0.239807
4.63 -0.260383
4.64 -0.279516
4.65 -0.2971
4.66 -0.312937
4.67 -0.327159
4.68 -0.339769
4.69 -0.350797
4.7 -0.360298
4.71 -0.368356
4.72 -0.374994
4.73 -0.380386
4.74 -0.384744
4.75 -0.388226
4.76 -0.390999
4.77 -0.393231
4.78 -0.395087
4.79 -0.39672
4.8 -0.398312
4.81 -0.399989
4.82 -0.401859
4.83 -0.404005
4.84 -0.406488
4.85 -0.409366
4.86 -0.412647
4.87 -0.416288
4.88 -0.420245
4.89 -0.424456
4.9 -0.428841
4.91 -0.433307
4.92 -0.437736
4.93 -0.442011
4.94 -0.446023
4.95 -0.449666
4.96 -0.452841
4.97 -0.45546
4.98 -0.457413
4.99 -0.458616
5 -0.459075
5.01 -0.458766
5.02 -0.457682
5.03 -0.455832
5.04 -0.45324
5.05 -0.449878
5.06 -0.445855
5.07 -0.441241
5.08 -0.436096
5.09 -0.430482
5.1 -0.42446
5.11 -0.418076
5.12 -0.411376
5.13 -0.40443
5.14 -0.397274
5.15 -0.389932
5.16 -0.382423
5.17 -0.374756
5.18 -0.366919
5.19 -0.358917
5.2 -0.350747
5.21 -0.342401
5.22 -0.333871
5.23 -0.325154
5.24 -0.316245
5.25 -0.307145
5.26 -0.297889
5.27 -0.288506
5.28 -0.279037
5.29 -0.269532
5.3 -0.26005
5.31 -0.250672
5.32 -0.241482
5.33 -0.232557
5.34 -0.223981
5.35 -0.215838
5.36 -0.208208
5.37 -0.201174
5.38 -0.194868
5.39 -0.189282
5.4 -0.184454
5.41 -0.180408
5.42 -0.177154
5.43 -0.174684
5.44 -0.173022
5.45 -0.17211
5.46 -0.171852
5.47 -0.172178
5.48 -0.17301
5.49 -0.17426
5.5 -0.175837
5.51 -0.177661
5.52 -0.179604
5.53 -0.181574
5.54 -0.18349
5.55 -0.185273
5.56 -0.186858
5.57 -0.18817
5.58 -0.189157
5.59 -0.189803
5.6 -0.190085
5.61 -0.189992
5.62 -0.189518
5.63 -0.188662
5.64 -0.18739
5.65 -0.185745
5.66 -0.183735
5.67 -0.181362
5.68 -0.178623
5.69 -0.175508
5.7 -0.171983
5.71 -0.168006
5.72 -0.163573
5.73 -0.158642
5.74 -0.153167
5.75 -0.147097
5.76 -0.140379
5.77 -0.132888
5.78 -0.124622
5.79 -0.115554
5.8 -0.105653
5.81 -0.0948959
5.82 -0.083278
5.83 -0.0707812
5.84 -0.0573972
5.85 -0.0432481
5.86 -0.0284037
5.87 -0.0129515
5.88 0.00300417
5.89 0.0193441
5.9 0.0359459
5.91 0.0526362
5.92 0.0692602
5.93 0.0856697
5.94 0.101719
5.95 0.117272
5.96 0.132182
5.97 0.146273
5.98 0.159516
5.99 0.171841
6 0.183204
6.01 0.19358
6.02 0.20297
6.03 0.211329
6.04 0.218743
6.05 0.225322
6.06 0.23115
6.07 0.236323
6.08 0.240946
6.09 0.245123
6.1 0.248942
6.11 0.252545
6.12 0.256023
6.13 0.259449
6.14 0.26288
6.15 0.266353
6.16 0.269886
6.17 0.273465
6.18 0.277051
6.19 0.280583
6.2 0.283983
6.21 0.287153
6.22 0.289982
6.23 0.292279
6.24 0.293955
6.25 0.294882
6.26 0.294931
6.27 0.293985
6.28 0.291938
6.29 0.288633
6.3 0.283979
6.31 0.278012
6.32 0.270716
6.33 0.2621
6.34 0.252199
6.35 0.241072
6.36 0.228693
6.37 0.215286
6.38 0.200991
6.39 0.185946
6.4 0.1703
6.41 0.154207
6.42 0.137813
6.43 0.121287
6.44 0.104788
6.45 0.0884428
6.46 0.0723643
6.47 0.0566464
6.48 0.0413637
6.49 0.0266193
6.5 0.0124102
6.51 -0.00126865
6.52 -0.0144303
6.53 -0.0271054
6.54 -0.0393392
6.55 -0.0511797
6.56 -0.0626854
6.57 -0.073961
6.58 -0.0850801
6.59 -0.0961132
6.6 -0.107126
6.61 -0.118173
6.62 -0.129311
6.63 -0.140568
6.64 -0.151955
6.65 -0.163466
6.66 -0.175085
6.67 -0.186774
6.68 -0.198484
6.69 -0.210137
6.7 -0.221654
6.71 -0.232949
6.72 -0.243927
6.73 -0.25449
6.74 -0.26454
6.75 -0.273926
6.76 -0.282558
6.77 -0.290374
6.78 -0.297295
6.79 -0.303248
6.8 -0.308171
6.81 -0.312003
6.82 -0.314584
6.83 -0.316004
6.84 -0.316243
6.85 -0.315291
6.86 -0.313141
6.87 -0.309797
6.88 -0.305192
6.89 -0.299345
6.9 -0.292332
6.91 -0.284167
6.92 -0.274862
6.93 -0.264428
6.94 -0.252874
6.95 -0.240082
6.96 -0.226184
6.97 -0.211188
6.98 -0.195099
6.99 -0.177925
7 -0.159672
7.01 -0.1403
7.02 -0.119811
7.03 -0.098298
7.04 -0.0757916
7.05 -0.0523299
7.06 -0.0279596
7.07 -0.00273716
7.08 0.0233449
7.09 0.0501305
7.1 0.0775213
7.11 0.105421
7.12 0.133724
7.13 0.162319
7.14 0.191092
7.15 0.219905
7.16 0.248621
7.17 0.277114
7.18 0.305261
7.19 0.332939
7.2 0.360029
7.21 0.386342
7.22 0.411806
7.23 0.43634
7.24 0.459853
7.25 0.482259
7.26 0.503484
7.27 0.52342
7.28 0.541922
7.29 0.559047
7.3 0.574749
7.31 0.588988
7.32 0.601727
7.33 0.612931
7.34 0.622444
7.35 0.630303
7.36 0.636541
7.37 0.641133
7.38 0.644059
7.39 0.645296
7.4 0.644798
7.41 0.642403
7.42 0.63827
7.43 0.632389
7.44 0.624758
7.45 0.615378
7.46 0.60426
7.47 0.591301
7.48 0.576574
7.49 0.560198
7.5 0.542225
7.51 0.522716
7.52 0.501745
7.53 0.479393
7.54 0.455635
7.55 0.430738
7.56 0.404825
7.57 0.378033
7.58 0.350505
7.59 0.322393
7.6 0.293841
7.61 0.265038
7.62 0.236174
7.63 0.207414
7.64 0.178924
7.65 0.150864
7.66 0.12339
7.67 0.0967474
7.68 0.0710095
7.69 0.0462972
7.7 0.0227233
7.71 0.000387094
7.72 -0.0206265
7.73 -0.0401782
7.74 -0.0581768
7.75 -0.074685
7.76 -0.0896835
7.77 -0.103168
7.78 -0.115149
7.79 -0.12565
7.8 -0.134565
7.81 -0.142071
7.82 -0.148252
7.83 -0.153173
7.84 -0.15691
7.85 -0.15954
7.86 -0.161111
7.87 -0.161677
7.88 -0.161403
7.89 -0.160371
7.9 -0.15866
7.91 -0.156346
7.92 -0.1535
7.93 -0.150151
7.94 -0.146393
7.95 -0.142291
7.96 -0.13789
7.97 -0.133229
7.98 -0.128341
7.99 -0.123249
8 -0.117968
8.01 -0.112533
8.02 -0.106961
8.03 -0.101263
8.04 -0.0954533
8.05 -0.0895436
8.06 -0.0835416
8.07 -0.0774679
8.08 -0.0713436
8.09 -0.0651897
8.1 -0.0590301
8.11 -0.0528925
8.12 -0.046809
8.13 -0.0408259
8.14 -0.0349746
8.15 -0.0292942
8.16 -0.0238252
8.17 -0.0186078
8.18 -0.0136817
8.19 -0.00910889
8.2 -0.00492229
8.21 -0.00113417
8.22 0.00223215
8.23 0.00515973
8.24 0.00763871
8.25 0.00966533
8.26 0.0111979
8.27 0.0123036
8.28 0.0130062
8.29 0.0133367
8.3 0.0133325
8.31 0.0130369
8.32 0.0124865
8.33 0.0117391
8.34 0.0108614
8.35 0.0099051
8.36 0.00891984
8.37 0.00795166
8.38 0.00704146
8.39 0.00623672
8.4 0.00555573
8.41 0.00501324
8.42 0.00461525
8.43 0.0043579
8.44 0.00422753
8.45 0.004204
8.46 0.00425092
8.47 0.00431867
8.48 0.00435816
8.49 0.00431507
8.5 0.00413146
8.51 0.00374742
8.52 0.00307135
8.53 0.00205936
8.54 0.00066239
8.55 -0.00116839
8.56 -0.00347515
8.57 -0.00629232
8.58 -0.00966454
8.59 -0.013636
8.6 -0.0181661
8.61 -0.0232492
8.62 -0.0288706
8.63 -0.0350069
8.64 -0.0416269
8.65 -0.0487278
8.66 -0.0562345
8.67 -0.0640856
8.68 -0.0722304
8.69 -0.0806175
8.7 -0.0891958
8.71 -0.0979178
8.72 -0.106738
8.73 -0.115601
8.74 -0.12447
8.75 -0.133312
8.76 -0.142099
8.77 -0.150806
8.78 -0.159407
8.79 -0.167888
8.8 -0.176243
8.81 -0.184461
8.82 -0.192535
8.83 -0.200458
8.84 -0.208219
8.85 -0.215791
8.86 -0.22318
8.87 -0.23037
8.88 -0.237343
8.89 -0.24408
8.9 -0.250555
8.91 -0.256723
8.92 -0.262555
8.93 -0.268037
8.94 -0.273138
8.95 -0.277832
8.96 -0.282091
8.97 -0.285893
8.98 -0.28916
8.99 -0.291936
9 -0.294213
9.01 -0.295991
9.02 -0.297279
9.03 -0.298089
9.04 -0.298419
9.05 -0.298299
9.06 -0.297789
9.07 -0.296929
9.08 -0.295761
9.09 -0.294327
9.1 -0.292672
9.11 -0.290825
9.12 -0.288846
9.13 -0.286774
9.14 -0.284639
9.15 -0.282467
9.16 -0.280274
9.17 -0.278073
9.18 -0.275864
9.19 -0.273645
9.2 -0.271401
9.21 -0.269117
9.22 -0.266769
9.23 -0.264332
9.24 -0.261767
9.25 -0.25905
9.26 -0.256161
9.27 -0.253076
9.28 -0.249781
9.29 -0.246265
9.3 -0.242518
9.31 -0.238535
9.32 -0.234351
9.33 -0.229992
9.34 -0.22549
9.35 -0.220884
9.36 -0.216223
9.37 -0.211562
9.38 -0.206963
9.39 -0.202483
9.4 -0.198176
9.41 -0.194095
9.42 -0.190287
9.43 -0.186797
9.44 -0.183684
9.45 -0.180935
9.46 -0.178552
9.47 -0.176528
9.48 -0.174839
9.49 -0.17345
9.5 -0.172325
9.51 -0.171387
9.52 -0.170549
9.53 -0.169728
9.54 -0.168834
9.55 -0.167773
9.56 -0.166444
9.57 -0.164703
9.58 -0.162487
9.59 -0.15971
9.6 -0.15629
9.61 -0.152157
9.62 -0.147252
9.63 -0.141474
9.64 -0.134792
9.65 -0.127233
9.66 -0.118796
9.67 -0.109488
9.68 -0.0993305
9.69 -0.0883567
9.7 -0.0765247
9.71 -0.0639788
9.72 -0.0507779
9.73 -0.0369836
9.74 -0.02266
9.75 -0.0078714
9.76 0.00733599
9.77 0.0228971
9.78 0.0387298
9.79 0.0547819
9.8 0.0710061
9.81 0.0873602
9.82 0.103807
9.83 0.120316
9.84 0.13685
9.85 0.153383
9.86 0.169892
9.87 0.186352
9.88 0.20274
9.89 0.219026
9.9 0.235172
9.91 0.251155
9.92 0.266938
9.93 0.282481
9.94 0.29774
9.95 0.312665
9.96 0.327165
9.97 0.341203
9.98 0.354732
9.99 0.367694
10 0.380032
10.01 0.391693
10.02 0.402602
10.03 0.412663
10.04 0.421905
10.05 0.430297
10.06 0.437819
10.07 0.44446
10.08 0.450219
10.09 0.455036
10.1 0.458974
10.11 0.462096
10.12 0.464443
10.13 0.466061
10.14 0.467007
10.15 0.46733
10.16 0.46706
10.17 0.466323
10.18 0.465188
10.19 0.463722
10.2 0.46199
10.21 0.460055
10.22 0.457968
10.23 0.455791
10.24 0.453575
10.25 0.451359
10.26 0.449174
10.27 0.447044
10.28 0.444989
10.29 0.443028
10.3 0.441157
10.31 0.439373
10.32 0.43767
10.33 0.436036
10.34 0.434455
10.35 0.432908
10.36 0.431369
10.37 0.429809
10.38 0.428199
10.39 0.426508
10.4 0.424701
10.41 0.422742
10.42 0.420564
10.43 0.418143
10.44 0.415435
10.45 0.412392
10.46 0.408965
10.47 0.405104
10.48 0.400728
10.49 0.395768
10.5 0.390203
10.51 0.383983
10.52 0.377058
10.53 0.369383
10.54 0.360916
10.55 0.351535
10.56 0.341285
10.57 0.33016
10.58 0.318156
10.59 0.305276
10.6 0.291538
10.61 0.276941
10.62 0.2615
10.63 0.245336
10.64 0.228518
10.65 0.211123
10.66 0.193238
10.67 0.174958
10.68 0.156365
10.69 0.137594
10.7 0.118757
10.71 0.0999567
10.72 0.0812903
10.73 0.0628495
10.74 0.0447271
10.75 0.0270268
10.76 0.00977512
10.77 -0.00698662
10.78 -0.0232319
10.79 -0.0389493
10.8 -0.0541428
10.81 -0.0687928
10.82 -0.082959
10.83 -0.0967071
10.84 -0.110093
10.85 -0.123182
10.86 -0.13604
10.87 -0.148738
10.88 -0.161347
10.89 -0.173947
10.9 -0.186598
10.91 -0.199349
10.92 -0.212239
10.93 -0.225297
10.94 -0.238547
10.95 -0.251983
10.96 -0.265576
10.97 -0.279292
10.98 -0.293083
10.99 -0.306891
11 -0.320644
11.01 -0.334239
11.02 -0.347599
11.03 -0.360633
11.04 -0.373254
11.05 -0.385373
11.06 -0.396909
11.07 -0.407741
11.08 -0.417794
11.09 -0.427052
11.1 -0.435475
11.11 -0.443033
11.12 -0.449709
11.13 -0.4555
11.14 -0.46032
11.15 -0.464282
11.16 -0.467424
11.17 -0.469786
11.18 -0.471411
11.19 -0.472347
11.2 -0.472617
11.21 -0.472261
11.22 -0.471368
11.23 -0.469977
11.24 -0.468121
11.25 -0.465825
11.26 -0.463105
11.27 -0.459925
11.28 -0.456316
11.29 -0.452272
11.3 -0.447772
11.31 -0.442786
11.32 -0.437283
11.33 -0.431204
11.34 -0.424478
11.35 -0.417111
11.36 -0.409069
11.37 -0.400319
11.38 -0.390836
11.39 -0.380604
11.4 -0.369547
11.41 -0.357713
11.42 -0.345141
11.43 -0.331856
11.44 -0.317896
11.45 -0.303311
11.46 -0.288146
11.47 -0.272444
11.48 -0.256335
11.49 -0.239902
11.5 -0.223232
11.51 -0.206415
11.52 -0.189542
11.53 -0.172714
11.54 -0.156028
11.55 -0.139566
11.56 -0.123404
11.57 -0.107614
11.58 -0.0922596
11.59 -0.077403
11.6 -0.0631455
11.61 -0.0494715
11.62 -0.0364091
11.63 -0.0239782
11.64 -0.0121914
11.65 -0.00105386
11.66 0.00939302
11.67 0.0191678
11.68 0.0283163
11.69 0.0368555
11.7 0.0448056
11.71 0.0521893
11.72 0.0590303
11.73 0.0652997
11.74 0.0710866
11.75 0.0764187
11.76 0.0813242
11.77 0.085831
11.78 0.0899667
11.79 0.0937412
11.8 0.0971829
11.81 0.100338
11.82 0.103232
11.83 0.105887
11.84 0.108324
11.85 0.110564
11.86 0.112606
11.87 0.114483
11.88 0.116208
11.89 0.117787
11.9 0.119225
11.91 0.120519
11.92 0.121657
11.93 0.122623
11.94 0.123409
11.95 0.123993
11.96 0.12435
11.97 0.124447
11.98 0.12425
11.99 0.123681
12 0.12272
12.01 0.121327
12.02 0.119458
12.03 0.117064
12.04 0.114101
12.05 0.110502
12.06 0.10619
12.07 0.101179
12.08 0.095439
12.09 0.0889451
12.1 0.0816785
12.11 0.0736279
12.12 0.0647221
12.13 0.0550099
12.14 0.04453
12.15 0.0333044
12.16 0.0213628
12.17 0.00874256
12.18 -0.00452461
