# xPDFsuite Configuration #
[PDF]
wavelength = 0.1
dataformat = QA
inputfile = BiMsol6_insitu_700 C-00118.xy
backgroundfile = Quartz2mm-dist500-00000.xy
mode = xray
bgscale = 0.0042
composition = Bi2Fe4O9
outputtype = gr
qmaxinst = 24.998449118
qmin = 0.1
qmax = 21.4986662415
rmax = 80.0
rmin = 0.0
rstep = 0.01
rpoly = 0.9

[Misc]
inputdir = C:/Data/Seafile/CPH/Beamtime/Desy Oct 20/In situ data/Processed/BiMsol6/PDF
savedir = C:/Data/Seafile/CPH/Beamtime/Desy Oct 20/In situ data/PDF/BiMsol6
backgroundfilefull = C:/Data/Seafile/CPH/Beamtime/Desy Oct 20/In situ data/Processed/Standard_Empty_Cap/Quartz2mm-dist500-00000.xy

#### start data
#S 1
#L r($\AA$)  G($\AA^{-2}$)
0 0
0.01 0.00634818
0.02 0.0123397
0.03 0.0176693
0.04 0.0220631
0.05 0.0252913
0.06 0.0271787
0.07 0.0275337
0.08 0.0263006
0.09 0.0236207
0.1 0.0196104
0.11 0.0144501
0.12 0.00837614
0.13 0.00167066
0.14 -0.00534919
0.15 -0.0122845
0.16 -0.0187986
0.17 -0.0245759
0.18 -0.0293334
0.19 -0.0328349
0.2 -0.0348379
0.21 -0.035177
0.22 -0.0339496
0.23 -0.0312214
0.24 -0.0271357
0.25 -0.0219079
0.26 -0.0158175
0.27 -0.00918276
0.28 -0.00246106
0.29 0.00394077
0.3 0.00962792
0.31 0.0142254
0.32 0.0173966
0.33 0.018801
0.34 0.0181063
0.35 0.0153657
0.36 0.0105788
0.37 0.00384789
0.38 -0.00462057
0.39 -0.0145189
0.4 -0.02549
0.41 -0.0369232
0.42 -0.0482198
0.43 -0.0587713
0.44 -0.0679489
0.45 -0.0751272
0.46 -0.0796456
0.47 -0.0806539
0.48 -0.0779723
0.49 -0.0712607
0.5 -0.0603008
0.51 -0.0450095
0.52 -0.0254487
0.53 -0.00156326
0.54 0.0260943
0.55 0.0568009
0.56 0.0898831
0.57 0.124555
0.58 0.159942
0.59 0.195091
0.6 0.228781
0.61 0.260074
0.62 0.28802
0.63 0.311731
0.64 0.330409
0.65 0.343376
0.66 0.349682
0.67 0.348957
0.68 0.341394
0.69 0.32702
0.7 0.306044
0.71 0.278852
0.72 0.246
0.73 0.207721
0.74 0.165511
0.75 0.120345
0.76 0.073259
0.77 0.0253218
0.78 -0.0223907
0.79 -0.0687125
0.8 -0.11248
0.81 -0.152913
0.82 -0.189257
0.83 -0.220895
0.84 -0.247362
0.85 -0.268361
0.86 -0.283185
0.87 -0.292414
0.88 -0.296365
0.89 -0.295427
0.9 -0.290117
0.91 -0.281058
0.92 -0.268867
0.93 -0.254334
0.94 -0.23848
0.95 -0.222091
0.96 -0.205923
0.97 -0.190674
0.98 -0.176964
0.99 -0.165547
1 -0.156725
1.01 -0.150708
1.02 -0.147633
1.03 -0.147517
1.04 -0.150258
1.05 -0.155715
1.06 -0.163677
1.07 -0.17352
1.08 -0.184794
1.09 -0.197024
1.1 -0.209718
1.11 -0.222399
1.12 -0.234543
1.13 -0.245722
1.14 -0.255631
1.15 -0.264019
1.16 -0.270714
1.17 -0.275632
1.18 -0.278743
1.19 -0.280005
1.2 -0.279766
1.21 -0.278256
1.22 -0.275748
1.23 -0.27255
1.24 -0.268982
1.25 -0.265383
1.26 -0.262097
1.27 -0.259385
1.28 -0.257464
1.29 -0.25649
1.3 -0.256559
1.31 -0.257707
1.32 -0.259989
1.33 -0.263164
1.34 -0.267053
1.35 -0.271429
1.36 -0.276029
1.37 -0.280563
1.38 -0.284694
1.39 -0.288086
1.4 -0.290495
1.41 -0.291692
1.42 -0.291497
1.43 -0.289786
1.44 -0.286501
1.45 -0.281488
1.46 -0.275021
1.47 -0.267277
1.48 -0.258489
1.49 -0.248947
1.5 -0.238979
1.51 -0.228963
1.52 -0.219338
1.53 -0.210477
1.54 -0.202734
1.55 -0.196426
1.56 -0.191821
1.57 -0.189127
1.58 -0.188691
1.59 -0.190386
1.6 -0.19413
1.61 -0.199789
1.62 -0.207147
1.63 -0.215918
1.64 -0.225771
1.65 -0.236263
1.66 -0.246862
1.67 -0.257097
1.68 -0.266495
1.69 -0.274599
1.7 -0.280986
1.71 -0.285062
1.72 -0.286621
1.73 -0.285505
1.74 -0.281582
1.75 -0.274812
1.76 -0.265247
1.77 -0.252967
1.78 -0.238081
1.79 -0.221155
1.8 -0.202577
1.81 -0.182786
1.82 -0.162253
1.83 -0.141467
1.84 -0.120973
1.85 -0.10129
1.86 -0.0828311
1.87 -0.065969
1.88 -0.0510099
1.89 -0.0381859
1.9 -0.0276821
1.91 -0.0197663
1.92 -0.0141572
1.93 -0.0107283
1.94 -0.00927828
1.95 -0.00954051
1.96 -0.0111951
1.97 -0.0139251
1.98 -0.0172699
1.99 -0.0207902
2 -0.0241077
2.01 -0.0268724
2.02 -0.0287766
2.03 -0.0295622
2.04 -0.0288843
2.05 -0.0267801
2.06 -0.0232333
2.07 -0.0183061
2.08 -0.0121367
2.09 -0.00493413
2.1 0.00305325
2.11 0.0114458
2.12 0.019828
2.13 0.0278064
2.14 0.0349819
2.15 0.0409644
2.16 0.0453887
2.17 0.0476905
2.18 0.0477714
2.19 0.0454515
2.2 0.0406094
2.21 0.0332011
2.22 0.0232621
2.23 0.0108067
2.24 -0.00399404
2.25 -0.0206916
2.26 -0.0389513
2.27 -0.0583922
2.28 -0.0786003
2.29 -0.0991419
2.3 -0.119525
2.31 -0.139286
2.32 -0.15803
2.33 -0.175401
2.34 -0.191094
2.35 -0.204862
2.36 -0.21645
2.37 -0.225635
2.38 -0.232578
2.39 -0.237329
2.4 -0.24001
2.41 -0.240799
2.42 -0.239925
2.43 -0.237567
2.44 -0.23415
2.45 -0.230038
2.46 -0.225557
2.47 -0.221028
2.48 -0.216749
2.49 -0.213007
2.5 -0.210112
2.51 -0.208184
2.52 -0.207344
2.53 -0.207663
2.54 -0.209158
2.55 -0.211794
2.56 -0.215563
2.57 -0.220281
2.58 -0.225741
2.59 -0.231752
2.6 -0.23811
2.61 -0.244604
2.62 -0.251021
2.63 -0.257115
2.64 -0.262724
2.65 -0.267701
2.66 -0.27193
2.67 -0.275328
2.68 -0.277849
2.69 -0.279426
2.7 -0.280103
2.71 -0.279989
2.72 -0.279172
2.73 -0.27776
2.74 -0.275874
2.75 -0.273642
2.76 -0.271184
2.77 -0.268657
2.78 -0.266167
2.79 -0.263803
2.8 -0.261629
2.81 -0.259687
2.82 -0.258002
2.83 -0.256557
2.84 -0.255291
2.85 -0.254135
2.86 -0.253003
2.87 -0.251793
2.88 -0.250395
2.89 -0.248651
2.9 -0.246469
2.91 -0.243753
2.92 -0.240416
2.93 -0.236394
2.94 -0.231643
2.95 -0.226113
2.96 -0.219794
2.97 -0.212786
2.98 -0.205154
2.99 -0.196989
3 -0.188401
3.01 -0.179512
3.02 -0.170453
3.03 -0.161389
3.04 -0.152457
3.05 -0.143781
3.06 -0.135468
3.07 -0.12761
3.08 -0.120289
3.09 -0.113575
3.1 -0.107425
3.11 -0.101811
3.12 -0.0966745
3.13 -0.0919317
3.14 -0.0874733
3.15 -0.0831705
3.16 -0.0788494
3.17 -0.0743484
3.18 -0.0695078
3.19 -0.064171
3.2 -0.0581909
3.21 -0.0514161
3.22 -0.0436552
3.23 -0.0349036
3.24 -0.0251079
3.25 -0.0142442
3.26 -0.00231944
3.27 0.0106293
3.28 0.0245999
3.29 0.0394545
3.3 0.0550323
3.31 0.0711969
3.32 0.0878
3.33 0.104688
3.34 0.121704
3.35 0.138681
3.36 0.155472
3.37 0.171956
3.38 0.188033
3.39 0.203625
3.4 0.21868
3.41 0.233133
3.42 0.246989
3.43 0.260306
3.44 0.27313
3.45 0.285526
3.46 0.29757
3.47 0.309347
3.48 0.320935
3.49 0.332446
3.5 0.343959
3.51 0.355536
3.52 0.367225
3.53 0.379053
3.54 0.391029
3.55 0.403127
3.56 0.415287
3.57 0.427431
3.58 0.43946
3.59 0.451254
3.6 0.462678
3.61 0.473512
3.62 0.483628
3.63 0.492874
3.64 0.501093
3.65 0.508135
3.66 0.513866
3.67 0.518105
3.68 0.520689
3.69 0.521664
3.7 0.52099
3.71 0.518658
3.72 0.514683
3.73 0.509111
3.74 0.501879
3.75 0.493203
3.76 0.483241
3.77 0.472129
3.78 0.460017
3.79 0.447061
3.8 0.43341
3.81 0.419216
3.82 0.404691
3.83 0.389982
3.84 0.375225
3.85 0.360542
3.86 0.346039
3.87 0.331832
3.88 0.317987
3.89 0.304544
3.9 0.291536
3.91 0.27898
3.92 0.266882
3.93 0.255242
3.94 0.244075
3.95 0.233311
3.96 0.222919
3.97 0.212867
3.98 0.20312
3.99 0.193645
4 0.184426
4.01 0.175424
4.02 0.166605
4.03 0.157946
4.04 0.149431
4.05 0.141046
4.06 0.13278
4.07 0.124632
4.08 0.116583
4.09 0.108624
4.1 0.100749
4.11 0.0929479
4.12 0.0852131
4.13 0.077538
4.14 0.0699107
4.15 0.0623183
4.16 0.0547518
4.17 0.0472036
4.18 0.0396683
4.19 0.0321441
4.2 0.0246353
4.21 0.0171492
4.22 0.00970011
4.23 0.00230807
4.24 -0.0050006
4.25 -0.0121938
4.26 -0.0192243
4.27 -0.0260398
4.28 -0.0326052
4.29 -0.0388731
4.3 -0.0447967
4.31 -0.0503312
4.32 -0.0554359
4.33 -0.0600261
4.34 -0.0641144
4.35 -0.0676937
4.36 -0.0707609
4.37 -0.0733254
4.38 -0.0754092
4.39 -0.0770318
4.4 -0.0782324
4.41 -0.0791069
4.42 -0.0797261
4.43 -0.0801681
4.44 -0.0805163
4.45 -0.0808561
4.46 -0.0812874
4.47 -0.0818959
4.48 -0.0827521
4.49 -0.0839193
4.5 -0.085448
4.51 -0.0873743
4.52 -0.0897295
4.53 -0.0925408
4.54 -0.09575
4.55 -0.0993196
4.56 -0.103196
4.57 -0.107309
4.58 -0.111577
4.59 -0.115907
4.6 -0.120181
4.61 -0.124295
4.62 -0.128148
4.63 -0.131641
4.64 -0.134687
4.65 -0.137196
4.66 -0.139049
4.67 -0.140258
4.68 -0.1408
4.69 -0.140672
4.7 -0.139889
4.71 -0.138488
4.72 -0.136491
4.73 -0.133993
4.74 -0.131111
4.75 -0.127945
4.76 -0.124605
4.77 -0.1212
4.78 -0.117844
4.79 -0.114675
4.8 -0.111783
4.81 -0.109256
4.82 -0.107168
4.83 -0.105577
4.84 -0.104524
4.85 -0.104063
4.86 -0.104198
4.87 -0.104877
4.88 -0.106063
4.89 -0.107707
4.9 -0.109747
4.91 -0.112112
4.92 -0.114742
4.93 -0.117521
4.94 -0.120367
4.95 -0.123202
4.96 -0.125957
4.97 -0.12857
4.98 -0.130978
4.99 -0.133135
5 -0.135031
5.01 -0.13666
5.02 -0.138025
5.03 -0.139143
5.04 -0.14004
5.05 -0.140739
5.06 -0.141299
5.07 -0.141772
5.08 -0.142201
5.09 -0.142633
5.1 -0.143105
5.11 -0.143655
5.12 -0.144315
5.13 -0.14509
5.14 -0.145983
5.15 -0.146984
5.16 -0.148074
5.17 -0.149226
5.18 -0.1504
5.19 -0.151546
5.2 -0.152614
5.21 -0.153555
5.22 -0.15432
5.23 -0.154862
5.24 -0.155136
5.25 -0.155085
5.26 -0.154712
5.27 -0.15401
5.28 -0.152978
5.29 -0.151631
5.3 -0.149992
5.31 -0.148081
5.32 -0.145958
5.33 -0.143685
5.34 -0.141321
5.35 -0.138924
5.36 -0.136553
5.37 -0.134264
5.38 -0.132126
5.39 -0.130167
5.4 -0.128418
5.41 -0.126894
5.42 -0.125601
5.43 -0.124531
5.44 -0.123673
5.45 -0.122983
5.46 -0.122404
5.47 -0.12188
5.48 -0.12135
5.49 -0.120748
5.5 -0.120006
5.51 -0.119031
5.52 -0.117782
5.53 -0.116209
5.54 -0.114273
5.55 -0.11195
5.56 -0.109226
5.57 -0.106084
5.58 -0.102543
5.59 -0.0986655
5.6 -0.0945012
5.61 -0.0901118
5.62 -0.0855685
5.63 -0.0809491
5.64 -0.076345
5.65 -0.0718459
5.66 -0.0675296
5.67 -0.0634675
5.68 -0.0597207
5.69 -0.0563383
5.7 -0.053373
5.71 -0.0508547
5.72 -0.04875
5.73 -0.0470371
5.74 -0.0456776
5.75 -0.044617
5.76 -0.0437875
5.77 -0.0431157
5.78 -0.0424913
5.79 -0.0418181
5.8 -0.0410024
5.81 -0.039954
5.82 -0.0385896
5.83 -0.0368213
5.84 -0.0345605
5.85 -0.0318023
5.86 -0.0285264
5.87 -0.0247319
5.88 -0.0204378
5.89 -0.0156824
5.9 -0.0104939
5.91 -0.00497935
5.92 0.000758921
5.93 0.0066212
5.94 0.0125018
5.95 0.0182927
5.96 0.0238815
5.97 0.0291348
5.98 0.0339863
5.99 0.0383639
6 0.0422124
6.01 0.0454964
6.02 0.0482013
6.03 0.050294
6.04 0.05183
6.05 0.0528892
6.06 0.0535459
6.07 0.0538906
6.08 0.0540266
6.09 0.0540666
6.1 0.0541448
6.11 0.0543864
6.12 0.0549037
6.13 0.0557994
6.14 0.057163
6.15 0.0590672
6.16 0.0616047
6.17 0.0648006
6.18 0.0686231
6.19 0.0730482
6.2 0.0780279
6.21 0.083492
6.22 0.0893496
6.23 0.0955113
6.24 0.101808
6.25 0.108105
6.26 0.114264
6.27 0.120146
6.28 0.125618
6.29 0.130522
6.3 0.134725
6.31 0.138175
6.32 0.140805
6.33 0.142573
6.34 0.143459
6.35 0.14347
6.36 0.142554
6.37 0.140857
6.38 0.138471
6.39 0.135497
6.4 0.13205
6.41 0.128256
6.42 0.124246
6.43 0.120171
6.44 0.116177
6.45 0.112386
6.46 0.108909
6.47 0.105842
6.48 0.103262
6.49 0.101281
6.5 0.0998933
6.51 0.0990924
6.52 0.098861
6.53 0.0991603
6.54 0.099932
6.55 0.10111
6.56 0.102606
6.57 0.104286
6.58 0.106039
6.59 0.107755
6.6 0.109325
6.61 0.110644
6.62 0.111582
6.63 0.112067
6.64 0.112048
6.65 0.11148
6.66 0.110337
6.67 0.108613
6.68 0.106308
6.69 0.10342
6.7 0.100054
6.71 0.0962789
6.72 0.0921724
6.73 0.0878223
6.74 0.0833224
6.75 0.078772
6.76 0.0742807
6.77 0.0699403
6.78 0.0658326
6.79 0.0620294
6.8 0.0585903
6.81 0.0555644
6.82 0.053028
6.83 0.0509459
6.84 0.0493128
6.85 0.0481087
6.86 0.0472997
6.87 0.0468399
6.88 0.0466871
6.89 0.0467651
6.9 0.0469879
6.91 0.0472832
6.92 0.0475794
6.93 0.0478076
6.94 0.0479043
6.95 0.0477863
6.96 0.0474245
6.97 0.0467851
6.98 0.0458451
6.99 0.0445927
7 0.0430278
7.01 0.0411469
7.02 0.0389706
7.03 0.0365505
7.04 0.0339249
7.05 0.0311374
7.06 0.0282345
7.07 0.0252644
7.08 0.0222771
7.09 0.0193238
7.1 0.0164445
7.11 0.0136736
7.12 0.0110386
7.13 0.00856
7.14 0.00625702
7.15 0.00414071
7.16 0.00219293
7.17 0.000402102
7.18 -0.0012492
7.19 -0.00278312
7.2 -0.00422521
7.21 -0.00559977
7.22 -0.00694242
7.23 -0.00828128
7.24 -0.0096402
7.25 -0.0110391
7.26 -0.0124927
7.27 -0.014012
7.28 -0.0156029
7.29 -0.0172535
7.3 -0.018951
7.31 -0.020676
7.32 -0.0224036
7.33 -0.024104
7.34 -0.0257354
7.35 -0.0272594
7.36 -0.0286411
7.37 -0.0298438
7.38 -0.0308333
7.39 -0.031579
7.4 -0.0320507
7.41 -0.0322037
7.42 -0.0320558
7.43 -0.0316058
7.44 -0.0308613
7.45 -0.0298385
7.46 -0.0285628
7.47 -0.0270553
7.48 -0.0253693
7.49 -0.0235642
7.5 -0.0216947
7.51 -0.0198186
7.52 -0.017996
7.53 -0.016288
7.54 -0.0147781
7.55 -0.0135066
7.56 -0.0125222
7.57 -0.0118668
7.58 -0.0115742
7.59 -0.0116688
7.6 -0.012189
7.61 -0.0131371
7.62 -0.0144797
7.63 -0.0161962
7.64 -0.0182562
7.65 -0.0206197
7.66 -0.0232389
7.67 -0.026075
7.68 -0.02904
7.69 -0.032069
7.7 -0.0350972
7.71 -0.0380604
7.72 -0.0408973
7.73 -0.0435396
7.74 -0.045925
7.75 -0.0480259
7.76 -0.0498105
7.77 -0.051257
7.78 -0.0523541
7.79 -0.0531009
7.8 -0.0534749
7.81 -0.0535289
7.82 -0.0532998
7.83 -0.0528267
7.84 -0.0521552
7.85 -0.0513353
7.86 -0.0504189
7.87 -0.0494656
7.88 -0.0485345
7.89 -0.0476748
7.9 -0.04693
7.91 -0.0463372
7.92 -0.0459252
7.93 -0.0457326
7.94 -0.0457559
7.95 -0.045986
7.96 -0.0464089
7.97 -0.0470009
7.98 -0.0477291
7.99 -0.0485539
8 -0.0494242
8.01 -0.050279
8.02 -0.051063
8.03 -0.0517208
8.04 -0.052199
8.05 -0.0524482
8.06 -0.0524006
8.07 -0.0520287
8.08 -0.0513202
8.09 -0.0502633
8.1 -0.0488581
8.11 -0.047117
8.12 -0.0450609
8.13 -0.0427087
8.14 -0.0401426
8.15 -0.0374229
8.16 -0.0346174
8.17 -0.0317999
8.18 -0.0290472
8.19 -0.026452
8.2 -0.0240986
8.21 -0.0220493
8.22 -0.0203669
8.23 -0.0191045
8.24 -0.0183031
8.25 -0.0179926
8.26 -0.0182415
8.27 -0.018987
8.28 -0.0202071
8.29 -0.0218643
8.3 -0.0239065
8.31 -0.0262686
8.32 -0.0288825
8.33 -0.0316486
8.34 -0.034459
8.35 -0.0372166
8.36 -0.0398241
8.37 -0.0421872
8.38 -0.0442171
8.39 -0.0457805
8.4 -0.0468457
8.41 -0.0473641
8.42 -0.047299
8.43 -0.0466302
8.44 -0.045355
8.45 -0.0434625
8.46 -0.0409763
8.47 -0.0379902
8.48 -0.0345694
8.49 -0.0307912
8.5 -0.0267419
8.51 -0.0225148
8.52 -0.0182084
8.53 -0.0139373
8.54 -0.00979657
8.55 -0.00587389
8.56 -0.00224804
8.57 0.00101334
8.58 0.00383999
8.59 0.00616653
8.6 0.00800888
8.61 0.00936376
8.62 0.0102439
8.63 0.0106774
8.64 0.0107062
8.65 0.0103602
8.66 0.00973379
8.67 0.00891153
8.68 0.00797222
8.69 0.00699631
8.7 0.00606312
8.71 0.00525262
8.72 0.00465516
8.73 0.00431594
8.74 0.00428142
8.75 0.00458556
8.76 0.0052488
8.77 0.0062776
8.78 0.00769003
8.79 0.0094474
8.8 0.0114983
8.81 0.0137952
8.82 0.0162818
8.83 0.018895
8.84 0.0215669
8.85 0.0242181
8.86 0.026775
8.87 0.0291722
8.88 0.0313497
8.89 0.0332552
8.9 0.0348451
8.91 0.0360622
8.92 0.0368879
8.93 0.0373337
8.94 0.0374043
8.95 0.0371158
8.96 0.0364943
8.97 0.0355752
8.98 0.0343781
8.99 0.0329871
9 0.0314563
9.01 0.0298415
9.02 0.028198
9.03 0.0265793
9.04 0.0250413
9.05 0.0236352
9.06 0.0223914
9.07 0.0213378
9.08 0.0204937
9.09 0.0198704
9.1 0.0194703
9.11 0.0193097
9.12 0.0193522
9.13 0.0195745
9.14 0.0199509
9.15 0.0204516
9.16 0.0210448
9.17 0.0216986
9.18 0.0223769
9.19 0.0230453
9.2 0.0236766
9.21 0.0242475
9.22 0.0247391
9.23 0.0251374
9.24 0.0254236
9.25 0.025602
9.26 0.0256772
9.27 0.0256555
9.28 0.025547
9.29 0.0253643
9.3 0.0251203
9.31 0.0248299
9.32 0.0245131
9.33 0.0241837
9.34 0.0238536
9.35 0.0235324
9.36 0.0232265
9.37 0.0229409
9.38 0.0226742
9.39 0.0224219
9.4 0.0221773
9.41 0.0219315
9.42 0.0216737
9.43 0.0213916
9.44 0.0210691
9.45 0.0206977
9.46 0.0202678
9.47 0.019772
9.48 0.0192057
9.49 0.0185677
9.5 0.0178552
9.51 0.0170777
9.52 0.0162485
9.53 0.0153812
9.54 0.0144922
9.55 0.0136003
9.56 0.0127259
9.57 0.0118964
9.58 0.01113
9.59 0.010446
9.6 0.00986164
9.61 0.00939099
9.62 0.00904467
9.63 0.00883738
9.64 0.00876936
9.65 0.0088291
9.66 0.00900746
9.67 0.00929071
9.68 0.00966099
9.69 0.0100968
9.7 0.0105756
9.71 0.0110637
9.72 0.0115337
9.73 0.0119585
9.74 0.0123124
9.75 0.012572
9.76 0.0127106
9.77 0.0127084
9.78 0.0125634
9.79 0.0122711
9.8 0.0118327
9.81 0.011255
9.82 0.0105505
9.83 0.0097277
9.84 0.0088221
9.85 0.00786228
9.86 0.0068783
9.87 0.0059021
9.88 0.00496648
9.89 0.00410827
9.9 0.00336665
9.91 0.00276367
9.92 0.00232386
9.93 0.00206743
9.94 0.00200966
9.95 0.0021604
9.96 0.00254343
9.97 0.00314094
9.98 0.00393878
9.99 0.00492241
10 0.00607235
10.01 0.0073647
10.02 0.00877427
10.03 0.0102711
10.04 0.0118125
10.05 0.0133648
10.06 0.0148939
10.07 0.0163668
10.08 0.0177518
10.09 0.019008
10.1 0.0201114
10.11 0.0210442
10.12 0.0217884
10.13 0.0223297
10.14 0.0226581
10.15 0.022764
10.16 0.0226284
10.17 0.0222764
10.18 0.0217152
10.19 0.0209554
10.2 0.0200108
10.21 0.0188978
10.22 0.0176263
10.23 0.0162241
10.24 0.0147213
10.25 0.0131421
10.26 0.0115119
10.27 0.00985678
10.28 0.00820331
10.29 0.00658396
10.3 0.00502398
10.31 0.00354866
10.32 0.00218222
10.33 0.000947391
10.34 -0.000134919
10.35 -0.00103483
10.36 -0.00173502
10.37 -0.00223368
10.38 -0.00252282
10.39 -0.00259863
10.4 -0.00246181
10.41 -0.00211786
10.42 -0.00155693
10.43 -0.000818718
10.44 7.36726e-05
10.45 0.001093
10.46 0.00220743
10.47 0.00338103
10.48 0.00457323
10.49 0.00573504
10.5 0.00682167
10.51 0.00778901
10.52 0.00859394
10.53 0.00919559
10.54 0.00955662
10.55 0.00961391
10.56 0.00936313
10.57 0.00879125
10.58 0.00788938
10.59 0.0066576
10.6 0.00510541
10.61 0.00324168
10.62 0.00108916
10.63 -0.00128844
10.64 -0.00384286
10.65 -0.00651884
10.66 -0.00925543
10.67 -0.0119876
10.68 -0.0146352
10.69 -0.0171273
10.7 -0.0194007
10.71 -0.0213945
10.72 -0.0230539
10.73 -0.0243321
10.74 -0.0251799
10.75 -0.025541
10.76 -0.0254432
10.77 -0.0248886
10.78 -0.0238927
10.79 -0.0224834
10.8 -0.0207014
10.81 -0.0185777
10.82 -0.0161971
10.83 -0.0136429
10.84 -0.010992
10.85 -0.0083247
10.86 -0.00572182
10.87 -0.00326619
10.88 -0.00106044
10.89 0.000845134
10.9 0.00239333
10.91 0.00353794
10.92 0.00424523
10.93 0.00449495
10.94 0.00424975
10.95 0.00353084
10.96 0.00238676
10.97 0.000856579
10.98 -0.00100894
10.99 -0.003149
11 -0.00549527
11.01 -0.00797778
11.02 -0.0104964
11.03 -0.0129724
11.04 -0.0153293
11.05 -0.0174955
11.06 -0.0194064
11.07 -0.0209854
11.08 -0.0221816
11.09 -0.0229841
11.1 -0.0233759
11.11 -0.023353
11.12 -0.0229246
11.13 -0.0221118
11.14 -0.0209134
11.15 -0.0194142
11.16 -0.0176692
11.17 -0.0157365
11.18 -0.0136777
11.19 -0.0115556
11.2 -0.00943485
11.21 -0.00738324
11.22 -0.00545183
11.23 -0.00368491
11.24 -0.00211812
11.25 -0.000777477
11.26 0.000321179
11.27 0.00114827
11.28 0.00173113
11.29 0.00209083
11.3 0.0022523
11.31 0.00224725
11.32 0.00211262
11.33 0.00188728
11.34 0.00161682
11.35 0.00134908
11.36 0.00112243
11.37 0.000970804
11.38 0.000922277
11.39 0.000997839
11.4 0.00122304
11.41 0.0015932
11.42 0.00209777
11.43 0.00272189
11.44 0.00344305
11.45 0.00423208
11.46 0.00505423
11.47 0.00586533
11.48 0.00662207
11.49 0.00728378
11.5 0.00781179
11.51 0.00817117
11.52 0.00833233
11.53 0.00825416
11.54 0.00792956
11.55 0.00736393
11.56 0.00656311
11.57 0.00554237
11.58 0.004326
11.59 0.00294516
11.6 0.0014345
11.61 -0.000142329
11.62 -0.00173402
11.63 -0.00328723
11.64 -0.00474848
11.65 -0.00606614
11.66 -0.00717674
11.67 -0.00803582
11.68 -0.00862076
11.69 -0.00890782
11.7 -0.00888323
11.71 -0.00854384
11.72 -0.00789678
11.73 -0.00693142
11.74 -0.00571435
11.75 -0.00428617
11.76 -0.00269524
11.77 -0.000996056
11.78 0.000752521
11.79 0.00248505
11.8 0.00413029
11.81 0.00563091
11.82 0.00693273
11.83 0.007988
11.84 0.00875701
