# xPDFsuite Configuration #
[PDF]
wavelength = 0.1
dataformat = QA
inputfile = BiMsol6_insitu_700 C-00411.xy
backgroundfile = Quartz2mm-dist500-00000.xy
mode = xray
bgscale = 0.0042
composition = Bi2Fe4O9
outputtype = gr
qmaxinst = 24.998449118
qmin = 0.1
qmax = 21.4986662415
rmax = 80.0
rmin = 0.0
rstep = 0.01
rpoly = 0.9

[Misc]
inputdir = C:/Data/Seafile/CPH/Beamtime/Desy Oct 20/In situ data/Processed/BiMsol6/PDF
savedir = C:/Data/Seafile/CPH/Beamtime/Desy Oct 20/In situ data/PDF/BiMsol6
backgroundfilefull = C:/Data/Seafile/CPH/Beamtime/Desy Oct 20/In situ data/Processed/Standard_Empty_Cap/Quartz2mm-dist500-00000.xy

#### start data
#S 1
#L r($\AA$)  G($\AA^{-2}$)
0 0
0.01 0.00694699
0.02 0.0135083
0.03 0.0193536
0.04 0.0241862
0.05 0.0277564
0.06 0.029873
0.07 0.0303259
0.08 0.0290513
0.09 0.0261987
0.1 0.0218896
0.11 0.016315
0.12 0.00972639
0.13 0.00242495
0.14 -0.00525311
0.15 -0.0128754
0.16 -0.0200779
0.17 -0.026518
0.18 -0.031887
0.19 -0.0359245
0.2 -0.0383622
0.21 -0.0390116
0.22 -0.0379663
0.23 -0.0352861
0.24 -0.0311134
0.25 -0.0256688
0.26 -0.0192423
0.27 -0.0121602
0.28 -0.00491098
0.29 0.00207075
0.3 0.00836192
0.31 0.0135575
0.32 0.0172903
0.33 0.0191865
0.34 0.0188766
0.35 0.0163954
0.36 0.0117223
0.37 0.00494421
0.38 -0.00374157
0.39 -0.0140303
0.4 -0.025574
0.41 -0.0377401
0.42 -0.0499046
0.43 -0.0614332
0.44 -0.0716655
0.45 -0.0799396
0.46 -0.0855537
0.47 -0.0876055
0.48 -0.0858713
0.49 -0.0799667
0.5 -0.0696309
0.51 -0.054741
0.52 -0.0353239
0.53 -0.0112716
0.54 0.0168806
0.55 0.0484107
0.56 0.0826511
0.57 0.118814
0.58 0.156013
0.59 0.193279
0.6 0.229386
0.61 0.263328
0.62 0.294113
0.63 0.320802
0.64 0.342549
0.65 0.358618
0.66 0.368
0.67 0.370257
0.68 0.365533
0.69 0.3538
0.7 0.335221
0.71 0.31014
0.72 0.279075
0.73 0.242188
0.74 0.200991
0.75 0.156448
0.76 0.109589
0.77 0.0614868
0.78 0.0132276
0.79 -0.034023
0.8 -0.0790788
0.81 -0.121107
0.82 -0.159317
0.83 -0.193056
0.84 -0.221819
0.85 -0.245269
0.86 -0.262665
0.87 -0.274533
0.88 -0.281152
0.89 -0.282876
0.9 -0.280189
0.91 -0.273687
0.92 -0.263961
0.93 -0.251774
0.94 -0.238142
0.95 -0.223844
0.96 -0.209629
0.97 -0.196197
0.98 -0.184171
0.99 -0.174302
1 -0.166909
1.01 -0.162219
1.02 -0.160382
1.03 -0.161427
1.04 -0.165267
1.05 -0.171773
1.06 -0.180748
1.07 -0.191579
1.08 -0.203828
1.09 -0.217026
1.1 -0.230686
1.11 -0.244332
1.12 -0.257442
1.13 -0.269586
1.14 -0.280454
1.15 -0.289788
1.16 -0.29741
1.17 -0.303229
1.18 -0.307204
1.19 -0.30928
1.2 -0.3098
1.21 -0.308986
1.22 -0.307106
1.23 -0.30446
1.24 -0.301367
1.25 -0.298158
1.26 -0.29518
1.27 -0.292703
1.28 -0.290945
1.29 -0.290075
1.3 -0.290198
1.31 -0.291359
1.32 -0.293628
1.33 -0.296783
1.34 -0.30066
1.35 -0.30505
1.36 -0.309703
1.37 -0.314347
1.38 -0.318664
1.39 -0.32233
1.4 -0.325111
1.41 -0.326783
1.42 -0.327171
1.43 -0.326154
1.44 -0.323671
1.45 -0.319576
1.46 -0.31412
1.47 -0.307469
1.48 -0.29984
1.49 -0.291504
1.5 -0.28277
1.51 -0.273991
1.52 -0.26558
1.53 -0.257885
1.54 -0.251236
1.55 -0.245926
1.56 -0.242204
1.57 -0.240255
1.58 -0.240396
1.59 -0.242498
1.6 -0.246473
1.61 -0.252185
1.62 -0.25942
1.63 -0.267898
1.64 -0.277293
1.65 -0.28718
1.66 -0.297059
1.67 -0.306487
1.68 -0.315022
1.69 -0.322242
1.7 -0.32776
1.71 -0.331029
1.72 -0.331885
1.73 -0.330206
1.74 -0.325899
1.75 -0.318959
1.76 -0.309471
1.77 -0.297551
1.78 -0.283358
1.79 -0.267448
1.8 -0.250222
1.81 -0.232126
1.82 -0.21363
1.83 -0.195218
1.84 -0.177447
1.85 -0.1608
1.86 -0.145654
1.87 -0.132349
1.88 -0.121156
1.89 -0.11227
1.9 -0.105834
1.91 -0.102072
1.92 -0.100645
1.93 -0.101379
1.94 -0.104025
1.95 -0.108269
1.96 -0.113748
1.97 -0.120085
1.98 -0.126776
1.99 -0.133357
2 -0.139414
2.01 -0.144569
2.02 -0.148488
2.03 -0.150889
2.04 -0.151361
2.05 -0.149974
2.06 -0.146703
2.07 -0.141604
2.08 -0.134814
2.09 -0.126542
2.1 -0.117018
2.11 -0.10663
2.12 -0.0958325
2.13 -0.0850353
2.14 -0.0746563
2.15 -0.0651074
2.16 -0.0567792
2.17 -0.0502336
2.18 -0.0456355
2.19 -0.0432018
2.2 -0.0430917
2.21 -0.0453895
2.22 -0.0501021
2.23 -0.0572592
2.24 -0.0667428
2.25 -0.0781571
2.26 -0.0912164
2.27 -0.105589
2.28 -0.12091
2.29 -0.136793
2.3 -0.152824
2.31 -0.168564
2.32 -0.183655
2.33 -0.197775
2.34 -0.210649
2.35 -0.222057
2.36 -0.23178
2.37 -0.239634
2.38 -0.245745
2.39 -0.250163
2.4 -0.253002
2.41 -0.254424
2.42 -0.254641
2.43 -0.253839
2.44 -0.252382
2.45 -0.250583
2.46 -0.248732
2.47 -0.247101
2.48 -0.245946
2.49 -0.245511
2.5 -0.246061
2.51 -0.247655
2.52 -0.250372
2.53 -0.254241
2.54 -0.259241
2.55 -0.265305
2.56 -0.272383
2.57 -0.280267
2.58 -0.288735
2.59 -0.297583
2.6 -0.306594
2.61 -0.315551
2.62 -0.324235
2.63 -0.332385
2.64 -0.339861
2.65 -0.346522
2.66 -0.352257
2.67 -0.356992
2.68 -0.360687
2.69 -0.36327
2.7 -0.364794
2.71 -0.365376
2.72 -0.365106
2.73 -0.364088
2.74 -0.362438
2.75 -0.360276
2.76 -0.357687
2.77 -0.354833
2.78 -0.351802
2.79 -0.348664
2.8 -0.345462
2.81 -0.342212
2.82 -0.3389
2.83 -0.335477
2.84 -0.331875
2.85 -0.328003
2.86 -0.32375
2.87 -0.318995
2.88 -0.313609
2.89 -0.307366
2.9 -0.300205
2.91 -0.292026
2.92 -0.282739
2.93 -0.272276
2.94 -0.260597
2.95 -0.247641
2.96 -0.233399
2.97 -0.218022
2.98 -0.201601
2.99 -0.184254
3 -0.166122
3.01 -0.147365
3.02 -0.128133
3.03 -0.108662
3.04 -0.0891443
3.05 -0.0697567
3.06 -0.0506639
3.07 -0.0320133
3.08 -0.013952
3.09 0.00337487
3.1 0.0199542
3.11 0.0357529
3.12 0.0507676
3.13 0.0650242
3.14 0.0785748
3.15 0.0914499
3.16 0.103792
3.17 0.115733
3.18 0.127392
3.19 0.138889
3.2 0.150341
3.21 0.161857
3.22 0.173551
3.23 0.185482
3.24 0.197694
3.25 0.210205
3.26 0.223006
3.27 0.236062
3.28 0.249318
3.29 0.262666
3.3 0.275986
3.31 0.289149
3.32 0.302014
3.33 0.314433
3.34 0.326249
3.35 0.337229
3.36 0.347306
3.37 0.356361
3.38 0.364298
3.39 0.371038
3.4 0.376532
3.41 0.380678
3.42 0.383494
3.43 0.385091
3.44 0.385536
3.45 0.38492
3.46 0.383356
3.47 0.380976
3.48 0.377866
3.49 0.374278
3.5 0.370375
3.51 0.366324
3.52 0.362285
3.53 0.358414
3.54 0.354879
3.55 0.351836
3.56 0.349375
3.57 0.347591
3.58 0.34656
3.59 0.346343
3.6 0.34698
3.61 0.348589
3.62 0.351096
3.63 0.354481
3.64 0.358724
3.65 0.363794
3.66 0.369652
3.67 0.376283
3.68 0.383655
3.69 0.391657
3.7 0.400233
3.71 0.409328
3.72 0.418881
3.73 0.428834
3.74 0.439152
3.75 0.449739
3.76 0.460522
3.77 0.471431
3.78 0.482392
3.79 0.493328
3.8 0.504148
3.81 0.514739
3.82 0.525018
3.83 0.534884
3.84 0.544232
3.85 0.552956
3.86 0.560946
3.87 0.568014
3.88 0.57408
3.89 0.579068
3.9 0.582882
3.91 0.585432
3.92 0.586635
3.93 0.586395
3.94 0.58453
3.95 0.581139
3.96 0.576196
3.97 0.569687
3.98 0.561614
3.99 0.551991
4 0.540742
4.01 0.52795
4.02 0.513739
4.03 0.498169
4.04 0.481308
4.05 0.463227
4.06 0.443997
4.07 0.423595
4.08 0.402226
4.09 0.379969
4.1 0.356901
4.11 0.333101
4.12 0.308645
4.13 0.283576
4.14 0.257983
4.15 0.231973
4.16 0.205621
4.17 0.179005
4.18 0.152206
4.19 0.125307
4.2 0.098406
4.21 0.0716057
4.22 0.0450044
4.23 0.0187036
4.24 -0.00719172
4.25 -0.0325749
4.26 -0.0573029
4.27 -0.0812407
4.28 -0.104331
4.29 -0.126479
4.3 -0.147598
4.31 -0.167615
4.32 -0.186467
4.33 -0.203982
4.34 -0.220236
4.35 -0.235241
4.36 -0.249012
4.37 -0.261579
4.38 -0.272996
4.39 -0.283292
4.4 -0.292525
4.41 -0.300883
4.42 -0.308477
4.43 -0.315425
4.44 -0.321849
4.45 -0.327872
4.46 -0.333595
4.47 -0.339157
4.48 -0.344661
4.49 -0.350187
4.5 -0.355797
4.51 -0.361535
4.52 -0.367429
4.53 -0.373488
4.54 -0.379677
4.55 -0.385952
4.56 -0.392255
4.57 -0.398513
4.58 -0.404642
4.59 -0.410525
4.6 -0.416062
4.61 -0.421168
4.62 -0.425753
4.63 -0.429739
4.64 -0.433057
4.65 -0.435645
4.66 -0.437402
4.67 -0.438394
4.68 -0.438633
4.69 -0.438155
4.7 -0.437014
4.71 -0.435282
4.72 -0.433023
4.73 -0.430369
4.74 -0.427459
4.75 -0.424418
4.76 -0.42137
4.77 -0.418439
4.78 -0.415744
4.79 -0.413442
4.8 -0.411597
4.81 -0.410283
4.82 -0.409558
4.83 -0.409461
4.84 -0.41001
4.85 -0.411238
4.86 -0.413118
4.87 -0.415569
4.88 -0.41853
4.89 -0.421931
4.9 -0.425688
4.91 -0.429713
4.92 -0.433923
4.93 -0.438196
4.94 -0.442443
4.95 -0.44658
4.96 -0.450532
4.97 -0.454231
4.98 -0.457605
4.99 -0.460596
5 -0.463195
5.01 -0.46538
5.02 -0.467137
5.03 -0.46846
5.04 -0.469347
5.05 -0.469752
5.06 -0.469712
5.07 -0.469227
5.08 -0.468288
5.09 -0.466876
5.1 -0.464963
5.11 -0.46249
5.12 -0.459372
5.13 -0.455589
5.14 -0.451069
5.15 -0.445728
5.16 -0.439477
5.17 -0.432221
5.18 -0.423757
5.19 -0.414041
5.2 -0.403014
5.21 -0.390592
5.22 -0.376699
5.23 -0.361275
5.24 -0.344232
5.25 -0.32543
5.26 -0.305011
5.27 -0.282986
5.28 -0.259387
5.29 -0.234267
5.3 -0.207694
5.31 -0.179655
5.32 -0.150317
5.33 -0.119848
5.34 -0.0883709
5.35 -0.0560152
5.36 -0.0229141
5.37 0.0108044
5.38 0.0450336
5.39 0.0795832
5.4 0.114328
5.41 0.149148
5.42 0.18393
5.43 0.218563
5.44 0.252921
5.45 0.286892
5.46 0.320392
5.47 0.353324
5.48 0.385589
5.49 0.417084
5.5 0.447699
5.51 0.477194
5.52 0.505549
5.53 0.532631
5.54 0.5583
5.55 0.582408
5.56 0.6048
5.57 0.625204
5.58 0.643422
5.59 0.659412
5.6 0.673019
5.61 0.6841
5.62 0.692521
5.63 0.698168
5.64 0.70063
5.65 0.700118
5.66 0.696624
5.67 0.690144
5.68 0.680705
5.69 0.668366
5.7 0.653105
5.71 0.634989
5.72 0.614386
5.73 0.591485
5.74 0.566495
5.75 0.539648
5.76 0.511186
5.77 0.481255
5.78 0.450242
5.79 0.418427
5.8 0.386052
5.81 0.353346
5.82 0.320522
5.83 0.287781
5.84 0.255323
5.85 0.223276
5.86 0.191752
5.87 0.160838
5.88 0.130598
5.89 0.101073
5.9 0.0723541
5.91 0.0444085
5.92 0.0172116
5.93 -0.00924306
5.94 -0.0349621
5.95 -0.0599477
5.96 -0.0841773
5.97 -0.107574
5.98 -0.130172
5.99 -0.151917
6 -0.172739
6.01 -0.19255
6.02 -0.211244
6.03 -0.2286
6.04 -0.244508
6.05 -0.258883
6.06 -0.271583
6.07 -0.282469
6.08 -0.291412
6.09 -0.298273
6.1 -0.302738
6.11 -0.304962
6.12 -0.304907
6.13 -0.302565
6.14 -0.297965
6.15 -0.291169
6.16 -0.28215
6.17 -0.271089
6.18 -0.258269
6.19 -0.243893
6.2 -0.228185
6.21 -0.211389
6.22 -0.19376
6.23 -0.175527
6.24 -0.157041
6.25 -0.138553
6.26 -0.1203
6.27 -0.1025
6.28 -0.0853404
6.29 -0.0690314
6.3 -0.0537221
6.31 -0.0394382
6.32 -0.0262204
6.33 -0.0140726
6.34 -0.00296242
6.35 0.00717591
6.36 0.0163585
6.37 0.0248065
6.38 0.0326764
6.39 0.0401285
6.4 0.0473306
6.41 0.0544526
6.42 0.0616706
6.43 0.0691702
6.44 0.0770804
6.45 0.0855196
6.46 0.0945839
6.47 0.104345
6.48 0.114849
6.49 0.126187
6.5 0.138296
6.51 0.151122
6.52 0.164612
6.53 0.178693
6.54 0.193282
6.55 0.208294
6.56 0.223632
6.57 0.239165
6.58 0.254795
6.59 0.270436
6.6 0.286009
6.61 0.30145
6.62 0.316689
6.63 0.331697
6.64 0.346462
6.65 0.360981
6.66 0.375262
6.67 0.389322
6.68 0.40318
6.69 0.416856
6.7 0.430394
6.71 0.443816
6.72 0.457136
6.73 0.470358
6.74 0.483469
6.75 0.49643
6.76 0.509191
6.77 0.521689
6.78 0.533837
6.79 0.54553
6.8 0.556646
6.81 0.567043
6.82 0.576467
6.83 0.584842
6.84 0.592007
6.85 0.597803
6.86 0.602074
6.87 0.604674
6.88 0.605348
6.89 0.603974
6.9 0.600558
6.91 0.595029
6.92 0.587338
6.93 0.577461
6.94 0.565397
6.95 0.550932
6.96 0.534365
6.97 0.515777
6.98 0.495264
6.99 0.472939
7 0.448927
7.01 0.423294
7.02 0.396183
7.03 0.367843
7.04 0.338425
7.05 0.308072
7.06 0.276928
7.07 0.245128
7.08 0.212756
7.09 0.179991
7.1 0.146947
7.11 0.113722
7.12 0.0804065
7.13 0.0470833
7.14 0.0138344
7.15 -0.0192534
7.16 -0.0521191
7.17 -0.0846965
7.18 -0.11692
7.19 -0.148722
7.2 -0.180035
7.21 -0.210727
7.22 -0.240753
7.23 -0.270049
7.24 -0.298534
7.25 -0.326127
7.26 -0.352745
7.27 -0.378276
7.28 -0.402562
7.29 -0.425627
7.3 -0.447406
7.31 -0.467842
7.32 -0.486889
7.33 -0.504513
7.34 -0.520575
7.35 -0.535133
7.36 -0.548251
7.37 -0.559952
7.38 -0.570275
7.39 -0.579272
7.4 -0.586985
7.41 -0.593398
7.42 -0.598718
7.43 -0.603033
7.44 -0.606434
7.45 -0.609012
7.46 -0.610855
7.47 -0.612009
7.48 -0.612577
7.49 -0.612657
7.5 -0.612306
7.51 -0.61157
7.52 -0.610483
7.53 -0.609065
7.54 -0.607291
7.55 -0.605191
7.56 -0.60275
7.57 -0.599942
7.58 -0.596732
7.59 -0.593083
7.6 -0.588918
7.61 -0.584186
7.62 -0.578869
7.63 -0.572926
7.64 -0.566318
7.65 -0.559013
7.66 -0.550986
7.67 -0.542139
7.68 -0.532545
7.69 -0.522216
7.7 -0.51117
7.71 -0.499436
7.72 -0.487052
7.73 -0.47404
7.74 -0.460459
7.75 -0.446414
7.76 -0.431983
7.77 -0.417242
7.78 -0.402278
7.79 -0.387175
7.8 -0.372026
7.81 -0.356932
7.82 -0.341981
7.83 -0.327257
7.84 -0.312842
7.85 -0.298814
7.86 -0.285263
7.87 -0.272289
7.88 -0.259915
7.89 -0.248194
7.9 -0.237174
7.91 -0.226896
7.92 -0.217393
7.93 -0.208767
7.94 -0.200991
7.95 -0.194053
7.96 -0.187959
7.97 -0.182709
7.98 -0.178293
7.99 -0.17472
8 -0.172019
8.01 -0.170089
8.02 -0.168896
8.03 -0.168406
8.04 -0.168578
8.05 -0.169366
8.06 -0.170766
8.07 -0.172696
8.08 -0.175085
8.09 -0.177879
8.1 -0.181027
8.11 -0.184477
8.12 -0.188181
8.13 -0.192103
8.14 -0.196171
8.15 -0.200343
8.16 -0.204577
8.17 -0.208837
8.18 -0.213087
8.19 -0.217289
8.2 -0.221408
8.21 -0.225418
8.22 -0.229289
8.23 -0.232992
8.24 -0.236497
8.25 -0.239769
8.26 -0.242738
8.27 -0.245392
8.28 -0.247685
8.29 -0.249566
8.3 -0.250982
8.31 -0.251871
8.32 -0.25213
8.33 -0.251672
8.34 -0.25046
8.35 -0.248413
8.36 -0.245451
8.37 -0.241491
8.38 -0.236453
8.39 -0.230124
8.4 -0.22254
8.41 -0.213644
8.42 -0.203377
8.43 -0.191689
8.44 -0.178541
8.45 -0.163838
8.46 -0.147526
8.47 -0.129715
8.48 -0.110422
8.49 -0.0896756
8.5 -0.0675203
8.51 -0.0440118
8.52 -0.0190994
8.53 0.00702626
8.54 0.0342518
8.55 0.062481
8.56 0.0916121
8.57 0.12154
8.58 0.152177
8.59 0.183428
8.6 0.215132
8.61 0.247186
8.62 0.27949
8.63 0.311947
8.64 0.344467
8.65 0.376953
8.66 0.409317
8.67 0.441482
8.68 0.473375
8.69 0.504926
8.7 0.536064
8.71 0.566708
8.72 0.596739
8.73 0.626131
8.74 0.654808
8.75 0.682688
8.76 0.709686
8.77 0.735711
8.78 0.760579
8.79 0.784209
8.8 0.806538
8.81 0.827452
8.82 0.846837
8.83 0.864573
8.84 0.88052
8.85 0.89437
8.86 0.906197
8.87 0.915891
8.88 0.923349
8.89 0.928476
8.9 0.931187
8.91 0.931242
8.92 0.928604
8.93 0.923358
8.94 0.915476
8.95 0.904941
8.96 0.891753
8.97 0.875925
8.98 0.857191
8.99 0.835907
9 0.812135
9.01 0.785949
9.02 0.757439
9.03 0.726704
9.04 0.693747
9.05 0.658692
9.06 0.621802
9.07 0.583219
9.08 0.543092
9.09 0.501576
9.1 0.458835
9.11 0.414945
9.12 0.370201
9.13 0.324798
9.14 0.278922
9.15 0.232766
9.16 0.186526
9.17 0.140417
9.18 0.0946802
9.19 0.0495087
9.2 0.00510677
9.21 -0.0383227
9.22 -0.0805794
9.23 -0.121468
9.24 -0.160631
9.25 -0.197984
9.26 -0.233392
9.27 -0.266699
9.28 -0.297761
9.29 -0.326452
9.3 -0.352579
9.31 -0.375901
9.32 -0.396564
9.33 -0.41452
9.34 -0.429739
9.35 -0.442212
9.36 -0.451949
9.37 -0.45875
9.38 -0.462811
9.39 -0.46428
9.4 -0.463233
9.41 -0.459756
9.42 -0.453944
9.43 -0.445852
9.44 -0.435438
9.45 -0.423023
9.46 -0.408714
9.47 -0.392616
9.48 -0.374832
9.49 -0.35546
9.5 -0.334492
9.51 -0.312074
9.52 -0.288357
9.53 -0.263423
9.54 -0.237351
9.55 -0.21022
9.56 -0.182101
9.57 -0.152999
9.58 -0.123102
9.59 -0.0925044
9.6 -0.0613045
9.61 -0.0296104
9.62 0.00246103
9.63 0.0347896
9.64 0.0672143
9.65 0.0995736
9.66 0.13171
9.67 0.163457
9.68 0.194646
9.69 0.2251
9.7 0.254519
9.71 0.282816
9.72 0.309822
9.73 0.335376
9.74 0.359327
9.75 0.381537
9.76 0.401783
9.77 0.419919
9.78 0.435991
9.79 0.449942
9.8 0.461738
9.81 0.471367
9.82 0.478839
9.83 0.483971
9.84 0.487018
9.85 0.488085
9.86 0.487262
9.87 0.484656
9.88 0.480381
9.89 0.474505
9.9 0.467122
9.91 0.458479
9.92 0.448705
9.93 0.437924
9.94 0.426253
9.95 0.413802
9.96 0.400618
9.97 0.386846
9.98 0.372579
9.99 0.35788
10 0.342807
10.01 0.327403
10.02 0.311699
10.03 0.295712
10.04 0.279491
10.05 0.263055
10.06 0.246421
10.07 0.229609
10.08 0.212636
10.09 0.195513
10.1 0.178278
10.11 0.160962
10.12 0.143602
10.13 0.126236
10.14 0.108907
10.15 0.0916627
10.16 0.074571
10.17 0.0576732
10.18 0.0410205
10.19 0.0246624
10.2 0.00864641
10.21 -0.00698427
10.22 -0.0221587
10.23 -0.0368516
10.24 -0.0510592
10.25 -0.0647651
10.26 -0.0779609
10.27 -0.0906453
10.28 -0.102821
10.29 -0.114452
10.3 -0.125614
10.31 -0.136331
10.32 -0.14663
10.33 -0.15654
10.34 -0.166091
10.35 -0.175294
10.36 -0.184183
10.37 -0.192798
10.38 -0.201161
10.39 -0.209287
10.4 -0.217188
10.41 -0.224872
10.42 -0.232317
10.43 -0.239546
10.44 -0.246558
10.45 -0.253346
10.46 -0.259906
10.47 -0.266234
10.48 -0.272317
10.49 -0.278151
10.5 -0.283761
10.51 -0.289158
10.52 -0.29436
10.53 -0.299393
10.54 -0.304285
10.55 -0.309069
10.56 -0.313799
10.57 -0.318525
10.58 -0.323296
10.59 -0.328164
10.6 -0.33318
10.61 -0.338402
10.62 -0.34389
10.63 -0.349666
10.64 -0.35576
10.65 -0.362193
10.66 -0.368974
10.67 -0.376105
10.68 -0.3836
10.69 -0.39141
10.7 -0.399487
10.71 -0.407784
10.72 -0.416241
10.73 -0.424792
10.74 -0.433366
10.75 -0.441871
10.76 -0.450229
10.77 -0.458364
10.78 -0.466202
10.79 -0.473675
10.8 -0.480723
10.81 -0.487255
10.82 -0.493246
10.83 -0.49869
10.84 -0.503575
10.85 -0.5079
10.86 -0.511679
10.87 -0.514926
10.88 -0.517641
10.89 -0.519919
10.9 -0.521813
10.91 -0.523377
10.92 -0.524668
10.93 -0.52574
10.94 -0.526639
10.95 -0.527421
10.96 -0.52813
10.97 -0.528793
10.98 -0.529426
10.99 -0.530033
11 -0.530604
11.01 -0.531107
11.02 -0.531507
11.03 -0.531756
11.04 -0.531794
11.05 -0.531553
11.06 -0.530958
11.07 -0.529901
11.08 -0.528287
11.09 -0.526065
11.1 -0.523158
11.11 -0.519496
11.12 -0.515018
11.13 -0.509673
11.14 -0.503318
11.15 -0.496019
11.16 -0.487773
11.17 -0.478584
11.18 -0.46847
11.19 -0.457464
11.2 -0.445571
11.21 -0.432837
11.22 -0.419389
11.23 -0.4053
11.24 -0.39065
11.25 -0.375521
11.26 -0.359996
11.27 -0.344137
11.28 -0.328055
11.29 -0.311831
11.3 -0.295531
11.31 -0.279216
11.32 -0.262937
11.33 -0.24674
11.34 -0.230667
11.35 -0.21473
11.36 -0.198943
11.37 -0.183308
11.38 -0.167819
11.39 -0.152467
11.4 -0.137241
11.41 -0.122108
11.42 -0.107038
11.43 -0.0920017
11.44 -0.0769675
11.45 -0.0619035
11.46 -0.046776
11.47 -0.0315436
11.48 -0.0161834
11.49 -0.000667829
11.5 0.0150288
11.51 0.03093
11.52 0.0470575
11.53 0.0634513
11.54 0.080122
11.55 0.0970749
11.56 0.114324
11.57 0.13188
11.58 0.149754
11.59 0.167957
11.6 0.186527
11.61 0.20543
11.62 0.224665
11.63 0.244229
11.64 0.264112
11.65 0.284301
11.66 0.304792
11.67 0.325552
11.68 0.346534
11.69 0.367695
11.7 0.388988
11.71 0.410359
11.72 0.431743
11.73 0.453057
11.74 0.474222
11.75 0.495153
11.76 0.515762
11.77 0.535954
11.78 0.555635
11.79 0.574665
11.8 0.592927
11.81 0.610361
11.82 0.626873
11.83 0.64237
11.84 0.656767
11.85 0.669982
11.86 0.681799
11.87 0.69227
11.88 0.701352
11.89 0.708996
11.9 0.715164
11.91 0.719825
11.92 0.722891
11.93 0.7243
11.94 0.724162
11.95 0.722477
11.96 0.719253
11.97 0.714505
11.98 0.70825
11.99 0.700369
12 0.691005
12.01 0.680216
12.02 0.668035
12.03 0.654497
12.04 0.639639
12.05 0.62346
12.06 0.605947
12.07 0.587255
12.08 0.567437
12.09 0.546548
12.1 0.524653
12.11 0.501819
12.12 0.478054
12.13 0.4535
12.14 0.428273
12.15 0.402472
12.16 0.376204
12.17 0.349579
12.18 0.322716
12.19 0.295746
12.2 0.268821
12.21 0.242072
12.22 0.215634
12.23 0.189642
12.24 0.164227
12.25 0.139582
12.26 0.115823
12.27 0.093034
12.28 0.0713213
