# xPDFsuite Configuration #
[PDF]
wavelength = 0.1
dataformat = QA
inputfile = BiMsol6_insitu_700 C-00026.xy
backgroundfile = Quartz2mm-dist500-00000.xy
mode = xray
bgscale = 0.0042
composition = Bi2Fe4O9
outputtype = gr
qmaxinst = 24.998449118
qmin = 0.1
qmax = 21.4986662415
rmax = 80.0
rmin = 0.0
rstep = 0.01
rpoly = 0.9

[Misc]
inputdir = C:/Data/Seafile/CPH/Beamtime/Desy Oct 20/In situ data/Processed/BiMsol6/PDF
savedir = C:/Data/Seafile/CPH/Beamtime/Desy Oct 20/In situ data/PDF/BiMsol6
backgroundfilefull = C:/Data/Seafile/CPH/Beamtime/Desy Oct 20/In situ data/Processed/Standard_Empty_Cap/Quartz2mm-dist500-00000.xy

#### start data
#S 1
#L r($\AA$)  G($\AA^{-2}$)
0 0
0.01 0.00654891
0.02 0.0127309
0.03 0.0182318
0.04 0.02277
0.05 0.0261087
0.06 0.0280677
0.07 0.0284495
0.08 0.0271965
0.09 0.0244538
0.1 0.0203405
0.11 0.0150419
0.12 0.00880073
0.13 0.00190672
0.14 -0.00531461
0.15 -0.0124529
0.16 -0.0191618
0.17 -0.0251168
0.18 -0.0300265
0.19 -0.0336474
0.2 -0.0357296
0.21 -0.0361018
0.22 -0.0348629
0.23 -0.0320791
0.24 -0.0278962
0.25 -0.0225339
0.26 -0.0162779
0.27 -0.0094527
0.28 -0.00252733
0.29 0.00408122
0.3 0.00996822
0.31 0.014749
0.32 0.0180779
0.33 0.0196051
0.34 0.0189888
0.35 0.0162808
0.36 0.0114782
0.37 0.00468297
0.38 -0.00389658
0.39 -0.013949
0.4 -0.0251138
0.41 -0.0367698
0.42 -0.0483081
0.43 -0.0591102
0.44 -0.0685367
0.45 -0.0759518
0.46 -0.0806842
0.47 -0.0818711
0.48 -0.0793273
0.49 -0.072707
0.5 -0.0617876
0.51 -0.0464842
0.52 -0.0268587
0.53 -0.00285462
0.54 0.0249691
0.55 0.0558809
0.56 0.0892001
0.57 0.124133
0.58 0.159794
0.59 0.195223
0.6 0.229189
0.61 0.260746
0.62 0.288938
0.63 0.312872
0.64 0.331748
0.65 0.344888
0.66 0.351342
0.67 0.350744
0.68 0.343295
0.69 0.329029
0.7 0.308162
0.71 0.281091
0.72 0.24838
0.73 0.210275
0.74 0.168275
0.75 0.123363
0.76 0.0765759
0.77 0.0289839
0.78 -0.0183397
0.79 -0.0642327
0.8 -0.107541
0.81 -0.147501
0.82 -0.183371
0.83 -0.214552
0.84 -0.240599
0.85 -0.261235
0.86 -0.275785
0.87 -0.284842
0.88 -0.288743
0.89 -0.287893
0.9 -0.282821
0.91 -0.27416
0.92 -0.262541
0.93 -0.248759
0.94 -0.233815
0.95 -0.218486
0.96 -0.20351
0.97 -0.189563
0.98 -0.177241
0.99 -0.167271
1 -0.159913
1.01 -0.155341
1.02 -0.153658
1.03 -0.154845
1.04 -0.158766
1.05 -0.165245
1.06 -0.174031
1.07 -0.18449
1.08 -0.196161
1.09 -0.208556
1.1 -0.221183
1.11 -0.233569
1.12 -0.245184
1.13 -0.255632
1.14 -0.264641
1.15 -0.271988
1.16 -0.277537
1.17 -0.28124
1.18 -0.283107
1.19 -0.283139
1.2 -0.281725
1.21 -0.279129
1.22 -0.275659
1.23 -0.271647
1.24 -0.267437
1.25 -0.263397
1.26 -0.259876
1.27 -0.257128
1.28 -0.255361
1.29 -0.254721
1.3 -0.255286
1.31 -0.257068
1.32 -0.260103
1.33 -0.264104
1.34 -0.26886
1.35 -0.274111
1.36 -0.27956
1.37 -0.284889
1.38 -0.289728
1.39 -0.293715
1.4 -0.296595
1.41 -0.298128
1.42 -0.298129
1.43 -0.296475
1.44 -0.293116
1.45 -0.287898
1.46 -0.281126
1.47 -0.273001
1.48 -0.263783
1.49 -0.253784
1.5 -0.243363
1.51 -0.232925
1.52 -0.22294
1.53 -0.213801
1.54 -0.205877
1.55 -0.199501
1.56 -0.194949
1.57 -0.19243
1.58 -0.192303
1.59 -0.194421
1.6 -0.198686
1.61 -0.204945
1.62 -0.212965
1.63 -0.222432
1.64 -0.232993
1.65 -0.244175
1.66 -0.255422
1.67 -0.266241
1.68 -0.27614
1.69 -0.284647
1.7 -0.29133
1.71 -0.295579
1.72 -0.297195
1.73 -0.296029
1.74 -0.291963
1.75 -0.284969
1.76 -0.275119
1.77 -0.262515
1.78 -0.247292
1.79 -0.230043
1.8 -0.21118
1.81 -0.191163
1.82 -0.170481
1.83 -0.149639
1.84 -0.129198
1.85 -0.109679
1.86 -0.0914862
1.87 -0.0749832
1.88 -0.0604613
1.89 -0.0481315
1.9 -0.0381532
1.91 -0.0307603
1.92 -0.0256354
1.93 -0.0226171
1.94 -0.0214691
1.95 -0.0218912
1.96 -0.0235323
1.97 -0.0260337
1.98 -0.0289143
1.99 -0.0317315
2 -0.0341008
2.01 -0.035674
2.02 -0.0361534
2.03 -0.0352985
2.04 -0.0327736
2.05 -0.0286753
2.06 -0.0230286
2.07 -0.0159421
2.08 -0.00760394
2.09 0.00172472
2.1 0.0117348
2.11 0.0219872
2.12 0.0320254
2.13 0.041414
2.14 0.0497178
2.15 0.0565187
2.16 0.0614313
2.17 0.0638438
2.18 0.0636934
2.19 0.0608147
2.2 0.0551072
2.21 0.0465569
2.22 0.0352371
2.23 0.0212002
2.24 0.00467109
2.25 -0.0138338
2.26 -0.033924
2.27 -0.0551627
2.28 -0.0770822
2.29 -0.0991986
2.3 -0.120953
2.31 -0.141853
2.32 -0.161481
2.33 -0.17946
2.34 -0.195472
2.35 -0.20927
2.36 -0.220595
2.37 -0.229233
2.38 -0.235392
2.39 -0.239158
2.4 -0.240689
2.41 -0.240205
2.42 -0.237983
2.43 -0.234249
2.44 -0.229479
2.45 -0.224083
2.46 -0.218427
2.47 -0.212865
2.48 -0.207723
2.49 -0.203317
2.5 -0.199984
2.51 -0.197831
2.52 -0.196976
2.53 -0.19748
2.54 -0.199341
2.55 -0.202503
2.56 -0.206934
2.57 -0.21241
2.58 -0.218679
2.59 -0.225517
2.6 -0.232679
2.61 -0.239917
2.62 -0.246984
2.63 -0.253587
2.64 -0.25955
2.65 -0.264703
2.66 -0.268916
2.67 -0.272097
2.68 -0.274197
2.69 -0.275139
2.7 -0.274981
2.71 -0.273858
2.72 -0.271877
2.73 -0.26917
2.74 -0.265887
2.75 -0.262185
2.76 -0.258214
2.77 -0.254172
2.78 -0.250197
2.79 -0.24641
2.8 -0.242906
2.81 -0.239754
2.82 -0.237015
2.83 -0.2347
2.84 -0.232756
2.85 -0.231132
2.86 -0.22975
2.87 -0.22852
2.88 -0.227336
2.89 -0.226065
2.9 -0.224591
2.91 -0.222807
2.92 -0.22062
2.93 -0.217951
2.94 -0.214742
2.95 -0.210932
2.96 -0.206492
2.97 -0.201485
2.98 -0.195955
2.99 -0.189965
3 -0.183596
3.01 -0.176943
3.02 -0.170105
3.03 -0.163216
3.04 -0.156383
3.05 -0.149704
3.06 -0.143263
3.07 -0.137126
3.08 -0.13135
3.09 -0.125978
3.1 -0.120969
3.11 -0.116289
3.12 -0.111878
3.13 -0.107656
3.14 -0.103522
3.15 -0.0993474
3.16 -0.0949915
3.17 -0.0903234
3.18 -0.0852128
3.19 -0.0795356
3.2 -0.0731797
3.21 -0.0660308
3.22 -0.0579415
3.23 -0.0489411
3.24 -0.0390082
3.25 -0.0281472
3.26 -0.0163879
3.27 -0.00378401
3.28 0.00963885
3.29 0.0237483
3.3 0.0384012
3.31 0.0534792
3.32 0.0688612
3.33 0.0844281
3.34 0.100067
3.35 0.115665
3.36 0.131134
3.37 0.146415
3.38 0.161468
3.39 0.176274
3.4 0.190837
3.41 0.205173
3.42 0.219334
3.43 0.233395
3.44 0.247428
3.45 0.261511
3.46 0.275721
3.47 0.290131
3.48 0.304839
3.49 0.319865
3.5 0.335228
3.51 0.350926
3.52 0.366931
3.53 0.383186
3.54 0.399608
3.55 0.416063
3.56 0.432398
3.57 0.448445
3.58 0.464023
3.59 0.478934
3.6 0.492979
3.61 0.505821
3.62 0.517345
3.63 0.527384
3.64 0.535779
3.65 0.542393
3.66 0.547121
3.67 0.549806
3.68 0.550337
3.69 0.548871
3.7 0.545452
3.71 0.540155
3.72 0.533089
3.73 0.524393
3.74 0.514105
3.75 0.502534
3.76 0.489908
3.77 0.476429
3.78 0.462298
3.79 0.447711
3.8 0.432849
3.81 0.417896
3.82 0.403017
3.83 0.388331
3.84 0.373936
3.85 0.359901
3.86 0.346271
3.87 0.333105
3.88 0.320377
3.89 0.308049
3.9 0.296085
3.91 0.284435
3.92 0.273046
3.93 0.261864
3.94 0.25084
3.95 0.239909
3.96 0.229033
3.97 0.218185
3.98 0.207354
3.99 0.196538
4 0.185758
4.01 0.175044
4.02 0.164436
4.03 0.153982
4.04 0.143738
4.05 0.133758
4.06 0.124102
4.07 0.114862
4.08 0.106044
4.09 0.0976777
4.1 0.0897785
4.11 0.0823486
4.12 0.0753745
4.13 0.0688497
4.14 0.0627197
4.15 0.0568997
4.16 0.0513181
4.17 0.0458959
4.18 0.0405496
4.19 0.0351949
4.2 0.0297319
4.21 0.0240907
4.22 0.0182112
4.23 0.0120471
4.24 0.00556914
4.25 -0.00123308
4.26 -0.00836408
4.27 -0.0157921
4.28 -0.0234412
4.29 -0.0312392
4.3 -0.0390985
4.31 -0.0469195
4.32 -0.0545938
4.33 -0.0619707
4.34 -0.0689486
4.35 -0.0754257
4.36 -0.081306
4.37 -0.0865081
4.38 -0.090968
4.39 -0.0946115
4.4 -0.0973857
4.41 -0.0993636
4.42 -0.10058
4.43 -0.101093
4.44 -0.100983
4.45 -0.10035
4.46 -0.0992819
4.47 -0.0979504
4.48 -0.0965006
4.49 -0.0950687
4.5 -0.0937868
4.51 -0.0927783
4.52 -0.0921663
4.53 -0.0920829
4.54 -0.0925569
4.55 -0.0936294
4.56 -0.0953156
4.57 -0.0976047
4.58 -0.10046
4.59 -0.103853
4.6 -0.107666
4.61 -0.111772
4.62 -0.116052
4.63 -0.120375
4.64 -0.124607
4.65 -0.128609
4.66 -0.132207
4.67 -0.135314
4.68 -0.137832
4.69 -0.139683
4.7 -0.140811
4.71 -0.141187
4.72 -0.140753
4.73 -0.139553
4.74 -0.137678
4.75 -0.135202
4.76 -0.13222
4.77 -0.128844
4.78 -0.125197
4.79 -0.121414
4.8 -0.117657
4.81 -0.11406
4.82 -0.110747
4.83 -0.107834
4.84 -0.105418
4.85 -0.103619
4.86 -0.102502
4.87 -0.102065
4.88 -0.102316
4.89 -0.103241
4.9 -0.104805
4.91 -0.106953
4.92 -0.109661
4.93 -0.112778
4.94 -0.116203
4.95 -0.119833
4.96 -0.123564
4.97 -0.127293
4.98 -0.130913
4.99 -0.134323
5 -0.137457
5.01 -0.140259
5.02 -0.142687
5.03 -0.144714
5.04 -0.146332
5.05 -0.147509
5.06 -0.148304
5.07 -0.14876
5.08 -0.148922
5.09 -0.148843
5.1 -0.148579
5.11 -0.148185
5.12 -0.147722
5.13 -0.14725
5.14 -0.146811
5.15 -0.14644
5.16 -0.146163
5.17 -0.145994
5.18 -0.145945
5.19 -0.146002
5.2 -0.146141
5.21 -0.146338
5.22 -0.146558
5.23 -0.146768
5.24 -0.146924
5.25 -0.14698
5.26 -0.146905
5.27 -0.146669
5.28 -0.146249
5.29 -0.145629
5.3 -0.1448
5.31 -0.143749
5.32 -0.142496
5.33 -0.141069
5.34 -0.139495
5.35 -0.137806
5.36 -0.136038
5.37 -0.134229
5.38 -0.13242
5.39 -0.130651
5.4 -0.128951
5.41 -0.127345
5.42 -0.125849
5.43 -0.124472
5.44 -0.123219
5.45 -0.122077
5.46 -0.121017
5.47 -0.120012
5.48 -0.119025
5.49 -0.118016
5.5 -0.116942
5.51 -0.115739
5.52 -0.114376
5.53 -0.112812
5.54 -0.111016
5.55 -0.108962
5.56 -0.106636
5.57 -0.104016
5.58 -0.101108
5.59 -0.0979488
5.6 -0.0945677
5.61 -0.0910034
5.62 -0.0873022
5.63 -0.0835165
5.64 -0.0797057
5.65 -0.0759358
5.66 -0.0722627
5.67 -0.0687374
5.68 -0.0654043
5.69 -0.062299
5.7 -0.059458
5.71 -0.0569015
5.72 -0.0546069
5.73 -0.052557
5.74 -0.0507218
5.75 -0.0490591
5.76 -0.0475167
5.77 -0.0460329
5.78 -0.0445282
5.79 -0.0429313
5.8 -0.0411727
5.81 -0.0391865
5.82 -0.0369135
5.83 -0.0342914
5.84 -0.03126
5.85 -0.0278286
5.86 -0.0239933
5.87 -0.0197667
5.88 -0.0151778
5.89 -0.010272
5.9 -0.00509332
5.91 0.00026039
5.92 0.00569612
5.93 0.0111223
5.94 0.0164443
5.95 0.0215681
5.96 0.026396
5.97 0.0308101
5.98 0.0347727
5.99 0.0382326
6 0.0411561
6.01 0.043529
6.02 0.0453574
6.03 0.0466329
6.04 0.0474293
6.05 0.0478394
6.06 0.0479502
6.07 0.047862
6.08 0.047685
6.09 0.0475371
6.1 0.0475643
6.11 0.047875
6.12 0.0485746
6.13 0.0497561
6.14 0.0514967
6.15 0.0538541
6.16 0.056907
6.17 0.0606587
6.18 0.0650554
6.19 0.0700534
6.2 0.0755857
6.21 0.0815637
6.22 0.0878798
6.23 0.0944201
6.24 0.10101
6.25 0.107507
6.26 0.113766
6.27 0.119646
6.28 0.125016
6.29 0.129716
6.3 0.133624
6.31 0.136704
6.32 0.138904
6.33 0.140199
6.34 0.140587
6.35 0.140095
6.36 0.138695
6.37 0.136552
6.38 0.133776
6.39 0.130486
6.4 0.126811
6.41 0.12289
6.42 0.118866
6.43 0.114901
6.44 0.11113
6.45 0.107674
6.46 0.104636
6.47 0.102102
6.48 0.100133
6.49 0.0988302
6.5 0.098161
6.51 0.0980967
6.52 0.0985982
6.53 0.0996053
6.54 0.101039
6.55 0.10281
6.56 0.104809
6.57 0.106891
6.58 0.108937
6.59 0.110829
6.6 0.112455
6.61 0.113714
6.62 0.114471
6.63 0.114671
6.64 0.114281
6.65 0.113273
6.66 0.111639
6.67 0.109392
6.68 0.106557
6.69 0.103154
6.7 0.0993109
6.71 0.0951142
6.72 0.090659
6.73 0.0860466
6.74 0.081381
6.75 0.0767759
6.76 0.0723405
6.77 0.0681591
6.78 0.0643077
6.79 0.0608478
6.8 0.0578259
6.81 0.0552754
6.82 0.0532562
6.83 0.0517076
6.84 0.0506039
6.85 0.0499053
6.86 0.0495591
6.87 0.0495024
6.88 0.0496729
6.89 0.049982
6.9 0.0503405
6.91 0.0506726
6.92 0.0509069
6.93 0.0509786
6.94 0.0508319
6.95 0.0503875
6.96 0.0496404
6.97 0.0485739
6.98 0.047183
6.99 0.0454751
7 0.0434688
7.01 0.0411816
7.02 0.0386538
7.03 0.0359489
7.04 0.0331164
7.05 0.030208
7.06 0.0272748
7.07 0.0243659
7.08 0.021537
7.09 0.0188238
7.1 0.0162545
7.11 0.0138503
7.12 0.0116233
7.13 0.00957662
7.14 0.00771111
7.15 0.00601642
7.16 0.0044566
7.17 0.00300385
7.18 0.00162653
7.19 0.00029078
7.2 -0.00103771
7.21 -0.0023972
7.22 -0.00381882
7.23 -0.00532587
7.24 -0.00693628
7.25 -0.0086608
7.26 -0.0105024
7.27 -0.0124586
7.28 -0.014519
7.29 -0.0166502
7.3 -0.0188218
7.31 -0.0209972
7.32 -0.0231351
7.33 -0.0251911
7.34 -0.0271044
7.35 -0.0288289
7.36 -0.0303256
7.37 -0.0315546
7.38 -0.0324817
7.39 -0.033079
7.4 -0.0333209
7.41 -0.0331664
7.42 -0.0326522
7.43 -0.0317895
7.44 -0.0305993
7.45 -0.0291118
7.46 -0.0273658
7.47 -0.0253969
7.48 -0.0232714
7.49 -0.0210579
7.5 -0.0188185
7.51 -0.0166163
7.52 -0.0145143
7.53 -0.0125744
7.54 -0.0108826
7.55 -0.00946952
7.56 -0.00837793
7.57 -0.0076425
7.58 -0.00728894
7.59 -0.0073334
7.6 -0.00780573
7.61 -0.00869988
7.62 -0.00997633
7.63 -0.0116102
7.64 -0.0135683
7.65 -0.0158105
7.66 -0.0182906
7.67 -0.0209726
7.68 -0.0237768
7.69 -0.0266464
7.7 -0.0295259
7.71 -0.0323614
7.72 -0.0351022
7.73 -0.0376931
7.74 -0.0400842
7.75 -0.0422533
7.76 -0.0441753
7.77 -0.0458329
7.78 -0.0472168
7.79 -0.0483256
7.8 -0.04914
7.81 -0.0496991
7.82 -0.0500291
7.83 -0.0501573
7.84 -0.0501153
7.85 -0.0499377
7.86 -0.0496591
7.87 -0.0493192
7.88 -0.0489614
7.89 -0.0486196
7.9 -0.0483239
7.91 -0.0481
7.92 -0.0479681
7.93 -0.0479526
7.94 -0.0480537
7.95 -0.0482672
7.96 -0.0485846
7.97 -0.0489909
7.98 -0.0494649
7.99 -0.04998
8 -0.0505013
8.01 -0.05099
8.02 -0.0514092
8.03 -0.0517216
8.04 -0.0518907
8.05 -0.0518828
8.06 -0.0516497
8.07 -0.0511728
8.08 -0.0504439
8.09 -0.0494542
8.1 -0.0482036
8.11 -0.0467006
8.12 -0.0449595
8.13 -0.042993
8.14 -0.0408617
8.15 -0.0386102
8.16 -0.0362893
8.17 -0.0339551
8.18 -0.0316669
8.19 -0.0294975
8.2 -0.0275146
8.21 -0.0257706
8.22 -0.0243192
8.23 -0.0232074
8.24 -0.0224744
8.25 -0.0221511
8.26 -0.0223043
8.27 -0.0228901
8.28 -0.0238993
8.29 -0.0253099
8.3 -0.0270874
8.31 -0.0291852
8.32 -0.0315568
8.33 -0.0341243
8.34 -0.0367954
8.35 -0.0394881
8.36 -0.0421172
8.37 -0.0445968
8.38 -0.0468426
8.39 -0.048732
8.4 -0.0502174
8.41 -0.0512389
8.42 -0.0517454
8.43 -0.0516982
8.44 -0.0510727
8.45 -0.049832
8.46 -0.0479685
8.47 -0.0455481
8.48 -0.0426086
8.49 -0.0392007
8.5 -0.0353866
8.51 -0.0312384
8.52 -0.0268191
8.53 -0.022244
8.54 -0.0176058
8.55 -0.0129922
8.56 -0.00848782
8.57 -0.00417232
8.58 -0.000129132
8.59 0.00355585
8.6 0.00685653
8.61 0.00973646
8.62 0.0121722
8.63 0.0141537
8.64 0.0156838
8.65 0.0167424
8.66 0.0173866
8.67 0.0176694
8.68 0.0176385
8.69 0.0173479
8.7 0.0168559
8.71 0.0162211
8.72 0.0155058
8.73 0.0147796
8.74 0.0140955
8.75 0.0135004
8.76 0.0130343
8.77 0.0127286
8.78 0.0126212
8.79 0.0127194
8.8 0.0130175
8.81 0.013509
8.82 0.0141797
8.83 0.0150087
8.84 0.0159709
8.85 0.0170413
8.86 0.0181732
8.87 0.0193328
8.88 0.0204873
8.89 0.0216058
8.9 0.022661
8.91 0.0236231
8.92 0.0244736
8.93 0.0252064
8.94 0.0258164
8.95 0.0263042
8.96 0.0266754
8.97 0.02694
8.98 0.0271032
8.99 0.0271939
9 0.0272305
9.01 0.0272312
9.02 0.0272137
9.03 0.0271934
9.04 0.0271839
9.05 0.0271955
9.06 0.0272314
9.07 0.0272911
9.08 0.0273701
9.09 0.0274595
9.1 0.0275473
9.11 0.0276148
9.12 0.0276449
9.13 0.0276197
9.14 0.027522
9.15 0.027336
9.16 0.0270484
9.17 0.0266449
9.18 0.0261167
9.19 0.0254734
9.2 0.0247221
9.21 0.0238754
9.22 0.0229513
9.23 0.0219726
9.24 0.0209669
9.25 0.0199706
9.26 0.0190172
9.27 0.0181402
9.28 0.0173721
9.29 0.0167429
9.3 0.0162851
9.31 0.016032
9.32 0.0159823
9.33 0.0161419
9.34 0.0165086
9.35 0.0170723
9.36 0.0178144
9.37 0.0187187
9.38 0.0197383
9.39 0.0208275
9.4 0.0219409
9.41 0.0230303
9.42 0.0240462
9.43 0.0249366
9.44 0.0256369
9.45 0.0261198
9.46 0.0263514
9.47 0.026306
9.48 0.0259669
9.49 0.0253275
9.5 0.0243706
9.51 0.0231233
9.52 0.0216258
9.53 0.0199147
9.54 0.018035
9.55 0.0160381
9.56 0.0139805
9.57 0.0119294
9.58 0.00995014
9.59 0.00810123
9.6 0.006437
9.61 0.00500579
9.62 0.00384813
9.63 0.00301555
9.64 0.00252751
9.65 0.00237303
9.66 0.00254615
9.67 0.00302928
9.68 0.00379369
9.69 0.00480062
9.7 0.00601876
9.71 0.00736521
9.72 0.00877929
9.73 0.0101985
9.74 0.0115607
9.75 0.0128062
9.76 0.0138686
9.77 0.0146909
9.78 0.0152486
9.79 0.0155158
9.8 0.0154786
9.81 0.0151351
9.82 0.014496
9.83 0.0135594
9.84 0.0123901
9.85 0.0110385
9.86 0.00955972
9.87 0.00801496
9.88 0.00646929
9.89 0.00499486
9.9 0.00367124
9.91 0.00255359
9.92 0.00169673
9.93 0.00114722
9.94 0.000941578
9.95 0.00110496
9.96 0.00168574
9.97 0.00265471
9.98 0.00398601
9.99 0.00565042
10 0.00760729
10.01 0.00980582
10.02 0.01219
10.03 0.0146913
10.04 0.0172241
10.05 0.0197163
10.06 0.022097
10.07 0.0242991
10.08 0.0262606
10.09 0.0278993
10.1 0.0291804
10.11 0.0300832
10.12 0.0305881
10.13 0.0306879
10.14 0.0303874
10.15 0.0296968
10.16 0.0286194
10.17 0.0272325
10.18 0.0255837
10.19 0.0237264
10.2 0.0217182
10.21 0.0196188
10.22 0.0174902
10.23 0.0153988
10.24 0.0133986
10.25 0.0115369
10.26 0.00985389
10.27 0.00838178
10.28 0.00714589
10.29 0.00618699
10.3 0.00548176
10.31 0.00502458
10.32 0.00480192
10.33 0.0047933
10.34 0.00497237
10.35 0.00531547
10.36 0.00578235
10.37 0.00632818
10.38 0.00691671
10.39 0.0075129
10.4 0.00808403
10.41 0.0086006
10.42 0.00902569
10.43 0.00934595
10.44 0.00954689
10.45 0.00961852
10.46 0.00955545
10.47 0.00935651
10.48 0.00901804
10.49 0.00854439
10.5 0.00795303
10.51 0.00725375
10.52 0.00645697
10.53 0.00557313
10.54 0.00461209
10.55 0.00357663
10.56 0.00248088
10.57 0.00133179
10.58 0.000134028
10.59 -0.00110879
10.6 -0.0023937
10.61 -0.0037193
10.62 -0.0050834
10.63 -0.00647853
10.64 -0.0078986
10.65 -0.00933536
10.66 -0.010778
10.67 -0.0122128
10.68 -0.0136192
10.69 -0.0149762
10.7 -0.0162617
10.71 -0.0174506
10.72 -0.0185166
10.73 -0.0194328
10.74 -0.0201672
10.75 -0.0206793
10.76 -0.020964
10.77 -0.0210041
10.78 -0.0207877
10.79 -0.020309
10.8 -0.0195693
10.81 -0.0185584
10.82 -0.0173074
10.83 -0.0158524
10.84 -0.014228
10.85 -0.0124756
10.86 -0.0106428
10.87 -0.00878236
10.88 -0.00696009
10.89 -0.00523561
10.9 -0.00366625
10.91 -0.00230692
10.92 -0.00120818
10.93 -0.00041444
10.94 1.23285e-05
10.95 4.96202e-05
10.96 -0.000299249
10.97 -0.00103606
10.98 -0.00215047
10.99 -0.00361999
11 -0.00541157
11.01 -0.00750301
11.02 -0.00980142
11.03 -0.0122413
11.04 -0.0147514
11.05 -0.0172566
11.06 -0.0196805
11.07 -0.021934
11.08 -0.0239342
11.09 -0.0256267
11.1 -0.0269558
11.11 -0.0278757
11.12 -0.0283529
11.13 -0.0283665
11.14 -0.0278581
11.15 -0.026887
11.16 -0.0254805
11.17 -0.0236757
11.18 -0.0215211
11.19 -0.0190751
11.2 -0.0163973
11.21 -0.0135675
11.22 -0.0106767
11.23 -0.0078011
11.24 -0.00501451
11.25 -0.00238591
11.26 2.25748e-05
11.27 0.00212621
11.28 0.00390212
11.29 0.00532768
11.3 0.006388
11.31 0.00708105
11.32 0.00741738
11.33 0.00740889
11.34 0.00708091
11.35 0.00650521
11.36 0.00573348
11.37 0.00482217
11.38 0.0038303
11.39 0.00281711
11.4 0.0018478
11.41 0.000978632
11.42 0.000253075
11.43 -0.00029251
11.44 -0.000631357
11.45 -0.000747167
11.46 -0.00062919
11.47 -0.000269954
11.48 0.000290279
11.49 0.00102305
11.5 0.00189177
11.51 0.0028533
11.52 0.00385975
11.53 0.00485603
11.54 0.00578449
11.55 0.00659689
11.56 0.00724869
11.57 0.0077014
11.58 0.00792413
11.59 0.00789148
11.6 0.00756728
11.61 0.00697951
11.62 0.00614016
11.63 0.00507141
11.64 0.00380485
11.65 0.00238035
11.66 0.000840836
11.67 -0.000751977
11.68 -0.00233737
11.69 -0.00385948
11.7 -0.00526405
11.71 -0.0065005
11.72 -0.00752325
11.73 -0.00826272
11.74 -0.00871803
11.75 -0.00887286
11.76 -0.00872155
11.77 -0.00826939
11.78 -0.0075324
11.79 -0.00652463
11.8 -0.00528677
11.81 -0.00387989
11.82 -0.00235518
11.83 -0.000767774
