# xPDFsuite Configuration #
[PDF]
wavelength = 0.1
dataformat = QA
inputfile = BiMsol6_insitu_700 C-00115.xy
backgroundfile = Quartz2mm-dist500-00000.xy
mode = xray
bgscale = 0.0042
composition = Bi2Fe4O9
outputtype = gr
qmaxinst = 24.998449118
qmin = 0.1
qmax = 21.4986662415
rmax = 80.0
rmin = 0.0
rstep = 0.01
rpoly = 0.9

[Misc]
inputdir = C:/Data/Seafile/CPH/Beamtime/Desy Oct 20/In situ data/Processed/BiMsol6/PDF
savedir = C:/Data/Seafile/CPH/Beamtime/Desy Oct 20/In situ data/PDF/BiMsol6
backgroundfilefull = C:/Data/Seafile/CPH/Beamtime/Desy Oct 20/In situ data/Processed/Standard_Empty_Cap/Quartz2mm-dist500-00000.xy

#### start data
#S 1
#L r($\AA$)  G($\AA^{-2}$)
0 0
0.01 0.00633954
0.02 0.0123235
0.03 0.0176477
0.04 0.0220389
0.05 0.0252679
0.06 0.0271599
0.07 0.0275235
0.08 0.0263029
0.09 0.0236385
0.1 0.0196458
0.11 0.0145041
0.12 0.00844884
0.13 0.00176065
0.14 -0.00524494
0.15 -0.0121701
0.16 -0.0186792
0.17 -0.0244574
0.18 -0.0292222
0.19 -0.0327375
0.2 -0.034761
0.21 -0.0351265
0.22 -0.0339301
0.23 -0.0312362
0.24 -0.0271863
0.25 -0.021994
0.26 -0.0159372
0.27 -0.00933147
0.28 -0.00263263
0.29 0.00375392
0.3 0.00943453
0.31 0.014035
0.32 0.017219
0.33 0.0186463
0.34 0.017984
0.35 0.0152833
0.36 0.010542
0.37 0.00386026
0.38 -0.0045578
0.39 -0.0144071
0.4 -0.0253336
0.41 -0.0367293
0.42 -0.0479975
0.43 -0.0585314
0.44 -0.0677035
0.45 -0.0748889
0.46 -0.0794271
0.47 -0.0804681
0.48 -0.0778287
0.49 -0.0711669
0.5 -0.060261
0.51 -0.0450246
0.52 -0.0255161
0.53 -0.0016752
0.54 0.0259495
0.55 0.0566382
0.56 0.0897204
0.57 0.124413
0.58 0.159842
0.59 0.195055
0.6 0.228833
0.61 0.260234
0.62 0.288303
0.63 0.312148
0.64 0.330967
0.65 0.344074
0.66 0.350514
0.67 0.349905
0.68 0.342437
0.69 0.328127
0.7 0.30718
0.71 0.279977
0.72 0.24707
0.73 0.208684
0.74 0.166319
0.75 0.120954
0.76 0.0736276
0.77 0.0254148
0.78 -0.0226011
0.79 -0.069245
0.8 -0.113341
0.81 -0.154096
0.82 -0.190743
0.83 -0.222651
0.84 -0.249346
0.85 -0.270516
0.86 -0.285439
0.87 -0.294691
0.88 -0.298585
0.89 -0.297507
0.9 -0.291974
0.91 -0.282613
0.92 -0.270045
0.93 -0.255068
0.94 -0.238721
0.95 -0.221806
0.96 -0.205096
0.97 -0.189307
0.98 -0.175078
0.99 -0.163189
1 -0.153961
1.01 -0.147618
1.02 -0.144315
1.03 -0.144079
1.04 -0.14682
1.05 -0.152404
1.06 -0.160631
1.07 -0.170861
1.08 -0.182637
1.09 -0.195471
1.1 -0.208857
1.11 -0.222297
1.12 -0.235246
1.13 -0.247249
1.14 -0.25797
1.15 -0.267131
1.16 -0.274537
1.17 -0.280077
1.18 -0.283696
1.19 -0.285319
1.2 -0.285291
1.21 -0.28383
1.22 -0.281205
1.23 -0.277722
1.24 -0.273706
1.25 -0.269496
1.26 -0.265457
1.27 -0.261878
1.28 -0.258999
1.29 -0.257005
1.3 -0.256021
1.31 -0.256112
1.32 -0.257375
1.33 -0.259597
1.34 -0.262628
1.35 -0.266268
1.36 -0.270274
1.37 -0.274377
1.38 -0.278262
1.39 -0.281603
1.4 -0.284146
1.41 -0.285659
1.42 -0.285949
1.43 -0.284879
1.44 -0.282372
1.45 -0.278259
1.46 -0.272772
1.47 -0.266057
1.48 -0.258319
1.49 -0.249813
1.5 -0.240838
1.51 -0.231739
1.52 -0.222922
1.53 -0.214743
1.54 -0.207539
1.55 -0.201613
1.56 -0.197224
1.57 -0.194576
1.58 -0.194002
1.59 -0.195398
1.6 -0.198696
1.61 -0.203778
1.62 -0.210449
1.63 -0.218444
1.64 -0.227456
1.65 -0.237071
1.66 -0.246787
1.67 -0.25616
1.68 -0.264741
1.69 -0.272097
1.7 -0.277823
1.71 -0.281356
1.72 -0.282496
1.73 -0.281092
1.74 -0.277018
1.75 -0.270236
1.76 -0.260793
1.77 -0.248767
1.78 -0.234267
1.79 -0.217832
1.8 -0.199837
1.81 -0.180703
1.82 -0.160883
1.83 -0.140848
1.84 -0.121124
1.85 -0.102209
1.86 -0.0844961
1.87 -0.0683418
1.88 -0.0540373
1.89 -0.0418011
1.9 -0.0318051
1.91 -0.0242989
1.92 -0.0190026
1.93 -0.0157849
1.94 -0.0144416
1.95 -0.0147057
1.96 -0.0162583
1.97 -0.0187795
1.98 -0.021816
1.99 -0.0249404
2 -0.0277826
2.01 -0.0300021
2.02 -0.0313016
2.03 -0.0314346
2.04 -0.0300658
2.05 -0.027251
2.06 -0.0229872
2.07 -0.0173504
2.08 -0.0104928
2.09 -0.00263705
2.1 0.00595152
2.11 0.0148783
2.12 0.0237191
2.13 0.0320701
2.14 0.0395228
2.15 0.04568
2.16 0.0501707
2.17 0.0524155
2.18 0.0523268
2.19 0.0497283
2.2 0.0445039
2.21 0.0366178
2.22 0.0261165
2.23 0.0130252
2.24 -0.00246747
2.25 -0.0198895
2.26 -0.0388855
2.27 -0.0590532
2.28 -0.0799561
2.29 -0.101138
2.3 -0.122076
2.31 -0.14229
2.32 -0.161368
2.33 -0.17894
2.34 -0.194688
2.35 -0.208359
2.36 -0.219686
2.37 -0.228442
2.38 -0.234808
2.39 -0.238848
2.4 -0.240697
2.41 -0.240557
2.42 -0.238682
2.43 -0.235278
2.44 -0.230808
2.45 -0.225671
2.46 -0.220228
2.47 -0.214831
2.48 -0.209811
2.49 -0.205491
2.5 -0.20222
2.51 -0.200124
2.52 -0.199339
2.53 -0.199943
2.54 -0.201956
2.55 -0.205338
2.56 -0.210083
2.57 -0.215977
2.58 -0.222775
2.59 -0.230256
2.6 -0.238177
2.61 -0.246285
2.62 -0.254321
2.63 -0.261984
2.64 -0.269065
2.65 -0.275373
2.66 -0.280748
2.67 -0.285072
2.68 -0.288265
2.69 -0.290214
2.7 -0.290948
2.71 -0.290581
2.72 -0.289201
2.73 -0.286926
2.74 -0.283894
2.75 -0.28026
2.76 -0.276154
2.77 -0.271806
2.78 -0.267369
2.79 -0.262982
2.8 -0.258766
2.81 -0.254815
2.82 -0.251218
2.83 -0.248021
2.84 -0.245204
2.85 -0.242741
2.86 -0.240582
2.87 -0.238654
2.88 -0.236869
2.89 -0.235116
2.9 -0.233272
2.91 -0.231226
2.92 -0.228874
2.93 -0.226124
2.94 -0.222897
2.95 -0.219108
2.96 -0.214699
2.97 -0.2097
2.98 -0.204124
2.99 -0.198005
3 -0.191399
3.01 -0.184377
3.02 -0.177
3.03 -0.1694
3.04 -0.16168
3.05 -0.153939
3.06 -0.146265
3.07 -0.138738
3.08 -0.131429
3.09 -0.124401
3.1 -0.117656
3.11 -0.111189
3.12 -0.104977
3.13 -0.0989725
3.14 -0.0931088
3.15 -0.087299
3.16 -0.0814284
3.17 -0.0753865
3.18 -0.0690604
3.19 -0.0623375
3.2 -0.0551108
3.21 -0.0472681
3.22 -0.0386651
3.23 -0.0292999
3.24 -0.0191313
3.25 -0.00814018
3.26 0.00366972
3.27 0.0162722
3.28 0.0296695
3.29 0.0437592
3.3 0.0584216
3.31 0.0735565
3.32 0.0890554
3.33 0.104806
3.34 0.120695
3.35 0.136606
3.36 0.15243
3.37 0.168082
3.38 0.183493
3.39 0.19861
3.4 0.213401
3.41 0.227828
3.42 0.2419
3.43 0.255656
3.44 0.269133
3.45 0.282375
3.46 0.295435
3.47 0.308365
3.48 0.321216
3.49 0.334046
3.5 0.346888
3.51 0.359764
3.52 0.372676
3.53 0.38561
3.54 0.398528
3.55 0.411362
3.56 0.424033
3.57 0.436444
3.58 0.448481
3.59 0.460017
3.6 0.470917
3.61 0.480946
3.62 0.490019
3.63 0.498011
3.64 0.504799
3.65 0.51027
3.66 0.514332
3.67 0.516849
3.68 0.517713
3.69 0.51702
3.7 0.514778
3.71 0.511021
3.72 0.505807
3.73 0.499217
3.74 0.491241
3.75 0.482105
3.76 0.471971
3.77 0.46098
3.78 0.449279
3.79 0.437013
3.8 0.424316
3.81 0.411322
3.82 0.398185
3.83 0.385013
3.84 0.371894
3.85 0.358904
3.86 0.346098
3.87 0.333538
3.88 0.321236
3.89 0.30919
3.9 0.297395
3.91 0.285835
3.92 0.274488
3.93 0.263331
3.94 0.252344
3.95 0.241485
3.96 0.230731
3.97 0.220065
3.98 0.209477
3.99 0.198964
4 0.18854
4.01 0.178216
4.02 0.168011
4.03 0.157952
4.04 0.148067
4.05 0.13839
4.06 0.128952
4.07 0.119816
4.08 0.110977
4.09 0.102454
4.1 0.0942567
4.11 0.0863878
4.12 0.0788403
4.13 0.0716151
4.14 0.0646818
4.15 0.0579891
4.16 0.0514971
4.17 0.0451617
4.18 0.0389366
4.19 0.0327755
4.2 0.0266323
4.21 0.0204626
4.22 0.0142357
4.23 0.00792991
4.24 0.00153361
4.25 -0.00495349
4.26 -0.0115227
4.27 -0.018147
4.28 -0.024784
4.29 -0.0313875
4.3 -0.0379031
4.31 -0.0442709
4.32 -0.0504277
4.33 -0.056275
4.34 -0.061769
4.35 -0.0668588
4.36 -0.0714973
4.37 -0.0756477
4.38 -0.0792853
4.39 -0.0823795
4.4 -0.0849152
4.41 -0.0869561
4.42 -0.0885392
4.43 -0.0897143
4.44 -0.0905431
4.45 -0.0910967
4.46 -0.0914428
4.47 -0.0916867
4.48 -0.0919162
4.49 -0.0922112
4.5 -0.0926458
4.51 -0.0932849
4.52 -0.0941903
4.53 -0.0954244
4.54 -0.0969835
4.55 -0.0988719
4.56 -0.101078
4.57 -0.103572
4.58 -0.106312
4.59 -0.109252
4.6 -0.112304
4.61 -0.115386
4.62 -0.118414
4.63 -0.121306
4.64 -0.123981
4.65 -0.126357
4.66 -0.128328
4.67 -0.129874
4.68 -0.130955
4.69 -0.131547
4.7 -0.131645
4.71 -0.131256
4.72 -0.13038
4.73 -0.129076
4.74 -0.127425
4.75 -0.125499
4.76 -0.123376
4.77 -0.121142
4.78 -0.118886
4.79 -0.116711
4.8 -0.1147
4.81 -0.112929
4.82 -0.111463
4.83 -0.110354
4.84 -0.109643
4.85 -0.109378
4.86 -0.109571
4.87 -0.110186
4.88 -0.111201
4.89 -0.112579
4.9 -0.114274
4.91 -0.116233
4.92 -0.118408
4.93 -0.120709
4.94 -0.123069
4.95 -0.125426
4.96 -0.127724
4.97 -0.129914
4.98 -0.131944
4.99 -0.133777
5 -0.135406
5.01 -0.136824
5.02 -0.138036
5.03 -0.139054
5.04 -0.139899
5.05 -0.140588
5.06 -0.14117
5.07 -0.141682
5.08 -0.142159
5.09 -0.142633
5.1 -0.143133
5.11 -0.143682
5.12 -0.1443
5.13 -0.144987
5.14 -0.14574
5.15 -0.146545
5.16 -0.147382
5.17 -0.148224
5.18 -0.149034
5.19 -0.14977
5.2 -0.150396
5.21 -0.150873
5.22 -0.151169
5.23 -0.151252
5.24 -0.151092
5.25 -0.150658
5.26 -0.149968
5.27 -0.149028
5.28 -0.147855
5.29 -0.146475
5.3 -0.144921
5.31 -0.14323
5.32 -0.14146
5.33 -0.139667
5.34 -0.137902
5.35 -0.136215
5.36 -0.134648
5.37 -0.133242
5.38 -0.132044
5.39 -0.131051
5.4 -0.130266
5.41 -0.129676
5.42 -0.129258
5.43 -0.128975
5.44 -0.128781
5.45 -0.128607
5.46 -0.128383
5.47 -0.128037
5.48 -0.127498
5.49 -0.126696
5.5 -0.125565
5.51 -0.123999
5.52 -0.121996
5.53 -0.119528
5.54 -0.116583
5.55 -0.113165
5.56 -0.109298
5.57 -0.105002
5.58 -0.100343
5.59 -0.0954213
5.6 -0.0903234
5.61 -0.0851457
5.62 -0.0799894
5.63 -0.0749575
5.64 -0.0701849
5.65 -0.065751
5.66 -0.0617338
5.67 -0.0581983
5.68 -0.055192
5.69 -0.0527422
5.7 -0.0508787
5.71 -0.0495944
5.72 -0.0488029
5.73 -0.0484378
5.74 -0.0484139
5.75 -0.0486297
5.76 -0.0489713
5.77 -0.0493041
5.78 -0.049487
5.79 -0.0493958
5.8 -0.0489133
5.81 -0.0479337
5.82 -0.0463673
5.83 -0.0441208
5.84 -0.041108
5.85 -0.0373701
5.86 -0.0329189
5.87 -0.0277927
5.88 -0.0220554
5.89 -0.0157947
5.9 -0.00909465
5.91 -0.00212199
5.92 0.00496987
5.93 0.0120338
5.94 0.0189218
5.95 0.0254907
5.96 0.0315946
5.97 0.0370611
5.98 0.0418435
5.99 0.0458749
6 0.0491157
6.01 0.0515553
6.02 0.0532133
6.03 0.0540899
6.04 0.0543011
6.05 0.0539863
6.06 0.0532747
6.07 0.0523113
6.08 0.0512518
6.09 0.0502591
6.1 0.0495325
6.11 0.0492106
6.12 0.0494272
6.13 0.0502965
6.14 0.0519079
6.15 0.0543228
6.16 0.0576251
6.17 0.0617985
6.18 0.0667551
6.19 0.07242
6.2 0.0786897
6.21 0.0854347
6.22 0.0925047
6.23 0.0997309
6.24 0.106901
6.25 0.113834
6.26 0.120354
6.27 0.126296
6.28 0.13151
6.29 0.135818
6.3 0.139098
6.31 0.141344
6.32 0.142526
6.33 0.14265
6.34 0.141754
6.35 0.139908
6.36 0.137138
6.37 0.133668
6.38 0.129661
6.39 0.125283
6.4 0.120713
6.41 0.116126
6.42 0.111712
6.43 0.107665
6.44 0.104113
6.45 0.101174
6.46 0.0989407
6.47 0.097475
6.48 0.0968072
6.49 0.0970069
6.5 0.0979726
6.51 0.0996132
6.52 0.101829
6.53 0.104497
6.54 0.107477
6.55 0.110615
6.56 0.113727
6.57 0.116642
6.58 0.119207
6.59 0.12128
6.6 0.122738
6.61 0.123479
6.62 0.123357
6.63 0.122362
6.64 0.120512
6.65 0.117826
6.66 0.114355
6.67 0.110175
6.68 0.105375
6.69 0.100055
6.7 0.0944123
6.71 0.0885934
6.72 0.0827495
6.73 0.0770292
6.74 0.0715736
6.75 0.0665484
6.76 0.0620668
6.77 0.0581949
6.78 0.0549934
6.79 0.0524964
6.8 0.0507119
6.81 0.0496264
6.82 0.0492531
6.83 0.0494443
6.84 0.0501084
6.85 0.0511386
6.86 0.0524176
6.87 0.053822
6.88 0.0552193
6.89 0.0564712
6.9 0.0574687
6.91 0.0581154
6.92 0.0583317
6.93 0.0580572
6.94 0.057253
6.95 0.0558403
6.96 0.0538908
6.97 0.0514389
6.98 0.0485371
6.99 0.0452545
7 0.0416737
7.01 0.0378825
7.02 0.0339931
7.03 0.0301182
7.04 0.0263545
7.05 0.0227909
7.06 0.0195055
7.07 0.0165621
7.08 0.0140514
7.09 0.0119669
7.1 0.0103077
7.11 0.00905874
7.12 0.00818679
7.13 0.00764171
7.14 0.00736592
7.15 0.00727809
7.16 0.00727241
7.17 0.00725909
7.18 0.00714868
7.19 0.0068559
7.2 0.00630328
7.21 0.00538955
7.22 0.00408136
7.23 0.00235642
7.24 0.000202683
7.25 -0.00237256
7.26 -0.00534262
7.27 -0.0086701
7.28 -0.0122993
7.29 -0.0161187
7.3 -0.0200354
7.31 -0.0239486
7.32 -0.0277528
7.33 -0.0313421
7.34 -0.0345799
7.35 -0.0373738
7.36 -0.0396544
7.37 -0.0413548
7.38 -0.0424252
7.39 -0.042835
7.4 -0.042563
7.41 -0.0415692
7.42 -0.0399581
7.43 -0.0377866
7.44 -0.0351292
7.45 -0.0320761
7.46 -0.0287296
7.47 -0.0251974
7.48 -0.0216182
7.49 -0.0181187
7.5 -0.0148148
7.51 -0.0118156
7.52 -0.00921999
7.53 -0.00711722
7.54 -0.00564258
7.55 -0.0047869
7.56 -0.00457775
7.57 -0.00502269
7.58 -0.00610936
7.59 -0.00780619
7.6 -0.0100927
7.61 -0.0128905
7.62 -0.0160854
7.63 -0.0195851
7.64 -0.0232908
7.65 -0.0271004
7.66 -0.0309112
7.67 -0.0346026
7.68 -0.0380844
7.69 -0.0412764
7.7 -0.0441095
7.71 -0.046529
7.72 -0.0484952
7.73 -0.0499618
7.74 -0.0509128
7.75 -0.0513952
7.76 -0.051438
7.77 -0.0510835
7.78 -0.0503861
7.79 -0.0494098
7.8 -0.0482127
7.81 -0.0468972
7.82 -0.0455444
7.83 -0.0442305
7.84 -0.0430276
7.85 -0.0420015
7.86 -0.0412195
7.87 -0.0407452
7.88 -0.0405901
7.89 -0.040772
7.9 -0.0412951
7.91 -0.0421501
7.92 -0.0433142
7.93 -0.0447727
7.94 -0.0464547
7.95 -0.0482944
7.96 -0.0502261
7.97 -0.0521792
7.98 -0.0540798
7.99 -0.0558484
8 -0.0573902
8.01 -0.058651
8.02 -0.0595707
8.03 -0.0600979
8.04 -0.0601913
8.05 -0.0598215
8.06 -0.0589337
8.07 -0.0575457
8.08 -0.0556902
8.09 -0.0533948
8.1 -0.0506999
8.11 -0.047658
8.12 -0.0443292
8.13 -0.0407772
8.14 -0.037111
8.15 -0.0334166
8.16 -0.029782
8.17 -0.0262955
8.18 -0.0230431
8.19 -0.0201326
8.2 -0.0176424
8.21 -0.0156188
8.22 -0.0141132
8.23 -0.013164
8.24 -0.0127958
8.25 -0.01302
8.26 -0.0138929
8.27 -0.0153216
8.28 -0.0172656
8.29 -0.0196704
8.3 -0.0224685
8.31 -0.0255811
8.32 -0.0289272
8.33 -0.0323964
8.34 -0.035875
8.35 -0.0392606
8.36 -0.0424522
8.37 -0.0453527
8.38 -0.0478714
8.39 -0.0498682
8.4 -0.0513155
8.41 -0.0521634
8.42 -0.0523741
8.43 -0.0519256
8.44 -0.0508129
8.45 -0.0490198
8.46 -0.0465653
8.47 -0.0435445
8.48 -0.0400206
8.49 -0.0360688
8.5 -0.0317745
8.51 -0.0272309
8.52 -0.0225315
8.53 -0.0177997
8.54 -0.013137
8.55 -0.00863761
8.56 -0.00438849
8.57 -0.000466965
8.58 0.00304618
8.59 0.00607251
8.6 0.00861327
8.61 0.0106523
8.62 0.0121896
8.63 0.0132414
8.64 0.0138387
8.65 0.0139958
8.66 0.0138021
8.67 0.0133385
8.68 0.0126806
8.69 0.0119073
8.7 0.0110988
8.71 0.0103359
8.72 0.00970888
8.73 0.00927553
8.74 0.0090889
8.75 0.00918983
8.76 0.00960566
8.77 0.0103494
8.78 0.0114429
8.79 0.0128539
8.8 0.0145355
8.81 0.0164423
8.82 0.0185186
8.83 0.020701
8.84 0.0229201
8.85 0.0250924
8.86 0.0271445
8.87 0.0290099
8.88 0.030628
8.89 0.0319474
8.9 0.0329278
8.91 0.0335162
8.92 0.0337038
8.93 0.033514
8.94 0.0329657
8.95 0.0320911
8.96 0.0309353
8.97 0.0295537
8.98 0.0280006
8.99 0.0263724
9 0.0247437
9.01 0.0231883
9.02 0.021777
9.03 0.0205745
9.04 0.0196534
9.05 0.0190665
9.06 0.0188245
9.07 0.0189409
9.08 0.0194137
9.09 0.0202258
9.1 0.0213452
9.11 0.0227476
9.12 0.0243418
9.13 0.0260551
9.14 0.027811
9.15 0.0295293
9.16 0.0311293
9.17 0.0325217
9.18 0.0336171
9.19 0.0343709
9.2 0.0347356
9.21 0.0346776
9.22 0.0341796
9.23 0.0332408
9.24 0.0318405
9.25 0.0300506
9.26 0.0279334
9.27 0.0255561
9.28 0.0229973
9.29 0.0203439
9.3 0.0176915
9.31 0.0151524
9.32 0.0128171
9.33 0.010771
9.34 0.00909032
9.35 0.00783871
9.36 0.00706477
9.37 0.0068443
9.38 0.00716177
9.39 0.0079888
9.4 0.00929437
9.41 0.0110291
9.42 0.013127
9.43 0.0155111
9.44 0.0180901
9.45 0.0207356
9.46 0.0233411
9.47 0.0258003
9.48 0.0280106
9.49 0.0298773
9.5 0.03128
9.51 0.0321556
9.52 0.0324764
9.53 0.032215
9.54 0.0313648
9.55 0.0299404
9.56 0.0279723
9.57 0.025477
9.58 0.0225888
9.59 0.019399
9.6 0.0160105
9.61 0.0125334
9.62 0.00908156
9.63 0.005784
9.64 0.00276371
9.65 0.000109342
9.66 -0.00209509
9.67 -0.0037817
9.68 -0.00490118
9.69 -0.00542453
9.7 -0.0052761
9.71 -0.00454442
9.72 -0.00327133
9.73 -0.00151697
9.74 0.000641506
9.75 0.00311278
9.76 0.00579956
9.77 0.008577
9.78 0.0113202
9.79 0.0139193
9.8 0.0162711
9.81 0.0182823
9.82 0.0198735
9.83 0.0209266
9.84 0.0214412
9.85 0.0214061
9.86 0.0208252
9.87 0.0197236
9.88 0.018147
9.89 0.0161465
9.9 0.0138041
9.91 0.0112475
9.92 0.00858229
9.93 0.00591886
9.94 0.00336841
9.95 0.00103881
9.96 -0.00093082
9.97 -0.00246543
9.98 -0.00350243
9.99 -0.00398914
10 -0.00389269
10.01 -0.00320126
10.02 -0.00190843
10.03 -1.97602e-05
10.04 0.002357
10.05 0.00514748
10.06 0.00826211
10.07 0.0115993
10.08 0.0150487
10.09 0.0184854
10.1 0.0217792
10.11 0.02482
10.12 0.0275052
10.13 0.0297438
10.14 0.0314594
10.15 0.0325816
10.16 0.0330176
10.17 0.032812
10.18 0.0319715
10.19 0.0305234
10.2 0.0285141
10.21 0.0260073
10.22 0.023059
10.23 0.0197856
10.24 0.016308
10.25 0.0127328
10.26 0.00916774
10.27 0.00571764
10.28 0.00248367
10.29 -0.000403715
10.3 -0.00289626
10.31 -0.00493491
10.32 -0.00647701
10.33 -0.00749733
10.34 -0.00798843
10.35 -0.00793094
10.36 -0.00735996
10.37 -0.00635109
10.38 -0.00496328
10.39 -0.00326591
10.4 -0.00133622
10.41 0.000743554
10.42 0.00288692
10.43 0.00499565
10.44 0.00699088
10.45 0.00880069
10.46 0.0103619
10.47 0.0116219
10.48 0.0125215
10.49 0.0130228
10.5 0.0131379
10.51 0.0128674
10.52 0.012224
10.53 0.0112313
10.54 0.00992236
10.55 0.00831497
10.56 0.00648588
10.57 0.00449097
10.58 0.00238361
10.59 0.000216844
10.6 -0.00195825
10.61 -0.00409089
10.62 -0.00612973
10.63 -0.0080433
10.64 -0.00980304
10.65 -0.0113872
10.66 -0.0127811
10.67 -0.0139763
10.68 -0.0149526
10.69 -0.0157275
10.7 -0.0163145
10.71 -0.0167255
10.72 -0.0169741
10.73 -0.0170752
10.74 -0.0170407
10.75 -0.0168795
10.76 -0.0166161
10.77 -0.0162616
10.78 -0.0158253
10.79 -0.0153145
10.8 -0.0147347
10.81 -0.0140854
10.82 -0.013373
10.83 -0.0126035
10.84 -0.0117805
10.85 -0.0109096
10.86 -0.00999773
10.87 -0.00905443
10.88 -0.00809255
10.89 -0.00713152
10.9 -0.00619086
10.91 -0.00529296
10.92 -0.00446253
10.93 -0.00372605
10.94 -0.00312114
10.95 -0.00267636
10.96 -0.00241107
10.97 -0.00234796
10.98 -0.00250575
10.99 -0.00289811
11 -0.00353374
11.01 -0.00443862
11.02 -0.0055762
11.03 -0.00692916
11.04 -0.00847213
11.05 -0.0101719
11.06 -0.0119879
11.07 -0.0138741
11.08 -0.0157697
11.09 -0.0176143
11.1 -0.0193496
11.11 -0.0209175
11.12 -0.0222619
11.13 -0.0233307
11.14 -0.0240373
11.15 -0.0243742
11.16 -0.0243163
11.17 -0.0238469
11.18 -0.0229606
11.19 -0.0216639
11.2 -0.0199584
11.21 -0.0178717
11.22 -0.0154749
11.23 -0.0128216
11.24 -0.00997303
11.25 -0.00699691
11.26 -0.00396514
11.27 -0.000961017
11.28 0.00193531
11.29 0.00465401
11.3 0.00712996
11.31 0.00930523
11.32 0.0111308
11.33 0.0125533
11.34 0.0135241
11.35 0.0140641
11.36 0.0141745
11.37 0.0138686
11.38 0.0131717
11.39 0.0121198
11.4 0.0107357
11.41 0.00909897
11.42 0.00727889
11.43 0.00533942
11.44 0.00334584
11.45 0.00136259
11.46 -0.000545418
11.47 -0.00230569
11.48 -0.00387745
11.49 -0.0052203
11.5 -0.00630301
11.51 -0.00710412
11.52 -0.00761225
11.53 -0.00780403
11.54 -0.00770154
11.55 -0.00733606
11.56 -0.00673476
11.57 -0.00593107
11.58 -0.00496326
11.59 -0.00387186
11.6 -0.00269826
11.61 -0.00149725
11.62 -0.00030982
11.63 0.000826295
11.64 0.00187777
11.65 0.00281659
11.66 0.00361076
11.67 0.00424552
11.68 0.0047206
11.69 0.00503506
11.7 0.00519377
11.71 0.00520683
11.72 0.00508845
11.73 0.00484613
11.74 0.00451531
11.75 0.00411769
11.76 0.00367493
11.77 0.00320769
11.78 0.00273478
11.79 0.00227385
11.8 0.00183978
11.81 0.00144061
11.82 0.00108166
