# xPDFsuite Configuration #
[PDF]
wavelength = 0.1
dataformat = QA
inputfile = BiMsol6_insitu_700 C-00475.xy
backgroundfile = Quartz2mm-dist500-00000.xy
mode = xray
bgscale = 0.0042
composition = Bi2Fe4O9
outputtype = gr
qmaxinst = 24.998449118
qmin = 0.1
qmax = 21.4986662415
rmax = 80.0
rmin = 0.0
rstep = 0.01
rpoly = 0.9

[Misc]
inputdir = C:/Data/Seafile/CPH/Beamtime/Desy Oct 20/In situ data/Processed/BiMsol6/PDF
savedir = C:/Data/Seafile/CPH/Beamtime/Desy Oct 20/In situ data/PDF/BiMsol6
backgroundfilefull = C:/Data/Seafile/CPH/Beamtime/Desy Oct 20/In situ data/Processed/Standard_Empty_Cap/Quartz2mm-dist500-00000.xy

#### start data
#S 1
#L r($\AA$)  G($\AA^{-2}$)
0 0
0.01 0.0062302
0.02 0.0121073
0.03 0.0173292
0.04 0.0216247
0.05 0.0247663
0.06 0.0265806
0.07 0.0268778
0.08 0.0256029
0.09 0.0228957
0.1 0.0188715
0.11 0.0137087
0.12 0.00764145
0.13 0.000949084
0.14 -0.00605439
0.15 -0.012974
0.16 -0.0194764
0.17 -0.0252491
0.18 -0.030012
0.19 -0.0335311
0.2 -0.0355666
0.21 -0.0359548
0.22 -0.0347924
0.23 -0.0321451
0.24 -0.0281552
0.25 -0.0230367
0.26 -0.0170672
0.27 -0.0105635
0.28 -0.00397944
0.29 0.00228095
0.3 0.00782529
0.31 0.0122809
0.32 0.015313
0.33 0.0165828
0.34 0.0157593
0.35 0.0128959
0.36 0.00799172
0.37 0.00114867
0.38 -0.00742778
0.39 -0.0174312
0.4 -0.0285055
0.41 -0.0400416
0.42 -0.0514416
0.43 -0.0620972
0.44 -0.0713791
0.45 -0.0786607
0.46 -0.0832789
0.47 -0.0843792
0.48 -0.0817771
0.49 -0.0751271
0.5 -0.0642038
0.51 -0.0489165
0.52 -0.029319
0.53 -0.00534309
0.54 0.022467
0.55 0.0533941
0.56 0.0867721
0.57 0.121822
0.58 0.157673
0.59 0.193375
0.6 0.227718
0.61 0.259752
0.62 0.28852
0.63 0.313127
0.64 0.332764
0.65 0.346741
0.66 0.354093
0.67 0.354428
0.68 0.34792
0.69 0.334574
0.7 0.314578
0.71 0.288299
0.72 0.256271
0.73 0.218697
0.74 0.177066
0.75 0.132342
0.76 0.0855497
0.77 0.0377542
0.78 -0.00997098
0.79 -0.0564647
0.8 -0.100557
0.81 -0.141449
0.82 -0.178368
0.83 -0.21068
0.84 -0.237901
0.85 -0.259711
0.86 -0.275383
0.87 -0.285466
0.88 -0.290257
0.89 -0.290125
0.9 -0.28557
0.91 -0.2772
0.92 -0.265623
0.93 -0.251618
0.94 -0.236215
0.95 -0.220207
0.96 -0.204361
0.97 -0.189391
0.98 -0.175937
0.99 -0.164781
1 -0.156253
1.01 -0.150592
1.02 -0.147963
1.03 -0.14841
1.04 -0.151856
1.05 -0.158188
1.06 -0.167223
1.07 -0.178332
1.08 -0.191069
1.09 -0.204954
1.1 -0.219485
1.11 -0.234163
1.12 -0.248447
1.13 -0.261864
1.14 -0.274061
1.15 -0.284741
1.16 -0.293682
1.17 -0.300746
1.18 -0.305847
1.19 -0.308866
1.2 -0.31012
1.21 -0.309793
1.22 -0.308123
1.23 -0.305389
1.24 -0.30189
1.25 -0.297929
1.26 -0.293863
1.27 -0.289989
1.28 -0.286551
1.29 -0.283746
1.3 -0.281718
1.31 -0.280561
1.32 -0.28039
1.33 -0.28106
1.34 -0.282467
1.35 -0.284462
1.36 -0.286857
1.37 -0.289435
1.38 -0.291946
1.39 -0.294121
1.4 -0.295741
1.41 -0.296611
1.42 -0.296567
1.43 -0.295492
1.44 -0.293318
1.45 -0.289912
1.46 -0.285453
1.47 -0.280062
1.48 -0.273905
1.49 -0.267194
1.5 -0.260173
1.51 -0.253129
1.52 -0.246393
1.53 -0.240249
1.54 -0.234964
1.55 -0.230776
1.56 -0.227884
1.57 -0.226436
1.58 -0.226682
1.59 -0.228508
1.6 -0.231831
1.61 -0.236524
1.62 -0.242398
1.63 -0.249207
1.64 -0.256661
1.65 -0.264386
1.66 -0.271965
1.67 -0.279019
1.68 -0.285174
1.69 -0.290073
1.7 -0.293392
1.71 -0.294667
1.72 -0.293776
1.73 -0.290634
1.74 -0.285177
1.75 -0.277416
1.76 -0.267443
1.77 -0.255372
1.78 -0.241356
1.79 -0.225887
1.8 -0.209319
1.81 -0.192038
1.82 -0.174453
1.83 -0.156977
1.84 -0.140084
1.85 -0.124177
1.86 -0.109564
1.87 -0.0965201
1.88 -0.085259
1.89 -0.0759255
1.9 -0.0686201
1.91 -0.0635039
1.92 -0.0602744
1.93 -0.0587673
1.94 -0.0587589
1.95 -0.059976
1.96 -0.0621075
1.97 -0.0648325
1.98 -0.067744
1.99 -0.0704784
2 -0.0727205
2.01 -0.0741911
2.02 -0.0746582
2.03 -0.0739422
2.04 -0.0717865
2.05 -0.0683081
2.06 -0.0635585
2.07 -0.0576596
2.08 -0.0507997
2.09 -0.043226
2.1 -0.0352329
2.11 -0.0272137
2.12 -0.0195582
2.13 -0.0126424
2.14 -0.0068357
2.15 -0.00248755
2.16 8.63451e-05
2.17 0.000368644
2.18 -0.00165359
2.19 -0.0060931
2.2 -0.0130056
2.21 -0.0223713
2.22 -0.0340956
2.23 -0.048099
2.24 -0.0641537
2.25 -0.0817957
2.26 -0.100669
2.27 -0.120384
2.28 -0.140527
2.29 -0.16068
2.3 -0.180348
2.31 -0.199132
2.32 -0.216689
2.33 -0.232714
2.34 -0.24696
2.35 -0.25924
2.36 -0.269363
2.37 -0.27718
2.38 -0.282904
2.39 -0.28664
2.4 -0.288552
2.41 -0.288858
2.42 -0.287818
2.43 -0.285658
2.44 -0.282796
2.45 -0.279582
2.46 -0.276335
2.47 -0.273354
2.48 -0.270911
2.49 -0.269265
2.5 -0.268697
2.51 -0.269261
2.52 -0.271033
2.53 -0.274037
2.54 -0.278245
2.55 -0.283579
2.56 -0.289982
2.57 -0.297231
2.58 -0.305088
2.59 -0.313338
2.6 -0.321753
2.61 -0.330106
2.62 -0.338169
2.63 -0.345668
2.64 -0.352461
2.65 -0.3584
2.66 -0.363373
2.67 -0.367303
2.68 -0.370149
2.69 -0.37184
2.7 -0.372431
2.71 -0.372048
2.72 -0.370789
2.73 -0.368768
2.74 -0.366114
2.75 -0.362964
2.76 -0.35943
2.77 -0.355697
2.78 -0.351883
2.79 -0.348091
2.8 -0.344401
2.81 -0.340874
2.82 -0.337559
2.83 -0.334466
2.84 -0.331569
2.85 -0.328829
2.86 -0.326196
2.87 -0.323603
2.88 -0.320976
2.89 -0.318216
2.9 -0.315247
2.91 -0.311999
2.92 -0.308408
2.93 -0.304424
2.94 -0.300008
2.95 -0.295119
2.96 -0.289737
2.97 -0.283908
2.98 -0.277657
2.99 -0.271017
3 -0.264029
3.01 -0.256737
3.02 -0.24916
3.03 -0.241357
3.04 -0.233357
3.05 -0.225168
3.06 -0.216784
3.07 -0.208177
3.08 -0.19929
3.09 -0.190025
3.1 -0.180315
3.11 -0.170052
3.12 -0.159114
3.13 -0.147373
3.14 -0.134693
3.15 -0.120842
3.16 -0.105736
3.17 -0.0893059
3.18 -0.0714654
3.19 -0.0521563
3.2 -0.0313511
3.21 -0.00902753
3.22 0.0148668
3.23 0.040093
3.24 0.0665154
3.25 0.0939606
3.26 0.122219
3.27 0.151051
3.28 0.18019
3.29 0.209296
3.3 0.238055
3.31 0.266161
3.32 0.293309
3.33 0.319211
3.34 0.343574
3.35 0.365954
3.36 0.386314
3.37 0.404488
3.38 0.42035
3.39 0.433818
3.4 0.444856
3.41 0.453324
3.42 0.459305
3.43 0.463031
3.44 0.464636
3.45 0.464283
3.46 0.462157
3.47 0.45846
3.48 0.453271
3.49 0.446981
3.5 0.439801
3.51 0.431931
3.52 0.423555
3.53 0.414838
3.54 0.40592
3.55 0.396933
3.56 0.387976
3.57 0.379111
3.58 0.370379
3.59 0.361801
3.6 0.353378
3.61 0.345114
3.62 0.336974
3.63 0.32893
3.64 0.320959
3.65 0.313042
3.66 0.305169
3.67 0.297345
3.68 0.289589
3.69 0.281934
3.7 0.274431
3.71 0.267147
3.72 0.260162
3.73 0.253569
3.74 0.24753
3.75 0.242132
3.76 0.237475
3.77 0.23367
3.78 0.230819
3.79 0.229017
3.8 0.228378
3.81 0.229042
3.82 0.230946
3.83 0.234108
3.84 0.238523
3.85 0.244162
3.86 0.250976
3.87 0.258977
3.88 0.268009
3.89 0.277925
3.9 0.288603
3.91 0.299912
3.92 0.311715
3.93 0.323879
3.94 0.336266
3.95 0.348712
3.96 0.361093
3.97 0.373297
3.98 0.385219
3.99 0.39677
4 0.407834
4.01 0.41835
4.02 0.428287
4.03 0.437605
4.04 0.446271
4.05 0.454259
4.06 0.46154
4.07 0.468021
4.08 0.473759
4.09 0.478733
4.1 0.482922
4.11 0.486297
4.12 0.488828
4.13 0.490424
4.14 0.491042
4.15 0.490691
4.16 0.489326
4.17 0.486906
4.18 0.48339
4.19 0.47874
4.2 0.472795
4.21 0.465659
4.22 0.457329
4.23 0.447807
4.24 0.437111
4.25 0.425269
4.26 0.412272
4.27 0.398164
4.28 0.38309
4.29 0.367126
4.3 0.350358
4.31 0.332878
4.32 0.314776
4.33 0.296103
4.34 0.277
4.35 0.25756
4.36 0.237855
4.37 0.21795
4.38 0.197898
4.39 0.177736
4.4 0.157492
4.41 0.137186
4.42 0.116821
4.43 0.0963899
4.44 0.0758789
4.45 0.05527
4.46 0.0345307
4.47 0.0136482
4.48 -0.0073871
4.49 -0.0285804
4.5 -0.0499265
4.51 -0.0714078
4.52 -0.0929941
4.53 -0.114634
4.54 -0.136252
4.55 -0.157766
4.56 -0.179082
4.57 -0.200092
4.58 -0.220678
4.59 -0.240663
4.6 -0.259927
4.61 -0.278364
4.62 -0.295856
4.63 -0.312292
4.64 -0.327572
4.65 -0.341597
4.66 -0.354187
4.67 -0.365435
4.68 -0.37533
4.69 -0.383886
4.7 -0.391141
4.71 -0.397156
4.72 -0.401943
4.73 -0.405644
4.74 -0.408439
4.75 -0.410462
4.76 -0.411855
4.77 -0.412765
4.78 -0.413335
4.79 -0.413701
4.8 -0.414026
4.81 -0.414425
4.82 -0.414996
4.83 -0.41582
4.84 -0.416955
4.85 -0.418462
4.86 -0.420357
4.87 -0.42261
4.88 -0.425192
4.89 -0.428059
4.9 -0.431151
4.91 -0.434396
4.92 -0.437715
4.93 -0.441007
4.94 -0.444186
4.95 -0.447169
4.96 -0.449879
4.97 -0.452245
4.98 -0.454187
4.99 -0.455637
5 -0.456591
5.01 -0.457025
5.02 -0.456929
5.03 -0.456301
5.04 -0.455148
5.05 -0.453435
5.06 -0.451226
5.07 -0.44855
5.08 -0.44543
5.09 -0.441884
5.1 -0.437927
5.11 -0.433553
5.12 -0.428746
5.13 -0.42353
5.14 -0.417892
5.15 -0.411809
5.16 -0.405254
5.17 -0.398195
5.18 -0.390549
5.19 -0.382309
5.2 -0.373459
5.21 -0.363973
5.22 -0.353833
5.23 -0.343029
5.24 -0.331547
5.25 -0.319363
5.26 -0.306569
5.27 -0.293213
5.28 -0.279356
5.29 -0.265069
5.3 -0.250439
5.31 -0.235548
5.32 -0.220522
5.33 -0.205478
5.34 -0.190522
5.35 -0.175761
5.36 -0.161293
5.37 -0.147217
5.38 -0.133664
5.39 -0.120656
5.4 -0.108241
5.41 -0.0964528
5.42 -0.0853076
5.43 -0.0748061
5.44 -0.0649739
5.45 -0.0557671
5.46 -0.0471121
5.47 -0.0389588
5.48 -0.0312518
5.49 -0.0239338
5.5 -0.0169487
5.51 -0.0102695
5.52 -0.00381573
5.53 0.00244695
5.54 0.00854129
5.55 0.0144775
5.56 0.0202525
5.57 0.0258388
5.58 0.0312005
5.59 0.0363067
5.6 0.0411069
5.61 0.0455455
5.62 0.0495638
5.63 0.0531041
5.64 0.0560496
5.65 0.0584039
5.66 0.0601389
5.67 0.0612356
5.68 0.0616911
5.69 0.0615199
5.7 0.0607312
5.71 0.0593711
5.72 0.0575561
5.73 0.0553761
5.74 0.0529343
5.75 0.0503442
5.76 0.0477265
5.77 0.0452266
5.78 0.0429726
5.79 0.0410778
5.8 0.0396469
5.81 0.0387702
5.82 0.0385208
5.83 0.0389751
5.84 0.0402004
5.85 0.0421395
5.86 0.044769
5.87 0.0480426
5.88 0.0518931
5.89 0.0562344
5.9 0.0609884
5.91 0.0660048
5.92 0.0711505
5.93 0.0763024
5.94 0.0813411
5.95 0.0861552
5.96 0.0906365
5.97 0.094664
5.98 0.0982128
5.99 0.101248
6 0.103759
6.01 0.105759
6.02 0.107284
6.03 0.108371
6.04 0.109124
6.05 0.109663
6.06 0.110097
6.07 0.110545
6.08 0.111127
6.09 0.111964
6.1 0.113212
6.11 0.114932
6.12 0.117197
6.13 0.120059
6.14 0.123544
6.15 0.127651
6.16 0.132389
6.17 0.137683
6.18 0.143416
6.19 0.149475
6.2 0.155733
6.21 0.162044
6.22 0.16825
6.23 0.174141
6.24 0.179571
6.25 0.184383
6.26 0.188435
6.27 0.191599
6.28 0.193769
6.29 0.194799
6.3 0.194617
6.31 0.193272
6.32 0.19077
6.33 0.187147
6.34 0.182464
6.35 0.176806
6.36 0.170199
6.37 0.162863
6.38 0.154942
6.39 0.146577
6.4 0.13791
6.41 0.129079
6.42 0.120215
6.43 0.111452
6.44 0.102886
6.45 0.0945925
6.46 0.086625
6.47 0.0790163
6.48 0.0717776
6.49 0.0649309
6.5 0.058416
6.51 0.0521774
6.52 0.0461563
6.53 0.0402861
6.54 0.0344966
6.55 0.0287161
6.56 0.0228684
6.57 0.0168997
6.58 0.0107682
6.59 0.00444723
6.6 -0.00207318
6.61 -0.00878512
6.62 -0.0156727
6.63 -0.0226756
6.64 -0.0297245
6.65 -0.0367423
6.66 -0.0436417
6.67 -0.050328
6.68 -0.0566953
6.69 -0.0626023
6.7 -0.0679902
6.71 -0.0727772
6.72 -0.0768938
6.73 -0.0802859
6.74 -0.0829166
6.75 -0.0847112
6.76 -0.0856959
6.77 -0.0859311
6.78 -0.0854601
6.79 -0.0843416
6.8 -0.0826479
6.81 -0.0804576
6.82 -0.0778297
6.83 -0.0749068
6.84 -0.071777
6.85 -0.0685216
6.86 -0.0652116
6.87 -0.0619047
6.88 -0.0586466
6.89 -0.0554605
6.9 -0.0523419
6.91 -0.0492692
6.92 -0.0462018
6.93 -0.0430813
6.94 -0.0398339
6.95 -0.0363383
6.96 -0.032513
6.97 -0.028258
6.98 -0.0234734
6.99 -0.0180641
7 -0.0119445
7.01 -0.00499925
7.02 0.00284691
7.03 0.0115714
7.04 0.0211823
7.05 0.0316639
7.06 0.0429768
7.07 0.055058
7.08 0.0678818
7.09 0.0812676
7.1 0.0950801
7.11 0.109181
7.12 0.123424
7.13 0.137659
7.14 0.151724
7.15 0.165445
7.16 0.178705
7.17 0.191387
7.18 0.203393
7.19 0.214644
7.2 0.225082
7.21 0.234594
7.22 0.243225
7.23 0.251012
7.24 0.257987
7.25 0.2642
7.26 0.269713
7.27 0.274581
7.28 0.278856
7.29 0.282669
7.3 0.28609
7.31 0.28918
7.32 0.291987
7.33 0.294543
7.34 0.296844
7.35 0.298888
7.36 0.300653
7.37 0.302085
7.38 0.303111
7.39 0.303642
7.4 0.303562
7.41 0.302678
7.42 0.30093
7.43 0.298192
7.44 0.294342
7.45 0.289266
7.46 0.282864
7.47 0.274945
7.48 0.265475
7.49 0.254486
7.5 0.241973
7.51 0.227957
7.52 0.212491
7.53 0.195648
7.54 0.177417
7.55 0.158091
7.56 0.137832
7.57 0.116821
7.58 0.0952534
7.59 0.0733357
7.6 0.0512844
7.61 0.0293447
7.62 0.00772932
7.63 -0.0133647
7.64 -0.0337537
7.65 -0.0532711
7.66 -0.0717702
7.67 -0.0889873
7.68 -0.104938
7.69 -0.11956
7.7 -0.132809
7.71 -0.144663
7.72 -0.155125
7.73 -0.164156
7.74 -0.171776
7.75 -0.178144
7.76 -0.183333
7.77 -0.187427
7.78 -0.190517
7.79 -0.192697
7.8 -0.193989
7.81 -0.194566
7.82 -0.194529
7.83 -0.193961
7.84 -0.192939
7.85 -0.19153
7.86 -0.189785
7.87 -0.187748
7.88 -0.185487
7.89 -0.183035
7.9 -0.180417
7.91 -0.177656
7.92 -0.174766
7.93 -0.171748
7.94 -0.168621
7.95 -0.165392
7.96 -0.162067
7.97 -0.158651
7.98 -0.155149
7.99 -0.151565
8 -0.147901
8.01 -0.144173
8.02 -0.14039
8.03 -0.136563
8.04 -0.132704
8.05 -0.128823
8.06 -0.124936
8.07 -0.121057
8.08 -0.117202
8.09 -0.113384
8.1 -0.109619
8.11 -0.105923
8.12 -0.102313
8.13 -0.0988163
8.14 -0.0954418
8.15 -0.0922072
8.16 -0.0891307
8.17 -0.0862311
8.18 -0.0835269
8.19 -0.0810521
8.2 -0.0788225
8.21 -0.0768429
8.22 -0.0751259
8.23 -0.0736811
8.24 -0.0725137
8.25 -0.0716247
8.26 -0.0710366
8.27 -0.0707028
8.28 -0.0706008
8.29 -0.0706995
8.3 -0.0709598
8.31 -0.0713338
8.32 -0.0717652
8.33 -0.0721801
8.34 -0.0725042
8.35 -0.072662
8.36 -0.0725746
8.37 -0.0721626
8.38 -0.0713477
8.39 -0.0699953
8.4 -0.0680799
8.41 -0.0655477
8.42 -0.0623524
8.43 -0.0584612
8.44 -0.0538562
8.45 -0.0485044
8.46 -0.0424084
8.47 -0.035658
8.48 -0.0283093
8.49 -0.0204352
8.5 -0.0121234
8.51 -0.00347516
8.52 0.00540783
8.53 0.0143734
8.54 0.0232926
8.55 0.03204
8.56 0.0404937
8.57 0.0485386
8.58 0.056049
8.59 0.0628936
8.6 0.069046
8.61 0.0744548
8.62 0.0790886
8.63 0.0829373
8.64 0.0860118
8.65 0.0882832
8.66 0.0898537
8.67 0.0908172
8.68 0.0912587
8.69 0.0912732
8.7 0.0909625
8.71 0.090428
8.72 0.0897767
8.73 0.0891223
8.74 0.088549
8.75 0.0881272
8.76 0.0879106
8.77 0.0879341
8.78 0.0882308
8.79 0.08878
8.8 0.089537
8.81 0.0904473
8.82 0.0914383
8.83 0.0924213
8.84 0.0932919
8.85 0.0939048
8.86 0.094157
8.87 0.0939324
8.88 0.0931194
8.89 0.0916152
8.9 0.0893296
8.91 0.086129
8.92 0.0819642
8.93 0.0768524
8.94 0.0707884
8.95 0.0637903
8.96 0.0558987
8.97 0.0471755
8.98 0.0376276
8.99 0.0274527
9 0.016766
9.01 0.00569114
9.02 -0.00564389
9.03 -0.0171109
9.04 -0.0285795
9.05 -0.0399167
9.06 -0.0510229
9.07 -0.0618136
9.08 -0.072222
9.09 -0.0822015
9.1 -0.0917253
9.11 -0.10074
9.12 -0.109308
9.13 -0.11747
9.14 -0.125277
9.15 -0.132792
9.16 -0.140084
9.17 -0.147226
9.18 -0.154299
9.19 -0.161384
9.2 -0.16854
9.21 -0.175813
9.22 -0.183236
9.23 -0.190823
9.24 -0.198581
9.25 -0.206466
9.26 -0.214424
9.27 -0.222385
9.28 -0.23026
9.29 -0.237948
9.3 -0.245322
9.31 -0.25222
9.32 -0.258544
9.33 -0.264172
9.34 -0.268984
9.35 -0.272874
9.36 -0.275747
9.37 -0.27743
9.38 -0.277918
9.39 -0.277219
9.4 -0.275326
9.41 -0.272256
9.42 -0.268051
9.43 -0.262748
9.44 -0.256366
9.45 -0.249106
9.46 -0.241079
9.47 -0.232402
9.48 -0.223196
9.49 -0.213582
9.5 -0.20366
9.51 -0.193558
9.52 -0.183378
9.53 -0.173192
9.54 -0.163055
9.55 -0.153003
9.56 -0.143051
9.57 -0.133202
9.58 -0.123416
9.59 -0.113649
9.6 -0.103842
9.61 -0.0939264
9.62 -0.083827
9.63 -0.0734433
9.64 -0.0626878
9.65 -0.051504
9.66 -0.0398299
9.67 -0.0276156
9.68 -0.0148265
9.69 -0.00144523
9.7 0.0125929
9.71 0.0271942
9.72 0.0423129
9.73 0.057886
9.74 0.0738344
9.75 0.0900651
9.76 0.106477
9.77 0.12294
9.78 0.139328
9.79 0.155523
9.8 0.171412
9.81 0.186889
9.82 0.201859
9.83 0.216168
9.84 0.229799
9.85 0.24271
9.86 0.254871
9.87 0.266268
9.88 0.276902
9.89 0.286761
9.9 0.295853
9.91 0.304277
9.92 0.312079
9.93 0.319312
9.94 0.326028
9.95 0.332276
9.96 0.338064
9.97 0.343461
9.98 0.3485
9.99 0.353193
10 0.357541
10.01 0.361531
10.02 0.365128
10.03 0.368265
10.04 0.370932
10.05 0.373077
10.06 0.374645
10.07 0.375582
10.08 0.375834
10.09 0.375293
10.1 0.373953
10.11 0.371817
10.12 0.368876
10.13 0.36514
10.14 0.360631
10.15 0.355382
10.16 0.349407
10.17 0.342857
10.18 0.335827
10.19 0.328423
10.2 0.320759
10.21 0.312956
10.22 0.305146
10.23 0.297466
10.24 0.290032
10.25 0.282948
10.26 0.276306
10.27 0.270184
10.28 0.264644
10.29 0.259791
10.3 0.255575
10.31 0.251985
10.32 0.248994
10.33 0.246554
10.34 0.2446
10.35 0.243067
10.36 0.241847
10.37 0.240812
10.38 0.239851
10.39 0.238855
10.4 0.237712
10.41 0.236319
10.42 0.234529
10.43 0.232289
10.44 0.229529
10.45 0.226194
10.46 0.222243
10.47 0.21765
10.48 0.212373
10.49 0.206405
10.5 0.199809
10.51 0.192614
10.52 0.184857
10.53 0.17658
10.54 0.167829
10.55 0.158611
10.56 0.149012
10.57 0.139078
10.58 0.128843
10.59 0.118336
10.6 0.107577
10.61 0.0965682
10.62 0.0853062
10.63 0.0738061
10.64 0.0620594
10.65 0.0500538
10.66 0.0377752
10.67 0.0252092
10.68 0.0123153
10.69 -0.00089574
10.7 -0.0144171
10.71 -0.0282423
10.72 -0.042356
10.73 -0.0567335
10.74 -0.0713451
10.75 -0.0861511
10.76 -0.101076
10.77 -0.116057
10.78 -0.131024
10.79 -0.145906
10.8 -0.160626
10.81 -0.175088
10.82 -0.189221
10.83 -0.202971
10.84 -0.216283
10.85 -0.229113
10.86 -0.24143
10.87 -0.253206
10.88 -0.264391
10.89 -0.275053
10.9 -0.285219
10.91 -0.29493
10.92 -0.304234
10.93 -0.313192
10.94 -0.321856
10.95 -0.330309
10.96 -0.338636
10.97 -0.346903
10.98 -0.355168
10.99 -0.363483
11 -0.371888
11.01 -0.38042
11.02 -0.389073
11.03 -0.397836
11.04 -0.406679
11.05 -0.415554
11.06 -0.4244
11.07 -0.433126
11.08 -0.441627
11.09 -0.449807
11.1 -0.457557
11.11 -0.464764
11.12 -0.471319
11.13 -0.477113
11.14 -0.481941
11.15 -0.485797
11.16 -0.488613
11.17 -0.490335
11.18 -0.490922
11.19 -0.490357
11.2 -0.488586
11.21 -0.485606
11.22 -0.481541
11.23 -0.476449
11.24 -0.470402
11.25 -0.463483
11.26 -0.455785
11.27 -0.447348
11.28 -0.438336
11.29 -0.428859
11.3 -0.419008
11.31 -0.408865
11.32 -0.398502
11.33 -0.387974
11.34 -0.377323
11.35 -0.366587
11.36 -0.355774
11.37 -0.344878
11.38 -0.333877
11.39 -0.322738
11.4 -0.311397
11.41 -0.299804
11.42 -0.287906
11.43 -0.275644
11.44 -0.26296
11.45 -0.249798
11.46 -0.236099
11.47 -0.221785
11.48 -0.206883
11.49 -0.191386
11.5 -0.175303
11.51 -0.158657
11.52 -0.141488
11.53 -0.12382
11.54 -0.105749
11.55 -0.0873772
11.56 -0.0687985
11.57 -0.050113
11.58 -0.0314253
11.59 -0.012845
11.6 0.00549088
11.61 0.0234953
11.62 0.0410757
11.63 0.0581486
11.64 0.0746421
11.65 0.0904968
11.66 0.10562
11.67 0.119989
11.68 0.133626
11.69 0.146532
11.7 0.15872
11.71 0.170217
11.72 0.181056
11.73 0.191216
11.74 0.200822
11.75 0.209925
11.76 0.218578
11.77 0.226833
11.78 0.234735
11.79 0.242312
11.8 0.249599
11.81 0.256637
11.82 0.263441
11.83 0.270014
11.84 0.276348
11.85 0.282427
11.86 0.288192
11.87 0.293631
11.88 0.298703
11.89 0.303361
11.9 0.307552
11.91 0.311222
11.92 0.314287
11.93 0.316667
11.94 0.318354
11.95 0.319298
11.96 0.319458
11.97 0.318797
11.98 0.317282
11.99 0.314803
12 0.311408
12.01 0.307107
12.02 0.301896
12.03 0.295778
12.04 0.288762
12.05 0.280833
12.06 0.271967
12.07 0.26226
12.08 0.251737
12.09 0.240424
12.1 0.228351
12.11 0.215547
12.12 0.201987
12.13 0.187747
12.14 0.172881
12.15 0.157427
12.16 0.141422
