# xPDFsuite Configuration #
[PDF]
wavelength = 0.1
dataformat = QA
inputfile = BiMsol6_insitu_700 C-00617.xy
backgroundfile = Quartz2mm-dist500-00000.xy
mode = xray
bgscale = 0.0042
composition = Bi2Fe4O9
outputtype = gr
qmaxinst = 24.998449118
qmin = 0.1
qmax = 21.4986662415
rmax = 80.0
rmin = 0.0
rstep = 0.01
rpoly = 0.9

[Misc]
inputdir = C:/Data/Seafile/CPH/Beamtime/Desy Oct 20/In situ data/Processed/BiMsol6/PDF
savedir = C:/Data/Seafile/CPH/Beamtime/Desy Oct 20/In situ data/PDF/BiMsol6
backgroundfilefull = C:/Data/Seafile/CPH/Beamtime/Desy Oct 20/In situ data/Processed/Standard_Empty_Cap/Quartz2mm-dist500-00000.xy

#### start data
#S 1
#L r($\AA$)  G($\AA^{-2}$)
0 0
0.01 0.00587684
0.02 0.0114171
0.03 0.016333
0.04 0.0203662
0.05 0.0233004
0.06 0.024971
0.07 0.0251985
0.08 0.0239321
0.09 0.0213064
0.1 0.0174331
0.11 0.0124841
0.12 0.00668452
0.13 0.000302073
0.14 -0.00636095
0.15 -0.0129286
0.16 -0.0190831
0.17 -0.0245273
0.18 -0.0289955
0.19 -0.0322668
0.2 -0.0341154
0.21 -0.0343896
0.22 -0.0331865
0.23 -0.030574
0.24 -0.0266929
0.25 -0.0217528
0.26 -0.0160235
0.27 -0.00981467
0.28 -0.0035616
0.29 0.00234823
0.3 0.00753915
0.31 0.0116556
0.32 0.0143798
0.33 0.0153909
0.34 0.0143775
0.35 0.0113997
0.36 0.00646503
0.37 -0.000319944
0.38 -0.00874891
0.39 -0.0185187
0.4 -0.029275
0.41 -0.0404262
0.42 -0.0513932
0.43 -0.061587
0.44 -0.0704003
0.45 -0.0772301
0.46 -0.0814397
0.47 -0.082208
0.48 -0.07937
0.49 -0.072602
0.5 -0.0616979
0.51 -0.0465825
0.52 -0.0273207
0.53 -0.0038626
0.54 0.0232525
0.55 0.053322
0.56 0.0856924
0.57 0.119603
0.58 0.154207
0.59 0.188583
0.6 0.221553
0.61 0.252211
0.62 0.279641
0.63 0.302986
0.64 0.321479
0.65 0.334465
0.66 0.341029
0.67 0.340814
0.68 0.334008
0.69 0.320633
0.7 0.300891
0.71 0.275152
0.72 0.243949
0.73 0.2075
0.74 0.167243
0.75 0.124114
0.76 0.0791018
0.77 0.0332312
0.78 -0.0124693
0.79 -0.0568873
0.8 -0.0989121
0.81 -0.137798
0.82 -0.172824
0.83 -0.203404
0.84 -0.229099
0.85 -0.249626
0.86 -0.264325
0.87 -0.273744
0.88 -0.278193
0.89 -0.278047
0.9 -0.273802
0.91 -0.266056
0.92 -0.255405
0.93 -0.242605
0.94 -0.228625
0.95 -0.214213
0.96 -0.200087
0.97 -0.186907
0.98 -0.175259
0.99 -0.165858
1 -0.158978
1.01 -0.154806
1.02 -0.15346
1.03 -0.154941
1.04 -0.159141
1.05 -0.165907
1.06 -0.17502
1.07 -0.185871
1.08 -0.198018
1.09 -0.210993
1.1 -0.224316
1.11 -0.237519
1.12 -0.250083
1.13 -0.261598
1.14 -0.27177
1.15 -0.280355
1.16 -0.287189
1.17 -0.292192
1.18 -0.295335
1.19 -0.296572
1.2 -0.296254
1.21 -0.294609
1.22 -0.291908
1.23 -0.288455
1.24 -0.284568
1.25 -0.280579
1.26 -0.276836
1.27 -0.273604
1.28 -0.271105
1.29 -0.269504
1.3 -0.268907
1.31 -0.269362
1.32 -0.270943
1.33 -0.273428
1.34 -0.276659
1.35 -0.28043
1.36 -0.284497
1.37 -0.288591
1.38 -0.292401
1.39 -0.295608
1.4 -0.297975
1.41 -0.299281
1.42 -0.299347
1.43 -0.298048
1.44 -0.295319
1.45 -0.291006
1.46 -0.285346
1.47 -0.278492
1.48 -0.270648
1.49 -0.262069
1.5 -0.25305
1.51 -0.243925
1.52 -0.235089
1.53 -0.226882
1.54 -0.219623
1.55 -0.213599
1.56 -0.209053
1.57 -0.206172
1.58 -0.205265
1.59 -0.206222
1.6 -0.208971
1.61 -0.213392
1.62 -0.219292
1.63 -0.226413
1.64 -0.234459
1.65 -0.243034
1.66 -0.25167
1.67 -0.259947
1.68 -0.267452
1.69 -0.273784
1.7 -0.278575
1.71 -0.281312
1.72 -0.281826
1.73 -0.279993
1.74 -0.275714
1.75 -0.268972
1.76 -0.259831
1.77 -0.248385
1.78 -0.234759
1.79 -0.219458
1.8 -0.20284
1.81 -0.185299
1.82 -0.167257
1.83 -0.149145
1.84 -0.131448
1.85 -0.114604
1.86 -0.0989523
1.87 -0.0847962
1.88 -0.0723761
1.89 -0.0618624
1.9 -0.0533796
1.91 -0.0471148
1.92 -0.0427818
1.93 -0.0402302
1.94 -0.0392465
1.95 -0.0395642
1.96 -0.0408756
1.97 -0.0428655
1.98 -0.0451229
1.99 -0.0472758
2 -0.0490039
2.01 -0.0500223
2.02 -0.050094
2.03 -0.0490354
2.04 -0.0465933
2.05 -0.0428794
2.06 -0.0379488
2.07 -0.0319296
2.08 -0.0250195
2.09 -0.0174781
2.1 -0.00962103
2.11 -0.00186192
2.12 0.00539659
2.13 0.0117594
2.14 0.016838
2.15 0.0202651
2.16 0.0217096
2.17 0.0206165
2.18 0.0169871
2.19 0.0107082
2.2 0.00172762
2.21 -0.00992538
2.22 -0.0241399
2.23 -0.0408211
2.24 -0.0597112
2.25 -0.0802975
2.26 -0.102183
2.27 -0.124931
2.28 -0.148083
2.29 -0.171167
2.3 -0.193621
2.31 -0.215001
2.32 -0.234918
2.33 -0.253026
2.34 -0.269039
2.35 -0.282739
2.36 -0.293898
2.37 -0.302333
2.38 -0.308284
2.39 -0.31186
2.4 -0.313243
2.41 -0.312671
2.42 -0.310436
2.43 -0.306786
2.44 -0.302204
2.45 -0.297102
2.46 -0.291852
2.47 -0.28681
2.48 -0.282304
2.49 -0.27865
2.5 -0.276193
2.51 -0.275025
2.52 -0.27526
2.53 -0.276953
2.54 -0.280098
2.55 -0.284631
2.56 -0.290517
2.57 -0.297519
2.58 -0.305372
2.59 -0.313839
2.6 -0.322662
2.61 -0.331578
2.62 -0.340324
2.63 -0.348585
2.64 -0.356165
2.65 -0.362878
2.66 -0.368573
2.67 -0.373138
2.68 -0.376507
2.69 -0.378576
2.7 -0.379388
2.71 -0.379073
2.72 -0.377732
2.73 -0.375492
2.74 -0.372503
2.75 -0.368929
2.76 -0.364912
2.77 -0.360688
2.78 -0.356416
2.79 -0.352242
2.8 -0.348293
2.81 -0.344669
2.82 -0.341473
2.83 -0.338756
2.84 -0.336505
2.85 -0.334703
2.86 -0.333311
2.87 -0.332265
2.88 -0.331487
2.89 -0.330893
2.9 -0.330355
2.91 -0.329768
2.92 -0.329031
2.93 -0.32805
2.94 -0.326743
2.95 -0.325018
2.96 -0.322798
2.97 -0.320077
2.98 -0.316831
2.99 -0.31305
3 -0.308736
3.01 -0.303898
3.02 -0.298502
3.03 -0.292603
3.04 -0.286223
3.05 -0.279364
3.06 -0.272019
3.07 -0.264166
3.08 -0.25575
3.09 -0.246677
3.1 -0.23692
3.11 -0.226388
3.12 -0.21498
3.13 -0.202583
3.14 -0.189079
3.15 -0.174232
3.16 -0.157977
3.17 -0.140251
3.18 -0.120965
3.19 -0.100054
3.2 -0.0774786
3.21 -0.0531961
3.22 -0.027117
3.23 0.000523571
3.24 0.0296128
3.25 0.0599991
3.26 0.0914935
3.27 0.123872
3.28 0.156906
3.29 0.190252
3.3 0.223578
3.31 0.256565
3.32 0.288892
3.33 0.320236
3.34 0.35027
3.35 0.378509
3.36 0.404835
3.37 0.429011
3.38 0.450838
3.39 0.470153
3.4 0.486836
3.41 0.500634
3.42 0.511535
3.43 0.519701
3.44 0.525187
3.45 0.528079
3.46 0.528496
3.47 0.526582
3.48 0.522269
3.49 0.516005
3.5 0.507981
3.51 0.498389
3.52 0.487422
3.53 0.475262
3.54 0.462043
3.55 0.447936
3.56 0.433152
3.57 0.417821
3.58 0.402058
3.59 0.385963
3.6 0.369626
3.61 0.353114
3.62 0.33652
3.63 0.319909
3.64 0.303343
3.65 0.286885
3.66 0.270602
3.67 0.254579
3.68 0.23892
3.69 0.223692
3.7 0.208992
3.71 0.194924
3.72 0.1816
3.73 0.169134
3.74 0.157746
3.75 0.147499
3.76 0.138483
3.77 0.130803
3.78 0.124556
3.79 0.119826
3.8 0.116728
3.81 0.115412
3.82 0.115765
3.83 0.117791
3.84 0.121476
3.85 0.126783
3.86 0.133657
3.87 0.142141
3.88 0.15206
3.89 0.163258
3.9 0.17562
3.91 0.189025
3.92 0.203348
3.93 0.218476
3.94 0.234323
3.95 0.250698
3.96 0.26749
3.97 0.284598
3.98 0.30193
3.99 0.319404
4 0.336945
4.01 0.354478
4.02 0.371944
4.03 0.389289
4.04 0.406465
4.05 0.42342
4.06 0.4401
4.07 0.456408
4.08 0.47231
4.09 0.487735
4.1 0.502601
4.11 0.516819
4.12 0.530288
4.13 0.542842
4.14 0.55435
4.15 0.564739
4.16 0.573886
4.17 0.581669
4.18 0.587967
4.19 0.592668
4.2 0.595468
4.21 0.596459
4.22 0.595579
4.23 0.592779
4.24 0.588034
4.25 0.581339
4.26 0.572618
4.27 0.561888
4.28 0.54935
4.29 0.535092
4.3 0.519221
4.31 0.501861
4.32 0.483144
4.33 0.463104
4.34 0.442009
4.35 0.420023
4.36 0.397288
4.37 0.37394
4.38 0.350103
4.39 0.325879
4.4 0.301366
4.41 0.27667
4.42 0.251852
4.43 0.22696
4.44 0.202025
4.45 0.177068
4.46 0.152098
4.47 0.127117
4.48 0.102123
4.49 0.0771132
4.5 0.0520873
4.51 0.0270511
4.52 0.00201954
4.53 -0.0229758
4.54 -0.0478948
4.55 -0.072683
4.56 -0.0972721
4.57 -0.121581
4.58 -0.145515
4.59 -0.168923
4.6 -0.191698
4.61 -0.21374
4.62 -0.234932
4.63 -0.255157
4.64 -0.274308
4.65 -0.292264
4.66 -0.308825
4.67 -0.324049
4.68 -0.337892
4.69 -0.350331
4.7 -0.361368
4.71 -0.371027
4.72 -0.379267
4.73 -0.386196
4.74 -0.391971
4.75 -0.396702
4.76 -0.400509
4.77 -0.403526
4.78 -0.405886
4.79 -0.407691
4.8 -0.409145
4.81 -0.410378
4.82 -0.411506
4.83 -0.412635
4.84 -0.41385
4.85 -0.415235
4.86 -0.416844
4.87 -0.418693
4.88 -0.420787
4.89 -0.423112
4.9 -0.42564
4.91 -0.428325
4.92 -0.431114
4.93 -0.433924
4.94 -0.436678
4.95 -0.439302
4.96 -0.441719
4.97 -0.443857
4.98 -0.44563
4.99 -0.446962
5 -0.44783
5.01 -0.448197
5.02 -0.448037
5.03 -0.447335
5.04 -0.446085
5.05 -0.444236
5.06 -0.441847
5.07 -0.438944
5.08 -0.435551
5.09 -0.431688
5.1 -0.42738
5.11 -0.422633
5.12 -0.417449
5.13 -0.411874
5.14 -0.405917
5.15 -0.399581
5.16 -0.392864
5.17 -0.385761
5.18 -0.378228
5.19 -0.370281
5.2 -0.361921
5.21 -0.353145
5.22 -0.343953
5.23 -0.334353
5.24 -0.324353
5.25 -0.313958
5.26 -0.303247
5.27 -0.292273
5.28 -0.2811
5.29 -0.269808
5.3 -0.258483
5.31 -0.247236
5.32 -0.236184
5.33 -0.225434
5.34 -0.215096
5.35 -0.205279
5.36 -0.196087
5.37 -0.187626
5.38 -0.180062
5.39 -0.173385
5.4 -0.167642
5.41 -0.162863
5.42 -0.15906
5.43 -0.15622
5.44 -0.154373
5.45 -0.153441
5.46 -0.153304
5.47 -0.153872
5.48 -0.155044
5.49 -0.156705
5.5 -0.158736
5.51 -0.161029
5.52 -0.16342
5.53 -0.165792
5.54 -0.168034
5.55 -0.170047
5.56 -0.171742
5.57 -0.173021
5.58 -0.173818
5.59 -0.174119
5.6 -0.173902
5.61 -0.173161
5.62 -0.171901
5.63 -0.17014
5.64 -0.167855
5.65 -0.165132
5.66 -0.162009
5.67 -0.158524
5.68 -0.15471
5.69 -0.150595
5.7 -0.146188
5.71 -0.141494
5.72 -0.136532
5.73 -0.13129
5.74 -0.125747
5.75 -0.119871
5.76 -0.113624
5.77 -0.106914
5.78 -0.0997192
5.79 -0.0919981
5.8 -0.0837033
5.81 -0.0747934
5.82 -0.0652353
5.83 -0.0549843
5.84 -0.0439979
5.85 -0.0323436
5.86 -0.0200491
5.87 -0.00715906
5.88 0.00626454
5.89 0.0201437
5.9 0.0344074
5.91 0.0489153
5.92 0.0635387
5.93 0.0781543
5.94 0.0926359
5.95 0.106859
5.96 0.120693
5.97 0.133976
5.98 0.146652
5.99 0.158641
6 0.169878
6.01 0.18032
6.02 0.189944
6.03 0.198687
6.04 0.206596
6.05 0.213746
6.06 0.220192
6.07 0.226001
6.08 0.23125
6.09 0.236017
6.1 0.240361
6.11 0.24441
6.12 0.248239
6.13 0.251911
6.14 0.255476
6.15 0.258966
6.16 0.262393
6.17 0.265749
6.18 0.269006
6.19 0.272115
6.2 0.27501
6.21 0.277608
6.22 0.279812
6.23 0.281447
6.24 0.282449
6.25 0.282707
6.26 0.282112
6.27 0.280565
6.28 0.277979
6.29 0.274221
6.3 0.269219
6.31 0.263019
6.32 0.255622
6.33 0.247048
6.34 0.237343
6.35 0.226578
6.36 0.214751
6.37 0.202078
6.38 0.188696
6.39 0.174745
6.4 0.160369
6.41 0.145715
6.42 0.130927
6.43 0.116161
6.44 0.101547
6.45 0.0871932
6.46 0.0731872
6.47 0.059597
6.48 0.0464687
6.49 0.0338712
6.5 0.0217662
6.51 0.0101165
6.52 -0.00112332
6.53 -0.0120148
6.54 -0.0226325
6.55 -0.0330575
6.56 -0.0433856
6.57 -0.0537217
6.58 -0.0641511
6.59 -0.0747509
6.6 -0.0855863
6.61 -0.0967073
6.62 -0.108174
6.63 -0.119982
6.64 -0.132106
6.65 -0.14451
6.66 -0.15714
6.67 -0.169921
6.68 -0.182757
6.69 -0.195523
6.7 -0.208092
6.71 -0.220335
6.72 -0.232119
6.73 -0.24331
6.74 -0.253778
6.75 -0.263331
6.76 -0.271868
6.77 -0.27933
6.78 -0.28564
6.79 -0.290733
6.8 -0.294567
6.81 -0.297103
6.82 -0.298204
6.83 -0.298022
6.84 -0.296582
6.85 -0.293923
6.86 -0.290091
6.87 -0.285141
6.88 -0.279067
6.89 -0.271943
6.9 -0.263883
6.91 -0.254937
6.92 -0.245148
6.93 -0.234551
6.94 -0.22317
6.95 -0.210932
6.96 -0.197927
6.97 -0.184149
6.98 -0.169582
6.99 -0.154204
7 -0.137988
7.01 -0.120863
7.02 -0.102781
7.03 -0.0837788
7.04 -0.0638392
7.05 -0.0429559
7.06 -0.0211333
7.07 0.0016107
7.08 0.0253304
7.09 0.0498897
7.1 0.0752074
7.11 0.101198
7.12 0.127763
7.13 0.154785
7.14 0.182147
7.15 0.209697
7.16 0.237264
7.17 0.264696
7.18 0.291842
7.19 0.318547
7.2 0.344665
7.21 0.369971
7.22 0.39437
7.23 0.417759
7.24 0.440031
7.25 0.461093
7.26 0.480867
7.27 0.499247
7.28 0.516093
7.29 0.531492
7.3 0.545422
7.31 0.557871
7.32 0.568836
7.33 0.578319
7.34 0.586209
7.35 0.592586
7.36 0.597513
7.37 0.600999
7.38 0.603052
7.39 0.603675
7.4 0.602844
7.41 0.600431
7.42 0.59657
7.43 0.591245
7.44 0.584439
7.45 0.576134
7.46 0.566312
7.47 0.554847
7.48 0.541762
7.49 0.527127
7.5 0.510946
7.51 0.493236
7.52 0.474027
7.53 0.453354
7.54 0.431138
7.55 0.407621
7.56 0.3829
7.57 0.35709
7.58 0.330322
7.59 0.302743
7.6 0.274486
7.61 0.245754
7.62 0.216769
7.63 0.187724
7.64 0.158815
7.65 0.13024
7.66 0.102196
7.67 0.0749743
7.68 0.0486967
7.69 0.0235274
7.7 -0.000380093
7.71 -0.0228891
7.72 -0.043882
7.73 -0.0631808
7.74 -0.0806664
7.75 -0.0964056
7.76 -0.110375
7.77 -0.122575
7.78 -0.133028
7.79 -0.141775
7.8 -0.148723
7.81 -0.154101
7.82 -0.158036
7.83 -0.160638
7.84 -0.162028
7.85 -0.162334
7.86 -0.161657
7.87 -0.160112
7.88 -0.157903
7.89 -0.155153
7.9 -0.151981
7.91 -0.148493
7.92 -0.144786
7.93 -0.140937
7.94 -0.137032
7.95 -0.133124
7.96 -0.129252
7.97 -0.125439
7.98 -0.121695
7.99 -0.118019
8 -0.114398
8.01 -0.110801
8.02 -0.107197
8.03 -0.103549
8.04 -0.0998196
8.05 -0.0959683
8.06 -0.0919432
8.07 -0.087714
8.08 -0.0832615
8.09 -0.0785682
8.1 -0.073626
8.11 -0.0684368
8.12 -0.0630104
8.13 -0.0573566
8.14 -0.0515367
8.15 -0.0455982
8.16 -0.0395978
8.17 -0.0335993
8.18 -0.0276726
8.19 -0.0219063
8.2 -0.016384
8.21 -0.0111718
8.22 -0.0063399
8.23 -0.00195252
8.24 0.00193419
8.25 0.00527209
8.26 0.0079601
8.27 0.0100438
8.28 0.0115196
8.29 0.0123988
8.3 0.0127068
8.31 0.012483
8.32 0.0117563
8.33 0.0106003
8.34 0.00911893
8.35 0.00739446
8.36 0.00551313
8.37 0.00356262
8.38 0.0016292
8.39 -0.000185989
8.4 -0.00181231
8.41 -0.00318834
8.42 -0.00426429
8.43 -0.00500466
8.44 -0.00538962
8.45 -0.00540038
8.46 -0.00504615
8.47 -0.00438783
8.48 -0.00347636
8.49 -0.00237707
8.5 -0.00116778
8.51 6.34769e-05
8.52 0.0012038
8.53 0.00214718
8.54 0.0027937
8.55 0.00304448
8.56 0.00280636
8.57 0.00199488
8.58 0.000512651
8.59 -0.00174004
8.6 -0.0047476
8.61 -0.00853161
8.62 -0.0130956
8.63 -0.0184247
8.64 -0.0244865
8.65 -0.0312855
8.66 -0.0387074
8.67 -0.0466511
8.68 -0.0550257
8.69 -0.0637332
8.7 -0.0726714
8.71 -0.0817374
8.72 -0.0908195
8.73 -0.0998133
8.74 -0.108633
8.75 -0.117205
8.76 -0.125467
8.77 -0.133371
8.78 -0.140853
8.79 -0.147911
8.8 -0.154562
8.81 -0.160823
8.82 -0.166722
8.83 -0.172299
8.84 -0.177599
8.85 -0.182661
8.86 -0.187572
8.87 -0.192388
8.88 -0.197163
8.89 -0.201945
8.9 -0.206775
8.91 -0.21169
8.92 -0.216708
8.93 -0.221829
8.94 -0.227041
8.95 -0.232323
8.96 -0.237639
8.97 -0.242943
8.98 -0.248163
8.99 -0.253238
9 -0.258096
9.01 -0.262668
9.02 -0.266882
9.03 -0.27067
9.04 -0.273942
9.05 -0.276633
9.06 -0.278735
9.07 -0.280219
9.08 -0.281074
9.09 -0.281297
9.1 -0.280905
9.11 -0.279867
9.12 -0.278288
9.13 -0.27623
9.14 -0.273758
9.15 -0.270944
9.16 -0.267866
9.17 -0.264597
9.18 -0.261224
9.19 -0.257835
9.2 -0.254497
9.21 -0.251271
9.22 -0.248206
9.23 -0.245341
9.24 -0.242727
9.25 -0.24036
9.26 -0.238233
9.27 -0.236332
9.28 -0.234632
9.29 -0.233102
9.3 -0.2317
9.31 -0.230379
9.32 -0.229078
9.33 -0.227745
9.34 -0.226332
9.35 -0.224794
9.36 -0.223091
9.37 -0.221172
9.38 -0.219023
9.39 -0.216639
9.4 -0.214016
9.41 -0.211163
9.42 -0.208096
9.43 -0.204834
9.44 -0.201401
9.45 -0.197849
9.46 -0.194216
9.47 -0.19054
9.48 -0.186855
9.49 -0.183192
9.5 -0.17958
9.51 -0.176035
9.52 -0.172557
9.53 -0.169139
9.54 -0.165763
9.55 -0.162398
9.56 -0.159001
9.57 -0.155504
9.58 -0.151847
9.59 -0.14796
9.6 -0.143765
9.61 -0.139183
9.62 -0.134135
9.63 -0.128502
9.64 -0.122207
9.65 -0.115213
9.66 -0.107466
9.67 -0.0989217
9.68 -0.0895488
9.69 -0.0793294
9.7 -0.0681638
9.71 -0.0561641
9.72 -0.0433614
9.73 -0.0297987
9.74 -0.0155313
9.75 -0.000625011
9.76 0.0148701
9.77 0.0308662
9.78 0.0472403
9.79 0.0639036
9.8 0.0807681
9.81 0.097748
9.82 0.114762
9.83 0.131722
9.84 0.148558
9.85 0.165213
9.86 0.181636
9.87 0.197786
9.88 0.213631
9.89 0.22913
9.9 0.244251
9.91 0.259007
9.92 0.273389
9.93 0.287392
9.94 0.30101
9.95 0.314236
9.96 0.327023
9.97 0.339386
9.98 0.351316
9.99 0.362792
10 0.373787
10.01 0.38427
10.02 0.394186
10.03 0.403457
10.04 0.412089
10.05 0.42004
10.06 0.427268
10.07 0.433735
10.08 0.439407
10.09 0.444188
10.1 0.448096
10.11 0.451153
10.12 0.453364
10.13 0.454743
10.14 0.45532
10.15 0.455121
10.16 0.454151
10.17 0.452551
10.18 0.450396
10.19 0.447772
10.2 0.444769
10.21 0.441483
10.22 0.438003
10.23 0.434443
10.24 0.430903
10.25 0.427468
10.26 0.424215
10.27 0.421208
10.28 0.418505
10.29 0.416182
10.3 0.414227
10.31 0.412644
10.32 0.411423
10.33 0.410537
10.34 0.409947
10.35 0.409607
10.36 0.40944
10.37 0.409354
10.38 0.409262
10.39 0.409074
10.4 0.408696
10.41 0.408032
10.42 0.406936
10.43 0.405354
10.44 0.403205
10.45 0.400416
10.46 0.396923
10.47 0.392672
10.48 0.387582
10.49 0.381602
10.5 0.374772
10.51 0.367089
10.52 0.358559
10.53 0.3492
10.54 0.339037
10.55 0.32803
10.56 0.316294
10.57 0.303887
10.58 0.29086
10.59 0.277268
10.6 0.263165
10.61 0.248593
10.62 0.233596
10.63 0.218264
10.64 0.202646
10.65 0.186791
10.66 0.170745
10.67 0.154549
10.68 0.138235
10.69 0.121852
10.7 0.105435
10.71 0.0890129
10.72 0.072615
10.73 0.0562668
10.74 0.0399948
10.75 0.0238299
10.76 0.0077851
10.77 -0.00812145
10.78 -0.0238732
10.79 -0.0394555
10.8 -0.0548556
10.81 -0.0700471
10.82 -0.0850292
10.83 -0.0998042
10.84 -0.11437
10.85 -0.128727
10.86 -0.142878
10.87 -0.156826
10.88 -0.170563
10.89 -0.184121
10.9 -0.197512
10.91 -0.210748
10.92 -0.223843
10.93 -0.236811
10.94 -0.249654
10.95 -0.262387
10.96 -0.27502
10.97 -0.287557
10.98 -0.299994
10.99 -0.312326
11 -0.324538
11.01 -0.336595
11.02 -0.348484
11.03 -0.360174
11.04 -0.371628
11.05 -0.382804
11.06 -0.393655
11.07 -0.404106
11.08 -0.414095
11.09 -0.42359
11.1 -0.432537
11.11 -0.440883
11.12 -0.448575
11.13 -0.455565
11.14 -0.461724
11.15 -0.467089
11.16 -0.471632
11.17 -0.475333
11.18 -0.478174
11.19 -0.480147
11.2 -0.481211
11.21 -0.481354
11.22 -0.480651
11.23 -0.479124
11.24 -0.476797
11.25 -0.473702
11.26 -0.469871
11.27 -0.465274
11.28 -0.460007
11.29 -0.45412
11.3 -0.447646
11.31 -0.440619
11.32 -0.433067
11.33 -0.425
11.34 -0.41642
11.35 -0.407385
11.36 -0.397908
11.37 -0.387999
11.38 -0.377662
11.39 -0.366903
11.4 -0.355684
11.41 -0.344032
11.42 -0.331959
11.43 -0.319467
11.44 -0.306559
11.45 -0.293241
11.46 -0.279514
11.47 -0.265369
11.48 -0.250863
11.49 -0.236024
11.5 -0.220883
11.51 -0.205479
11.52 -0.189856
11.53 -0.174053
11.54 -0.158141
11.55 -0.142183
11.56 -0.126242
11.57 -0.110383
11.58 -0.0946716
11.59 -0.0791765
11.6 -0.063996
11.61 -0.0491683
11.62 -0.0347523
11.63 -0.0208025
11.64 -0.00736842
11.65 0.00550608
11.66 0.0177417
11.67 0.0293129
11.68 0.0402282
11.69 0.0504723
11.7 0.0600368
11.71 0.0689201
11.72 0.0771254
11.73 0.08459
11.74 0.091409
11.75 0.0976045
11.76 0.103202
11.77 0.108232
11.78 0.112725
11.79 0.11669
11.8 0.120163
11.81 0.123212
11.82 0.125871
11.83 0.128176
11.84 0.130159
11.85 0.131851
11.86 0.133258
11.87 0.134433
11.88 0.135402
11.89 0.136184
11.9 0.136795
11.91 0.137248
11.92 0.137545
11.93 0.137684
11.94 0.137676
11.95 0.137513
11.96 0.137186
11.97 0.136679
11.98 0.135972
11.99 0.135016
12 0.133795
12.01 0.13228
12.02 0.130431
12.03 0.128209
12.04 0.125568
12.05 0.122445
12.06 0.11876
12.07 0.114503
12.08 0.109626
12.09 0.104083
12.1 0.0978298
12.11 0.0908256
12.12 0.0829652
12.13 0.0742592
12.14 0.0647122
12.15 0.054312
12.16 0.0430561
12.17 0.0309519
