# xPDFsuite Configuration #
[PDF]
wavelength = 0.1
dataformat = QA
inputfile = BiMsol6_insitu_700 C-00095.xy
backgroundfile = Quartz2mm-dist500-00000.xy
mode = xray
bgscale = 0.0042
composition = Bi2Fe4O9
outputtype = gr
qmaxinst = 24.998449118
qmin = 0.1
qmax = 21.4986662415
rmax = 80.0
rmin = 0.0
rstep = 0.01
rpoly = 0.9

[Misc]
inputdir = C:/Data/Seafile/CPH/Beamtime/Desy Oct 20/In situ data/Processed/BiMsol6/PDF
savedir = C:/Data/Seafile/CPH/Beamtime/Desy Oct 20/In situ data/PDF/BiMsol6
backgroundfilefull = C:/Data/Seafile/CPH/Beamtime/Desy Oct 20/In situ data/Processed/Standard_Empty_Cap/Quartz2mm-dist500-00000.xy

#### start data
#S 1
#L r($\AA$)  G($\AA^{-2}$)
0 0
0.01 0.00651719
0.02 0.0126702
0.03 0.0181472
0.04 0.0226684
0.05 0.0259988
0.06 0.0279589
0.07 0.0283524
0.08 0.0271212
0.09 0.0244087
0.1 0.0203326
0.11 0.0150758
0.12 0.00887865
0.13 0.00202813
0.14 -0.00515371
0.15 -0.0122591
0.16 -0.0189442
0.17 -0.0248862
0.18 -0.0297952
0.19 -0.0334284
0.2 -0.0355362
0.21 -0.0359469
0.22 -0.0347565
0.23 -0.032029
0.24 -0.027907
0.25 -0.0226071
0.26 -0.0164115
0.27 -0.00964012
0.28 -0.00275865
0.29 0.00381866
0.3 0.00968945
0.31 0.0144707
0.32 0.0178174
0.33 0.0193802
0.34 0.0188167
0.35 0.0161752
0.36 0.0114497
0.37 0.0047386
0.38 -0.00375397
0.39 -0.0137209
0.4 -0.0248067
0.41 -0.0363945
0.42 -0.0478785
0.43 -0.0586426
0.44 -0.0680491
0.45 -0.0754624
0.46 -0.0802107
0.47 -0.0814298
0.48 -0.0789291
0.49 -0.0723582
0.5 -0.0614888
0.51 -0.04623
0.52 -0.0266374
0.53 -0.00264652
0.54 0.0251895
0.55 0.0561429
0.56 0.0895357
0.57 0.124575
0.58 0.160377
0.59 0.195976
0.6 0.230138
0.61 0.261906
0.62 0.290314
0.63 0.314456
0.64 0.333521
0.65 0.346812
0.66 0.353364
0.67 0.352791
0.68 0.345285
0.69 0.330867
0.7 0.309745
0.71 0.282307
0.72 0.249115
0.73 0.210405
0.74 0.167693
0.75 0.121974
0.76 0.074301
0.77 0.025763
0.78 -0.0225432
0.79 -0.069428
0.8 -0.113704
0.81 -0.154575
0.82 -0.191271
0.83 -0.223162
0.84 -0.249775
0.85 -0.270808
0.86 -0.285545
0.87 -0.294578
0.88 -0.29824
0.89 -0.296933
0.9 -0.291194
0.91 -0.281666
0.92 -0.268993
0.93 -0.253994
0.94 -0.237718
0.95 -0.220977
0.96 -0.204551
0.97 -0.189157
0.98 -0.175435
0.99 -0.164164
1 -0.155645
1.01 -0.150082
1.02 -0.147607
1.03 -0.148222
1.04 -0.151809
1.05 -0.158202
1.06 -0.167161
1.07 -0.178018
1.08 -0.190289
1.09 -0.203457
1.1 -0.216994
1.11 -0.230385
1.12 -0.243055
1.13 -0.254552
1.14 -0.264554
1.15 -0.272792
1.16 -0.279088
1.17 -0.283358
1.18 -0.285575
1.19 -0.2857
1.2 -0.284133
1.21 -0.281138
1.22 -0.277033
1.23 -0.27217
1.24 -0.266921
1.25 -0.261687
1.26 -0.256871
1.27 -0.252785
1.28 -0.249692
1.29 -0.247794
1.3 -0.247223
1.31 -0.248042
1.32 -0.250362
1.33 -0.253912
1.34 -0.258506
1.35 -0.263902
1.36 -0.269806
1.37 -0.275895
1.38 -0.281792
1.39 -0.287097
1.4 -0.291497
1.41 -0.294697
1.42 -0.296452
1.43 -0.296573
1.44 -0.294943
1.45 -0.291319
1.46 -0.285947
1.47 -0.278969
1.48 -0.270592
1.49 -0.261087
1.5 -0.250782
1.51 -0.240047
1.52 -0.229338
1.53 -0.219092
1.54 -0.209707
1.55 -0.201555
1.56 -0.194967
1.57 -0.190216
1.58 -0.187725
1.59 -0.187446
1.6 -0.189361
1.61 -0.193398
1.62 -0.199399
1.63 -0.207121
1.64 -0.216284
1.65 -0.226488
1.66 -0.237181
1.67 -0.247887
1.68 -0.258119
1.69 -0.267391
1.7 -0.275241
1.71 -0.281045
1.72 -0.284516
1.73 -0.285427
1.74 -0.283579
1.75 -0.278866
1.76 -0.271272
1.77 -0.26081
1.78 -0.247513
1.79 -0.231913
1.8 -0.214361
1.81 -0.195268
1.82 -0.175087
1.83 -0.154302
1.84 -0.133439
1.85 -0.113052
1.86 -0.0935957
1.87 -0.0754801
1.88 -0.0590563
1.89 -0.0446059
1.9 -0.0323659
1.91 -0.0226602
1.92 -0.0152707
1.93 -0.0101208
1.94 -0.00705455
1.95 -0.00584464
1.96 -0.00620333
1.97 -0.00785258
1.98 -0.0103445
1.99 -0.0132342
2 -0.0161397
2.01 -0.0186995
2.02 -0.0205875
2.03 -0.021522
2.04 -0.0211408
2.05 -0.0194313
2.06 -0.0163442
2.07 -0.0119097
2.08 -0.00623561
2.09 0.000495626
2.1 0.00806193
2.11 0.0161027
2.12 0.024209
2.13 0.0319909
2.14 0.0390462
2.15 0.0449768
2.16 0.0494037
2.17 0.0517469
2.18 0.0518811
2.19 0.0496035
2.2 0.0447699
2.21 0.037315
2.22 0.0272555
2.23 0.0145861
2.24 -0.000535624
2.25 -0.0176575
2.26 -0.0364415
2.27 -0.0564971
2.28 -0.0773943
2.29 -0.0986778
2.3 -0.119828
2.31 -0.140345
2.32 -0.159799
2.33 -0.177799
2.34 -0.194006
2.35 -0.208141
2.36 -0.219911
2.37 -0.229062
2.38 -0.235751
2.39 -0.240025
2.4 -0.242004
2.41 -0.241877
2.42 -0.239894
2.43 -0.236249
2.44 -0.231417
2.45 -0.225811
2.46 -0.219808
2.47 -0.213778
2.48 -0.208075
2.49 -0.203043
2.5 -0.199061
2.51 -0.19628
2.52 -0.194861
2.53 -0.194902
2.54 -0.196441
2.55 -0.199452
2.56 -0.203946
2.57 -0.209712
2.58 -0.216498
2.59 -0.224076
2.6 -0.232193
2.61 -0.240581
2.62 -0.248964
2.63 -0.257024
2.64 -0.264522
2.65 -0.271246
2.66 -0.277016
2.67 -0.281693
2.68 -0.285183
2.69 -0.287354
2.7 -0.288226
2.71 -0.287915
2.72 -0.286511
2.73 -0.284137
2.74 -0.280943
2.75 -0.277096
2.76 -0.272746
2.77 -0.268145
2.78 -0.263469
2.79 -0.258878
2.8 -0.254513
2.81 -0.250486
2.82 -0.246908
2.83 -0.243835
2.84 -0.241247
2.85 -0.23912
2.86 -0.237397
2.87 -0.235995
2.88 -0.234808
2.89 -0.233712
2.9 -0.232547
2.91 -0.231178
2.92 -0.229471
2.93 -0.227304
2.94 -0.224573
2.95 -0.22116
2.96 -0.216978
2.97 -0.212053
2.98 -0.206386
2.99 -0.20001
3 -0.192985
3.01 -0.185392
3.02 -0.177303
3.03 -0.168887
3.04 -0.160283
3.05 -0.151625
3.06 -0.143043
3.07 -0.134658
3.08 -0.126588
3.09 -0.11895
3.1 -0.11177
3.11 -0.10508
3.12 -0.098877
3.13 -0.0931334
3.14 -0.0877915
3.15 -0.0827853
3.16 -0.077974
3.17 -0.0732174
3.18 -0.0683725
3.19 -0.0632889
3.2 -0.0578151
3.21 -0.0517893
3.22 -0.0450075
3.23 -0.0374076
3.24 -0.0288942
3.25 -0.0193968
3.26 -0.00887236
3.27 0.00269324
3.28 0.0153571
3.29 0.0290329
3.3 0.0435988
3.31 0.0589538
3.32 0.074978
3.33 0.091537
3.34 0.108489
3.35 0.125691
3.36 0.142959
3.37 0.160154
3.38 0.177152
3.39 0.193843
3.4 0.210137
3.41 0.225937
3.42 0.241197
3.43 0.255932
3.44 0.270148
3.45 0.283875
3.46 0.297161
3.47 0.310064
3.48 0.322629
3.49 0.334972
3.5 0.34717
3.51 0.359289
3.52 0.371386
3.53 0.383503
3.54 0.395667
3.55 0.407874
3.56 0.420093
3.57 0.432272
3.58 0.444331
3.59 0.456172
3.6 0.467671
3.61 0.478625
3.62 0.488907
3.63 0.49836
3.64 0.506821
3.65 0.514127
3.66 0.520125
3.67 0.524611
3.68 0.527393
3.69 0.528492
3.7 0.527844
3.71 0.525414
3.72 0.521201
3.73 0.515231
3.74 0.507418
3.75 0.497987
3.76 0.487104
3.77 0.474921
3.78 0.461607
3.79 0.447349
3.8 0.432327
3.81 0.41674
3.82 0.400849
3.83 0.38485
3.84 0.368924
3.85 0.35324
3.86 0.337945
3.87 0.323218
3.88 0.309143
3.89 0.295772
3.9 0.283148
3.91 0.271288
3.92 0.260184
3.93 0.249821
3.94 0.240195
3.95 0.231164
3.96 0.222645
3.97 0.214546
3.98 0.206771
3.99 0.199221
4 0.191802
4.01 0.184406
4.02 0.176947
4.03 0.169354
4.04 0.16157
4.05 0.153551
4.06 0.145264
4.07 0.136665
4.08 0.127787
4.09 0.118646
4.1 0.109269
4.11 0.0996942
4.12 0.0899693
4.13 0.0801455
4.14 0.0702912
4.15 0.0604732
4.16 0.0507538
4.17 0.0411937
4.18 0.0318513
4.19 0.0227807
4.2 0.0140719
4.21 0.00573552
4.22 -0.00219525
4.23 -0.00969317
4.24 -0.0167381
4.25 -0.023317
4.26 -0.0294004
4.27 -0.0349807
4.28 -0.040098
4.29 -0.0447656
4.3 -0.0490014
4.31 -0.0528281
4.32 -0.0562716
4.33 -0.0593285
4.34 -0.0620655
4.35 -0.0645226
4.36 -0.0667362
4.37 -0.0687436
4.38 -0.0705831
4.39 -0.0722895
4.4 -0.0739025
4.41 -0.0754689
4.42 -0.0770241
4.43 -0.0786015
4.44 -0.0802319
4.45 -0.081943
4.46 -0.0837698
4.47 -0.0857261
4.48 -0.0878222
4.49 -0.0900652
4.5 -0.0924565
4.51 -0.0949915
4.52 -0.0976623
4.53 -0.100456
4.54 -0.103336
4.55 -0.106273
4.56 -0.109231
4.57 -0.112173
4.58 -0.115057
4.59 -0.117829
4.6 -0.120442
4.61 -0.122859
4.62 -0.125039
4.63 -0.126945
4.64 -0.128547
4.65 -0.129812
4.66 -0.13069
4.67 -0.131207
4.68 -0.13136
4.69 -0.131158
4.7 -0.130616
4.71 -0.129759
4.72 -0.1286
4.73 -0.127191
4.74 -0.125589
4.75 -0.123845
4.76 -0.12201
4.77 -0.120137
4.78 -0.11828
4.79 -0.116505
4.8 -0.114855
4.81 -0.113375
4.82 -0.112103
4.83 -0.11107
4.84 -0.110302
4.85 -0.109833
4.86 -0.109675
4.87 -0.109813
4.88 -0.11024
4.89 -0.110946
4.9 -0.111915
4.91 -0.113126
4.92 -0.114574
4.93 -0.116208
4.94 -0.117998
4.95 -0.119915
4.96 -0.121931
4.97 -0.124019
4.98 -0.126154
4.99 -0.128312
5 -0.130469
5.01 -0.132609
5.02 -0.134715
5.03 -0.136775
5.04 -0.138777
5.05 -0.140702
5.06 -0.142547
5.07 -0.144301
5.08 -0.145955
5.09 -0.147498
5.1 -0.148919
5.11 -0.150199
5.12 -0.151316
5.13 -0.152267
5.14 -0.153037
5.15 -0.153612
5.16 -0.153979
5.17 -0.154126
5.18 -0.154022
5.19 -0.153677
5.2 -0.153095
5.21 -0.152281
5.22 -0.151244
5.23 -0.149999
5.24 -0.148561
5.25 -0.146951
5.26 -0.145215
5.27 -0.14339
5.28 -0.141515
5.29 -0.139629
5.3 -0.137774
5.31 -0.135998
5.32 -0.134342
5.33 -0.132833
5.34 -0.1315
5.35 -0.130361
5.36 -0.129429
5.37 -0.128708
5.38 -0.128208
5.39 -0.127888
5.4 -0.127721
5.41 -0.127668
5.42 -0.127685
5.43 -0.127722
5.44 -0.127717
5.45 -0.127602
5.46 -0.127323
5.47 -0.126821
5.48 -0.126045
5.49 -0.124949
5.5 -0.123494
5.51 -0.121608
5.52 -0.119318
5.53 -0.116626
5.54 -0.113543
5.55 -0.110094
5.56 -0.106316
5.57 -0.102247
5.58 -0.0979526
5.59 -0.0935178
5.6 -0.0890154
5.61 -0.0845205
5.62 -0.0801078
5.63 -0.0758491
5.64 -0.0718406
5.65 -0.0681223
5.66 -0.0647362
5.67 -0.0617136
5.68 -0.0590716
5.69 -0.0568123
5.7 -0.0549378
5.71 -0.0534236
5.72 -0.052197
5.73 -0.0512001
5.74 -0.0503648
5.75 -0.0496153
5.76 -0.048871
5.77 -0.0480335
5.78 -0.0470189
5.79 -0.0457535
5.8 -0.0441701
5.81 -0.0422123
5.82 -0.0398365
5.83 -0.036999
5.84 -0.0336644
5.85 -0.0298798
5.86 -0.0256708
5.87 -0.0210791
5.88 -0.0161611
5.89 -0.0109855
5.9 -0.00562376
5.91 -0.000183718
5.92 0.00523844
5.93 0.010552
5.94 0.0156699
5.95 0.020512
5.96 0.0249991
5.97 0.0290389
5.98 0.0326276
5.99 0.0357446
6 0.0383871
6.01 0.0405706
6.02 0.0423286
6.03 0.0436878
6.04 0.0447368
6.05 0.0455713
6.06 0.0462805
6.07 0.0469586
6.08 0.0477019
6.09 0.0486075
6.1 0.0497979
6.11 0.051331
6.12 0.0532702
6.13 0.0556636
6.14 0.0585415
6.15 0.0619151
6.16 0.065805
6.17 0.07017
6.18 0.0749317
6.19 0.0800203
6.2 0.0853512
6.21 0.090828
6.22 0.0963452
6.23 0.101771
6.24 0.106992
6.25 0.111901
6.26 0.116396
6.27 0.12039
6.28 0.123807
6.29 0.126551
6.3 0.128574
6.31 0.129901
6.32 0.13054
6.33 0.130517
6.34 0.129878
6.35 0.128688
6.36 0.126984
6.37 0.124915
6.38 0.122586
6.39 0.120106
6.4 0.117581
6.41 0.115114
6.42 0.112812
6.43 0.110781
6.44 0.109078
6.45 0.107754
6.46 0.106844
6.47 0.106366
6.48 0.106315
6.49 0.106703
6.5 0.107456
6.51 0.108503
6.52 0.109772
6.53 0.111181
6.54 0.11264
6.55 0.114052
6.56 0.115305
6.57 0.116317
6.58 0.117008
6.59 0.11731
6.6 0.117168
6.61 0.11654
6.62 0.11536
6.63 0.113649
6.64 0.111439
6.65 0.108762
6.66 0.105664
6.67 0.102205
6.68 0.0984526
6.69 0.0944789
6.7 0.0903959
6.71 0.0862896
6.72 0.0822438
6.73 0.0783376
6.74 0.0746421
6.75 0.0712421
6.76 0.0681837
6.77 0.065486
6.78 0.0631658
6.79 0.0612254
6.8 0.059652
6.81 0.0584224
6.82 0.0575225
6.83 0.0568649
6.84 0.0563909
6.85 0.0560372
6.86 0.055738
6.87 0.0554281
6.88 0.0550372
6.89 0.0545013
6.9 0.0537785
6.91 0.0528323
6.92 0.0516372
6.93 0.0501798
6.94 0.0484589
6.95 0.0464589
6.96 0.0442347
6.97 0.0418217
6.98 0.0392629
6.99 0.0366073
7 0.0339078
7.01 0.0312221
7.02 0.0286122
7.03 0.0261259
7.04 0.0238059
7.05 0.0216869
7.06 0.0197946
7.07 0.0181435
7.08 0.0167618
7.09 0.0156163
7.1 0.0146814
7.11 0.0139243
7.12 0.0133035
7.13 0.0127698
7.14 0.0122678
7.15 0.0117304
7.16 0.0110975
7.17 0.0103133
7.18 0.00932648
7.19 0.00809281
7.2 0.00657682
7.21 0.00472413
7.22 0.00254332
7.23 4.57112e-05
7.24 -0.00275184
7.25 -0.00581938
7.26 -0.00911454
7.27 -0.0125866
7.28 -0.0161691
7.29 -0.0197745
7.3 -0.0233246
7.31 -0.0267389
7.32 -0.0299373
7.33 -0.0328421
7.34 -0.0353462
7.35 -0.037395
7.36 -0.0389511
7.37 -0.0399758
7.38 -0.0404444
7.39 -0.0403471
7.4 -0.0396801
7.41 -0.0384244
7.42 -0.0366757
7.43 -0.034488
7.44 -0.0319273
7.45 -0.0290703
7.46 -0.0260018
7.47 -0.0228113
7.48 -0.0196096
7.49 -0.0164965
7.5 -0.013564
7.51 -0.0108986
7.52 -0.00857956
7.53 -0.00667878
7.54 -0.00530898
7.55 -0.00446298
7.56 -0.00416679
7.57 -0.00443139
7.58 -0.00525269
7.59 -0.00661185
7.6 -0.00850293
7.61 -0.0108708
7.62 -0.0136266
7.63 -0.0167016
7.64 -0.0200202
7.65 -0.0235022
7.66 -0.0270653
7.67 -0.0306182
7.68 -0.0340745
7.69 -0.037361
7.7 -0.040412
7.71 -0.0431704
7.72 -0.04559
7.73 -0.0476166
7.74 -0.0492176
7.75 -0.0504126
7.76 -0.0512074
7.77 -0.0516196
7.78 -0.0516781
7.79 -0.0514214
7.8 -0.0508749
7.81 -0.0501219
7.82 -0.049226
7.83 -0.048249
7.84 -0.0472526
7.85 -0.0462965
7.86 -0.0454423
7.87 -0.0447525
7.88 -0.0442592
7.89 -0.0439937
7.9 -0.0439769
7.91 -0.0442191
7.92 -0.0447192
7.93 -0.0454847
7.94 -0.046472
7.95 -0.0476382
7.96 -0.0489382
7.97 -0.0503194
7.98 -0.0517232
7.99 -0.0530847
8 -0.0543241
8.01 -0.0553828
8.02 -0.0562001
8.03 -0.0567208
8.04 -0.0568966
8.05 -0.0566881
8.06 -0.0560324
8.07 -0.0549286
8.08 -0.053392
8.09 -0.0514347
8.1 -0.0490825
8.11 -0.046374
8.12 -0.0433566
8.13 -0.0400801
8.14 -0.0366485
8.15 -0.0331429
8.16 -0.0296493
8.17 -0.0262561
8.18 -0.0230518
8.19 -0.0201466
8.2 -0.0176269
8.21 -0.0155488
8.22 -0.0139723
8.23 -0.0129446
8.24 -0.0124984
8.25 -0.0126535
8.26 -0.013475
8.27 -0.0148742
8.28 -0.0168142
8.29 -0.0192423
8.3 -0.0220913
8.31 -0.0252811
8.32 -0.0287288
8.33 -0.0323194
8.34 -0.0359325
8.35 -0.0394599
8.36 -0.0427946
8.37 -0.0458336
8.38 -0.0484809
8.39 -0.0505895
8.4 -0.0521291
8.41 -0.0530478
8.42 -0.0533064
8.43 -0.0528829
8.44 -0.0517733
8.45 -0.049963
8.46 -0.0474735
8.47 -0.0444053
8.48 -0.0408251
8.49 -0.0368117
8.5 -0.0324541
8.51 -0.0278481
8.52 -0.0230894
8.53 -0.0183024
8.54 -0.0135879
8.55 -0.00903892
8.56 -0.00473997
8.57 -0.000765221
8.58 0.00280877
8.59 0.00590888
8.6 0.00853981
8.61 0.0106891
8.62 0.0123599
8.63 0.0135701
8.64 0.0143514
8.65 0.0147189
8.66 0.0147571
8.67 0.0145411
8.68 0.0141392
8.69 0.013622
8.7 0.0130596
8.71 0.0125209
8.72 0.0120804
8.73 0.0117863
8.74 0.0116803
8.75 0.0117929
8.76 0.0121429
8.77 0.0127368
8.78 0.013586
8.79 0.0146608
8.8 0.0159213
8.81 0.0173289
8.82 0.0188382
8.83 0.0203992
8.84 0.0219585
8.85 0.0234522
8.86 0.0248317
8.87 0.0260521
8.88 0.0270751
8.89 0.0278707
8.9 0.0284181
8.91 0.0286902
8.92 0.0286923
8.93 0.0284516
8.94 0.0279917
8.95 0.0273451
8.96 0.0265518
8.97 0.0256574
8.98 0.0247118
8.99 0.0237775
9 0.022905
9.01 0.0221421
9.02 0.0215314
9.03 0.0211084
9.04 0.0209132
9.05 0.0209668
9.06 0.0212596
9.07 0.021785
9.08 0.0225259
9.09 0.0234549
9.1 0.0245359
9.11 0.0257309
9.12 0.0269734
9.13 0.0282076
9.14 0.0293776
9.15 0.0304284
9.16 0.0313079
9.17 0.0319586
9.18 0.0323284
9.19 0.0324062
9.2 0.0321747
9.21 0.0316279
9.22 0.0307713
9.23 0.0296222
9.24 0.0281875
9.25 0.0265316
9.26 0.0247095
9.27 0.0227774
9.28 0.0207961
9.29 0.0188288
9.3 0.0169431
9.31 0.0152151
9.32 0.013692
9.33 0.0124209
9.34 0.0114405
9.35 0.0107784
9.36 0.0104511
9.37 0.0104908
9.38 0.0108682
9.39 0.011549
9.4 0.0124984
9.41 0.013672
9.42 0.0150174
9.43 0.0164766
9.44 0.0179819
9.45 0.0194589
9.46 0.020844
9.47 0.0220774
9.48 0.0231051
9.49 0.0238807
9.5 0.024344
9.51 0.024476
9.52 0.0242782
9.53 0.0237518
9.54 0.0229098
9.55 0.0217769
9.56 0.0203862
9.57 0.0187678
9.58 0.017002
9.59 0.0151471
9.6 0.0132643
9.61 0.011415
9.62 0.00965892
9.63 0.00806419
9.64 0.00668536
9.65 0.00555292
9.66 0.0046962
9.67 0.00413381
9.68 0.00387303
9.69 0.00390972
9.7 0.00425807
9.71 0.0048557
9.72 0.00566451
9.73 0.00663942
9.74 0.00772963
9.75 0.00888067
9.76 0.0100337
9.77 0.0111245
9.78 0.012102
9.79 0.0129198
9.8 0.013539
9.81 0.0139291
9.82 0.0140693
9.83 0.0139222
9.84 0.0135147
9.85 0.0128643
9.86 0.011996
9.87 0.0109436
9.88 0.00974923
9.89 0.00845987
9.9 0.0071353
9.91 0.00583828
9.92 0.00462506
9.93 0.00354985
9.94 0.00266282
9.95 0.00200835
9.96 0.00165115
9.97 0.00160203
9.98 0.00186981
9.99 0.00245917
10 0.00336395
10.01 0.00456737
10.02 0.00604935
10.03 0.00778156
10.04 0.00969452
10.05 0.0117361
10.06 0.0138498
10.07 0.0159768
10.08 0.0180573
10.09 0.0200199
10.1 0.0218079
10.11 0.0233764
10.12 0.0246836
10.13 0.0256953
10.14 0.026386
10.15 0.0267338
10.16 0.0267051
10.17 0.0263395
10.18 0.0256524
10.19 0.0246675
10.2 0.023416
10.21 0.0219354
10.22 0.0202584
10.23 0.018443
10.24 0.016546
10.25 0.0146159
10.26 0.0127002
10.27 0.0108435
10.28 0.00908785
10.29 0.00748684
10.3 0.00605725
10.31 0.00482124
10.32 0.00379422
10.33 0.00298475
10.34 0.00239465
10.35 0.00203152
10.36 0.00188164
10.37 0.00191558
10.38 0.00211184
10.39 0.0024454
10.4 0.00288873
10.41 0.00341257
10.42 0.00398919
10.43 0.00458031
10.44 0.00515694
10.45 0.00569192
10.46 0.0061603
10.47 0.00653975
10.48 0.00680479
10.49 0.00693495
10.5 0.00692589
10.51 0.00676904
10.52 0.00645907
10.53 0.00599383
10.54 0.00537414
10.55 0.00458892
10.56 0.00365865
10.57 0.00259485
10.58 0.00140893
10.59 0.000114205
10.6 -0.00127425
10.61 -0.00274194
10.62 -0.00427048
10.63 -0.00583431
10.64 -0.00741274
10.65 -0.00898419
10.66 -0.0105265
10.67 -0.012017
10.68 -0.0134241
10.69 -0.0147276
10.7 -0.0159078
10.71 -0.0169441
10.72 -0.0178174
10.73 -0.0185109
10.74 -0.0190043
10.75 -0.0192722
10.76 -0.0193251
10.77 -0.0191601
10.78 -0.0187784
10.79 -0.0181857
10.8 -0.0173926
10.81 -0.016401
10.82 -0.015242
10.83 -0.0139479
10.84 -0.0125479
10.85 -0.0110747
10.86 -0.00956337
10.87 -0.00805184
10.88 -0.00658629
10.89 -0.0052041
10.9 -0.00394206
10.91 -0.00283468
10.92 -0.00191326
10.93 -0.0012049
10.94 -0.000749059
10.95 -0.000558699
10.96 -0.000630524
10.97 -0.00096598
10.98 -0.00155956
10.99 -0.00239883
11 -0.00346558
11.01 -0.00475239
11.02 -0.00620176
11.03 -0.00777659
11.04 -0.00943619
11.05 -0.0111373
11.06 -0.0128352
11.07 -0.0144798
11.08 -0.0160204
11.09 -0.0174196
11.1 -0.0186403
11.11 -0.0196499
11.12 -0.0204214
11.13 -0.0209336
11.14 -0.021141
11.15 -0.021065
11.16 -0.0207088
11.17 -0.0200801
11.18 -0.0191934
11.19 -0.0180686
11.2 -0.0167227
11.21 -0.0151856
11.22 -0.0135057
11.23 -0.0117187
11.24 -0.00986135
11.25 -0.00797057
11.26 -0.00608229
11.27 -0.0042375
11.28 -0.00246765
11.29 -0.000799289
11.3 0.000744262
11.31 0.00214396
11.32 0.00338525
11.33 0.00445195
11.34 0.00533024
11.35 0.00603377
11.36 0.00656608
11.37 0.00693403
11.38 0.00714727
11.39 0.00721772
11.4 0.00714894
11.41 0.0069653
11.42 0.00668588
11.43 0.00632604
11.44 0.00590073
11.45 0.00542413
11.46 0.0049088
11.47 0.00436636
11.48 0.00381045
11.49 0.00325016
11.5 0.00269336
11.51 0.00214682
11.52 0.0016164
11.53 0.00110918
11.54 0.000629399
11.55 0.000180208
11.56 -0.000234606
11.57 -0.000611372
11.58 -0.000946487
11.59 -0.00123576
11.6 -0.0014709
11.61 -0.00165349
11.62 -0.00178069
11.63 -0.0018502
11.64 -0.00186044
11.65 -0.00181078
11.66 -0.00169787
11.67 -0.0015249
11.68 -0.00129852
11.69 -0.00102393
11.7 -0.000707873
11.71 -0.000358619
11.72 1.4193e-05
11.73 0.000399727
11.74 0.000783498
11.75 0.00115298
11.76 0.00149554
11.77 0.00179885
11.78 0.0020513
11.79 0.00223864
11.8 0.00235056
11.81 0.00238486
11.82 0.00233786
11.83 0.00220862
