# xPDFsuite Configuration #
[PDF]
wavelength = 0.1
dataformat = QA
inputfile = BiMsol6_insitu_700 C-00658.xy
backgroundfile = Quartz2mm-dist500-00000.xy
mode = xray
bgscale = 0.0042
composition = Bi2Fe4O9
outputtype = gr
qmaxinst = 24.998449118
qmin = 0.1
qmax = 21.4986662415
rmax = 80.0
rmin = 0.0
rstep = 0.01
rpoly = 0.9

[Misc]
inputdir = C:/Data/Seafile/CPH/Beamtime/Desy Oct 20/In situ data/Processed/BiMsol6/PDF
savedir = C:/Data/Seafile/CPH/Beamtime/Desy Oct 20/In situ data/PDF/BiMsol6
backgroundfilefull = C:/Data/Seafile/CPH/Beamtime/Desy Oct 20/In situ data/Processed/Standard_Empty_Cap/Quartz2mm-dist500-00000.xy

#### start data
#S 1
#L r($\AA$)  G($\AA^{-2}$)
0 0
0.01 0.00627453
0.02 0.012194
0.03 0.0174546
0.04 0.0217836
0.05 0.024952
0.06 0.0267852
0.07 0.0270923
0.08 0.0258173
0.09 0.0231005
0.1 0.0190572
0.11 0.0138665
0.12 0.00776329
0.13 0.00102787
0.14 -0.00602481
0.15 -0.0129975
0.16 -0.0195551
0.17 -0.0253833
0.18 -0.0302
0.19 -0.0337696
0.2 -0.03585
0.21 -0.0362756
0.22 -0.0351419
0.23 -0.0325134
0.24 -0.0285314
0.25 -0.0234092
0.26 -0.017424
0.27 -0.0108912
0.28 -0.00426559
0.29 0.00204782
0.3 0.00765595
0.31 0.0121851
0.32 0.0152991
0.33 0.0166578
0.34 0.0159286
0.35 0.0131619
0.36 0.00835496
0.37 0.00160701
0.38 -0.00687899
0.39 -0.0167994
0.4 -0.0278021
0.41 -0.0392809
0.42 -0.0506406
0.43 -0.061276
0.44 -0.0705612
0.45 -0.0778724
0.46 -0.0825503
0.47 -0.0837461
0.48 -0.0812749
0.49 -0.0747933
0.5 -0.0640776
0.51 -0.0490386
0.52 -0.0297306
0.53 -0.00608825
0.54 0.0213466
0.55 0.0518606
0.56 0.0847907
0.57 0.119362
0.58 0.154708
0.59 0.189886
0.6 0.223691
0.61 0.255183
0.62 0.283417
0.63 0.307504
0.64 0.326649
0.65 0.340169
0.66 0.347115
0.67 0.347107
0.68 0.340325
0.69 0.326783
0.7 0.306677
0.71 0.280381
0.72 0.248433
0.73 0.211052
0.74 0.169715
0.75 0.125384
0.76 0.0790813
0.77 0.0318636
0.78 -0.0152038
0.79 -0.0609682
0.8 -0.104274
0.81 -0.144342
0.82 -0.180417
0.83 -0.211882
0.84 -0.238272
0.85 -0.259285
0.86 -0.27422
0.87 -0.28364
0.88 -0.287858
0.89 -0.287256
0.9 -0.282345
0.91 -0.273742
0.92 -0.262064
0.93 -0.248099
0.94 -0.232863
0.95 -0.217142
0.96 -0.201693
0.97 -0.187217
0.98 -0.174338
0.99 -0.163819
1 -0.155963
1.01 -0.150982
1.02 -0.149017
1.03 -0.150083
1.04 -0.15408
1.05 -0.160865
1.06 -0.170225
1.07 -0.181516
1.08 -0.194279
1.09 -0.20802
1.1 -0.22223
1.11 -0.236406
1.12 -0.249994
1.13 -0.26254
1.14 -0.273708
1.15 -0.283219
1.16 -0.290876
1.17 -0.296566
1.18 -0.300231
1.19 -0.301789
1.2 -0.301595
1.21 -0.299869
1.22 -0.296885
1.23 -0.292953
1.24 -0.288406
1.25 -0.283587
1.26 -0.278877
1.27 -0.274583
1.28 -0.270959
1.29 -0.268209
1.3 -0.266478
1.31 -0.265853
1.32 -0.266456
1.33 -0.268094
1.34 -0.270638
1.35 -0.273904
1.36 -0.277669
1.37 -0.281674
1.38 -0.285626
1.39 -0.289203
1.4 -0.292142
1.41 -0.294204
1.42 -0.295185
1.43 -0.294932
1.44 -0.293344
1.45 -0.29023
1.46 -0.285778
1.47 -0.280098
1.48 -0.273354
1.49 -0.265762
1.5 -0.257582
1.51 -0.249107
1.52 -0.240699
1.53 -0.232695
1.54 -0.225404
1.55 -0.219113
1.56 -0.214068
1.57 -0.210472
1.58 -0.208638
1.59 -0.208505
1.6 -0.210038
1.61 -0.213159
1.62 -0.217717
1.63 -0.223501
1.64 -0.230264
1.65 -0.237666
1.66 -0.245274
1.67 -0.252709
1.68 -0.259587
1.69 -0.265534
1.7 -0.270199
1.71 -0.273103
1.72 -0.274059
1.73 -0.272927
1.74 -0.269587
1.75 -0.263995
1.76 -0.256181
1.77 -0.246199
1.78 -0.234127
1.79 -0.220408
1.8 -0.205345
1.81 -0.189282
1.82 -0.172589
1.83 -0.155649
1.84 -0.138883
1.85 -0.122699
1.86 -0.107418
1.87 -0.0933256
1.88 -0.0806541
1.89 -0.0695763
1.9 -0.0602254
1.91 -0.0527903
1.92 -0.0470498
1.93 -0.042896
1.94 -0.0401651
1.95 -0.038646
1.96 -0.03809
1.97 -0.0382497
1.98 -0.0387837
1.99 -0.0393769
2 -0.0397635
2.01 -0.0397073
2.02 -0.0390121
2.03 -0.0375277
2.04 -0.0350635
2.05 -0.0316994
2.06 -0.0274864
2.07 -0.0225371
2.08 -0.017022
2.09 -0.0111632
2.1 -0.00523927
2.11 0.000400404
2.12 0.0054308
2.13 0.00952448
2.14 0.0123626
2.15 0.0136479
2.16 0.0131166
2.17 0.0103085
2.18 0.0052627
2.19 -0.00208957
2.2 -0.0117643
2.21 -0.0237074
2.22 -0.0377953
2.23 -0.0539149
2.24 -0.0718144
2.25 -0.0910394
2.26 -0.111233
2.27 -0.13201
2.28 -0.152969
2.29 -0.173706
2.3 -0.19373
2.31 -0.212684
2.32 -0.230259
2.33 -0.246179
2.34 -0.260226
2.35 -0.272244
2.36 -0.282072
2.37 -0.28959
2.38 -0.295039
2.39 -0.298544
2.4 -0.300287
2.41 -0.300497
2.42 -0.299442
2.43 -0.297362
2.44 -0.294664
2.45 -0.291692
2.46 -0.288751
2.47 -0.286128
2.48 -0.284075
2.49 -0.282832
2.5 -0.282652
2.51 -0.283565
2.52 -0.285623
2.53 -0.288827
2.54 -0.293126
2.55 -0.298425
2.56 -0.304635
2.57 -0.311525
2.58 -0.318856
2.59 -0.326408
2.6 -0.333956
2.61 -0.34128
2.62 -0.348161
2.63 -0.354333
2.64 -0.359691
2.65 -0.364118
2.66 -0.367529
2.67 -0.369883
2.68 -0.371177
2.69 -0.371381
2.7 -0.370598
2.71 -0.368987
2.72 -0.366682
2.73 -0.363833
2.74 -0.360601
2.75 -0.357151
2.76 -0.353653
2.77 -0.350275
2.78 -0.347147
2.79 -0.344373
2.8 -0.342034
2.81 -0.34018
2.82 -0.338859
2.83 -0.33806
2.84 -0.337708
2.85 -0.337733
2.86 -0.338047
2.87 -0.338543
2.88 -0.339105
2.89 -0.339592
2.9 -0.339877
2.91 -0.339845
2.92 -0.339393
2.93 -0.338434
2.94 -0.336896
2.95 -0.334701
2.96 -0.331797
2.97 -0.328226
2.98 -0.324001
2.99 -0.319151
3 -0.313715
3.01 -0.307741
3.02 -0.301239
3.03 -0.294297
3.04 -0.286966
3.05 -0.279273
3.06 -0.271228
3.07 -0.262823
3.08 -0.254014
3.09 -0.244715
3.1 -0.23488
3.11 -0.224407
3.12 -0.213178
3.13 -0.201061
3.14 -0.187914
3.15 -0.173482
3.16 -0.157667
3.17 -0.140379
3.18 -0.121507
3.19 -0.100962
3.2 -0.0786878
3.21 -0.0546232
3.22 -0.0286595
3.23 -0.00103378
3.24 0.0281427
3.25 0.0587157
3.26 0.0904896
3.27 0.12323
3.28 0.156698
3.29 0.190527
3.3 0.224366
3.31 0.257874
3.32 0.290709
3.33 0.32253
3.34 0.352988
3.35 0.381574
3.36 0.408161
3.37 0.432502
3.38 0.454391
3.39 0.473661
3.4 0.490193
3.41 0.503733
3.42 0.51428
3.43 0.522014
3.44 0.527006
3.45 0.529359
3.46 0.529213
3.47 0.526732
3.48 0.521875
3.49 0.515109
3.5 0.506647
3.51 0.496697
3.52 0.485467
3.53 0.473151
3.54 0.459896
3.55 0.445881
3.56 0.431307
3.57 0.416297
3.58 0.400956
3.59 0.385371
3.6 0.369612
3.61 0.353729
3.62 0.33778
3.63 0.321805
3.64 0.305836
3.65 0.28991
3.66 0.274065
3.67 0.258353
3.68 0.242844
3.69 0.227597
3.7 0.212691
3.71 0.198221
3.72 0.18429
3.73 0.171013
3.74 0.158598
3.75 0.147134
3.76 0.136736
3.77 0.127534
3.78 0.119653
3.79 0.113211
3.8 0.108363
3.81 0.105304
3.82 0.103966
3.83 0.104398
3.84 0.106628
3.85 0.110661
3.86 0.116479
3.87 0.124183
3.88 0.133617
3.89 0.144638
3.9 0.157145
3.91 0.171023
3.92 0.186146
3.93 0.202397
3.94 0.219694
3.95 0.237786
3.96 0.256529
3.97 0.275781
3.98 0.295404
3.99 0.315264
4 0.335233
4.01 0.355173
4.02 0.374965
4.03 0.394506
4.04 0.413693
4.05 0.432431
4.06 0.450625
4.07 0.46811
4.08 0.484862
4.09 0.500794
4.1 0.515822
4.11 0.529861
4.12 0.542827
4.13 0.554561
4.14 0.564973
4.15 0.574049
4.16 0.581715
4.17 0.5879
4.18 0.592543
4.19 0.595589
4.2 0.596804
4.21 0.596335
4.22 0.594173
4.23 0.590316
4.24 0.584775
4.25 0.577579
4.26 0.568691
4.27 0.558147
4.28 0.546124
4.29 0.532702
4.3 0.517968
4.31 0.502014
4.32 0.484935
4.33 0.466733
4.34 0.447602
4.35 0.427645
4.36 0.406947
4.37 0.385581
4.38 0.363615
4.39 0.341084
4.4 0.318022
4.41 0.294505
4.42 0.270559
4.43 0.246207
4.44 0.221463
4.45 0.196343
4.46 0.170827
4.47 0.14496
4.48 0.118776
4.49 0.0923063
4.5 0.0655945
4.51 0.0386955
4.52 0.0116766
4.53 -0.0153696
4.54 -0.0423341
4.55 -0.0691047
4.56 -0.0955577
4.57 -0.121561
4.58 -0.146974
4.59 -0.171586
4.6 -0.195266
4.61 -0.217907
4.62 -0.23938
4.63 -0.259569
4.64 -0.278378
4.65 -0.2957
4.66 -0.311346
4.67 -0.325438
4.68 -0.337976
4.69 -0.348986
4.7 -0.358519
4.71 -0.366653
4.72 -0.373405
4.73 -0.378942
4.74 -0.383468
4.75 -0.387132
4.76 -0.390096
4.77 -0.392521
4.78 -0.394567
4.79 -0.39638
4.8 -0.398141
4.81 -0.399971
4.82 -0.401978
4.83 -0.404245
4.84 -0.406832
4.85 -0.409797
4.86 -0.413151
4.87 -0.416854
4.88 -0.420866
4.89 -0.425126
4.9 -0.429557
4.91 -0.434068
4.92 -0.438546
4.93 -0.442872
4.94 -0.44694
4.95 -0.450642
4.96 -0.453878
4.97 -0.456558
4.98 -0.458571
4.99 -0.459829
5 -0.460332
5.01 -0.460054
5.02 -0.458984
5.03 -0.457128
5.04 -0.454505
5.05 -0.451081
5.06 -0.446968
5.07 -0.442233
5.08 -0.436937
5.09 -0.431143
5.1 -0.424916
5.11 -0.418305
5.12 -0.41136
5.13 -0.404161
5.14 -0.396748
5.15 -0.389156
5.16 -0.381409
5.17 -0.373524
5.18 -0.365501
5.19 -0.35735
5.2 -0.349072
5.21 -0.340663
5.22 -0.332119
5.23 -0.323436
5.24 -0.314611
5.25 -0.305642
5.26 -0.296554
5.27 -0.287371
5.28 -0.27812
5.29 -0.268843
5.3 -0.259585
5.31 -0.250412
5.32 -0.241392
5.33 -0.232589
5.34 -0.224073
5.35 -0.215914
5.36 -0.208182
5.37 -0.200947
5.38 -0.194326
5.39 -0.188314
5.4 -0.182947
5.41 -0.178253
5.42 -0.174244
5.43 -0.170921
5.44 -0.168314
5.45 -0.16638
5.46 -0.165045
5.47 -0.164259
5.48 -0.163962
5.49 -0.164088
5.5 -0.164568
5.51 -0.165352
5.52 -0.166329
5.53 -0.167427
5.54 -0.168581
5.55 -0.169729
5.56 -0.170817
5.57 -0.171789
5.58 -0.172598
5.59 -0.17322
5.6 -0.173632
5.61 -0.173813
5.62 -0.173749
5.63 -0.173428
5.64 -0.172807
5.65 -0.1719
5.66 -0.170694
5.67 -0.16917
5.68 -0.167305
5.69 -0.165067
5.7 -0.1624
5.71 -0.159242
5.72 -0.155573
5.73 -0.151339
5.74 -0.146483
5.75 -0.140949
5.76 -0.134678
5.77 -0.127538
5.78 -0.119539
5.79 -0.110662
5.8 -0.100887
5.81 -0.0902038
5.82 -0.0786215
5.83 -0.0661382
5.84 -0.0527643
5.85 -0.0386404
5.86 -0.0238523
5.87 -0.00850248
5.88 0.00729164
5.89 0.0234
5.9 0.0396849
5.91 0.0559721
5.92 0.072108
5.93 0.0879468
5.94 0.103349
5.95 0.118185
5.96 0.132321
5.97 0.145592
5.98 0.15799
5.99 0.169465
6 0.179987
6.01 0.189552
6.02 0.198178
6.03 0.205842
6.04 0.212642
6.05 0.218699
6.06 0.224103
6.07 0.228957
6.08 0.233367
6.09 0.237436
6.1 0.241256
6.11 0.24495
6.12 0.248595
6.13 0.252252
6.14 0.255961
6.15 0.259741
6.16 0.263593
6.17 0.267482
6.18 0.271351
6.19 0.275125
6.2 0.278712
6.21 0.282004
6.22 0.284883
6.23 0.287146
6.24 0.288713
6.25 0.28946
6.26 0.289269
6.27 0.288032
6.28 0.285659
6.29 0.282011
6.3 0.277019
6.31 0.270741
6.32 0.263183
6.33 0.254374
6.34 0.244369
6.35 0.233245
6.36 0.221004
6.37 0.207875
6.38 0.194001
6.39 0.179524
6.4 0.164593
6.41 0.149353
6.42 0.13395
6.43 0.118537
6.44 0.103244
6.45 0.0881789
6.46 0.0734279
6.47 0.0590596
6.48 0.0451215
6.49 0.0316838
6.5 0.0187165
6.51 0.00619091
6.52 -0.00592827
6.53 -0.0176905
6.54 -0.0291566
6.55 -0.0403907
6.56 -0.0514675
6.57 -0.0624792
6.58 -0.0734957
6.59 -0.0845798
6.6 -0.0957846
6.61 -0.107151
6.62 -0.118722
6.63 -0.130497
6.64 -0.142459
6.65 -0.154581
6.66 -0.166821
6.67 -0.179119
6.68 -0.191401
6.69 -0.203566
6.7 -0.21552
6.71 -0.227165
6.72 -0.238395
6.73 -0.249109
6.74 -0.259202
6.75 -0.26852
6.76 -0.276979
6.77 -0.284532
6.78 -0.29111
6.79 -0.296651
6.8 -0.301109
6.81 -0.304435
6.82 -0.306487
6.83 -0.307372
6.84 -0.307086
6.85 -0.30563
6.86 -0.303012
6.87 -0.299242
6.88 -0.294268
6.89 -0.288115
6.9 -0.280861
6.91 -0.272521
6.92 -0.26311
6.93 -0.252637
6.94 -0.241111
6.95 -0.228421
6.96 -0.214688
6.97 -0.199918
6.98 -0.184117
6.99 -0.167289
7 -0.149443
7.01 -0.13054
7.02 -0.110586
7.03 -0.0896712
7.04 -0.0678287
7.05 -0.0450985
7.06 -0.0215293
7.07 0.00282132
7.08 0.027953
7.09 0.0537175
7.1 0.0800201
7.11 0.106769
7.12 0.133867
7.13 0.161211
7.14 0.188695
7.15 0.216197
7.16 0.243598
7.17 0.270789
7.18 0.297662
7.19 0.324113
7.2 0.350039
7.21 0.375278
7.22 0.399767
7.23 0.423436
7.24 0.446202
7.25 0.467986
7.26 0.488716
7.27 0.508286
7.28 0.52655
7.29 0.543545
7.3 0.55921
7.31 0.573487
7.32 0.586319
7.33 0.597649
7.34 0.607296
7.35 0.61527
7.36 0.62158
7.37 0.626183
7.38 0.629037
7.39 0.630107
7.4 0.629334
7.41 0.626541
7.42 0.621899
7.43 0.615407
7.44 0.607074
7.45 0.596921
7.46 0.584981
7.47 0.571179
7.48 0.555625
7.49 0.538473
7.5 0.519809
7.51 0.499727
7.52 0.478337
7.53 0.455746
7.54 0.431983
7.55 0.40731
7.56 0.381864
7.57 0.355784
7.58 0.329213
7.59 0.30229
7.6 0.275152
7.61 0.247958
7.62 0.220849
7.63 0.193952
7.64 0.167386
7.65 0.141267
7.66 0.115701
7.67 0.0908696
7.68 0.0668043
7.69 0.0435846
7.7 0.0212866
7.71 -2.03199e-05
7.72 -0.0202733
7.73 -0.0393601
7.74 -0.0571988
7.75 -0.0738241
7.76 -0.0891994
7.77 -0.103294
7.78 -0.116083
7.79 -0.127549
7.8 -0.137546
7.81 -0.146185
7.82 -0.153492
7.83 -0.159483
7.84 -0.16418
7.85 -0.167617
7.86 -0.169789
7.87 -0.170706
7.88 -0.170525
7.89 -0.169315
7.9 -0.167154
7.91 -0.164126
7.92 -0.160318
7.93 -0.155773
7.94 -0.150641
7.95 -0.145038
7.96 -0.139062
7.97 -0.132806
7.98 -0.12636
7.99 -0.11981
8 -0.11324
8.01 -0.106724
8.02 -0.10032
8.03 -0.0940743
8.04 -0.0880244
8.05 -0.082196
8.06 -0.0766243
8.07 -0.0713056
8.08 -0.0662263
8.09 -0.061375
8.1 -0.0567346
8.11 -0.0522839
8.12 -0.0480011
8.13 -0.0438711
8.14 -0.0398539
8.15 -0.0359288
8.16 -0.032079
8.17 -0.0282925
8.18 -0.024563
8.19 -0.0208947
8.2 -0.0172949
8.21 -0.0137745
8.22 -0.0103532
8.23 -0.00705483
8.24 -0.00390716
8.25 -0.000940802
8.26 0.00178648
8.27 0.00426607
8.28 0.0064706
8.29 0.00837656
8.3 0.00996549
8.31 0.0112251
8.32 0.0121311
8.33 0.0126856
8.34 0.0129205
8.35 0.012855
8.36 0.0125147
8.37 0.0119313
8.38 0.0111412
8.39 0.0101706
8.4 0.00908216
8.41 0.00791858
8.42 0.00671908
8.43 0.00551907
8.44 0.00434859
8.45 0.003234
8.46 0.00219334
8.47 0.0012264
8.48 0.000327583
8.49 -0.000518271
8.5 -0.00133555
8.51 -0.00215724
8.52 -0.00303307
8.53 -0.00401258
8.54 -0.00514744
8.55 -0.00649265
8.56 -0.00810367
8.57 -0.0100345
8.58 -0.0123501
8.59 -0.0151213
8.6 -0.0183529
8.61 -0.0220726
8.62 -0.0262981
8.63 -0.0310371
8.64 -0.0362863
8.65 -0.0420735
8.66 -0.0483417
8.67 -0.0550409
8.68 -0.0621279
8.69 -0.0695534
8.7 -0.0772635
8.71 -0.0852054
8.72 -0.0933256
8.73 -0.101548
8.74 -0.109818
8.75 -0.118088
8.76 -0.126315
8.77 -0.134461
8.78 -0.142488
8.79 -0.150376
8.8 -0.158118
8.81 -0.165708
8.82 -0.173145
8.83 -0.180436
8.84 -0.187587
8.85 -0.194597
8.86 -0.201491
8.87 -0.208279
8.88 -0.214966
8.89 -0.221553
8.9 -0.228036
8.91 -0.234395
8.92 -0.240611
8.93 -0.246664
8.94 -0.252521
8.95 -0.258144
8.96 -0.26349
8.97 -0.268512
8.98 -0.273114
8.99 -0.277288
9 -0.280987
9.01 -0.284172
9.02 -0.286808
9.03 -0.288869
9.04 -0.290305
9.05 -0.291105
9.06 -0.291315
9.07 -0.290954
9.08 -0.290052
9.09 -0.288651
9.1 -0.286803
9.11 -0.284533
9.12 -0.281951
9.13 -0.279134
9.14 -0.276153
9.15 -0.273082
9.16 -0.269987
9.17 -0.266937
9.18 -0.263996
9.19 -0.261204
9.2 -0.258591
9.21 -0.256178
9.22 -0.253971
9.23 -0.251963
9.24 -0.25015
9.25 -0.248484
9.26 -0.24692
9.27 -0.245407
9.28 -0.243893
9.29 -0.242319
9.3 -0.240623
9.31 -0.238735
9.32 -0.236617
9.33 -0.234231
9.34 -0.231546
9.35 -0.228543
9.36 -0.225217
9.37 -0.221549
9.38 -0.217582
9.39 -0.21336
9.4 -0.20893
9.41 -0.20435
9.42 -0.199681
9.43 -0.194994
9.44 -0.190371
9.45 -0.18588
9.46 -0.181585
9.47 -0.177541
9.48 -0.173793
9.49 -0.170373
9.5 -0.167324
9.51 -0.164635
9.52 -0.162269
9.53 -0.160188
9.54 -0.158338
9.55 -0.156647
9.56 -0.15503
9.57 -0.153373
9.58 -0.151561
9.59 -0.149479
9.6 -0.147011
9.61 -0.14404
9.62 -0.140454
9.63 -0.136097
9.64 -0.13087
9.65 -0.124737
9.66 -0.117637
9.67 -0.10953
9.68 -0.100391
9.69 -0.0902176
9.7 -0.0789108
9.71 -0.0666275
9.72 -0.0534246
9.73 -0.0393723
9.74 -0.0245532
9.75 -0.00905964
9.76 0.00703289
9.77 0.0236117
9.78 0.0405357
9.79 0.0577029
9.8 0.075016
9.81 0.092385
9.82 0.109728
9.83 0.126957
9.84 0.144017
9.85 0.16086
9.86 0.177453
9.87 0.193768
9.88 0.209788
9.89 0.22549
9.9 0.240857
9.91 0.255913
9.92 0.270656
9.93 0.285086
9.94 0.299197
9.95 0.312981
9.96 0.326389
9.97 0.339419
9.98 0.352048
9.99 0.364238
10 0.375946
10.01 0.387121
10.02 0.39769
10.03 0.407551
10.04 0.4167
10.05 0.425082
10.06 0.432648
10.07 0.439355
10.08 0.445169
10.09 0.449991
10.1 0.453855
10.11 0.4568
10.12 0.458848
10.13 0.460037
10.14 0.460415
10.15 0.460037
10.16 0.458935
10.17 0.457271
10.18 0.455142
10.19 0.452649
10.2 0.449895
10.21 0.446984
10.22 0.444016
10.23 0.441096
10.24 0.438308
10.25 0.435718
10.26 0.433381
10.27 0.431336
10.28 0.429607
10.29 0.428233
10.3 0.427164
10.31 0.426369
10.32 0.425804
10.33 0.425414
10.34 0.425131
10.35 0.424878
10.36 0.424561
10.37 0.424096
10.38 0.423401
10.39 0.422396
10.4 0.421007
10.41 0.419166
10.42 0.416751
10.43 0.413768
10.44 0.410183
10.45 0.405972
10.46 0.401122
10.47 0.395629
10.48 0.389468
10.49 0.382644
10.5 0.375221
10.51 0.367224
10.52 0.358678
10.53 0.349612
10.54 0.340051
10.55 0.329973
10.56 0.319438
10.57 0.308468
10.58 0.297071
10.59 0.28525
10.6 0.273002
10.61 0.260305
10.62 0.24713
10.63 0.2335
10.64 0.219403
10.65 0.20483
10.66 0.189776
10.67 0.17424
10.68 0.158186
10.69 0.141661
10.7 0.124705
10.71 0.107354
10.72 0.0896526
10.73 0.0716575
10.74 0.0534298
10.75 0.0350438
10.76 0.0166008
10.77 -0.00181292
10.78 -0.0201091
10.79 -0.0381993
10.8 -0.0559981
10.81 -0.0733888
10.82 -0.0903063
10.83 -0.106704
10.84 -0.122535
10.85 -0.137763
10.86 -0.15237
10.87 -0.166341
10.88 -0.179638
10.89 -0.192356
10.9 -0.204537
10.91 -0.21624
10.92 -0.227529
10.93 -0.238478
10.94 -0.249156
10.95 -0.259658
10.96 -0.270077
10.97 -0.280486
10.98 -0.290952
10.99 -0.301529
11 -0.312261
11.01 -0.323197
11.02 -0.334324
11.03 -0.345632
11.04 -0.357092
11.05 -0.368658
11.06 -0.380267
11.07 -0.391835
11.08 -0.403255
11.09 -0.414428
11.1 -0.425243
11.11 -0.435587
11.12 -0.445346
11.13 -0.454408
11.14 -0.46257
11.15 -0.469808
11.16 -0.476048
11.17 -0.481221
11.18 -0.485275
11.19 -0.488176
11.2 -0.489851
11.21 -0.490276
11.22 -0.489556
11.23 -0.487728
11.24 -0.484845
11.25 -0.48097
11.26 -0.476177
11.27 -0.470472
11.28 -0.464019
11.29 -0.456917
11.3 -0.449252
11.31 -0.441102
11.32 -0.432541
11.33 -0.42362
11.34 -0.414387
11.35 -0.404905
11.36 -0.395201
11.37 -0.385289
11.38 -0.37517
11.39 -0.364834
11.4 -0.35424
11.41 -0.343371
11.42 -0.332199
11.43 -0.320688
11.44 -0.308801
11.45 -0.296502
11.46 -0.28375
11.47 -0.270486
11.48 -0.256738
11.49 -0.242503
11.5 -0.227792
11.51 -0.212625
11.52 -0.197039
11.53 -0.181057
11.54 -0.164764
11.55 -0.14825
11.56 -0.1316
11.57 -0.114908
11.58 -0.0982741
11.59 -0.0818044
11.6 -0.0656415
11.61 -0.0498701
11.62 -0.0345898
11.63 -0.0198938
11.64 -0.00586696
11.65 0.00741615
11.66 0.0198361
11.67 0.0313505
11.68 0.0419694
11.69 0.0516762
11.7 0.0604686
11.71 0.068359
11.72 0.0753715
11.73 0.0814558
11.74 0.0867646
11.75 0.0913596
11.76 0.0953096
11.77 0.0986889
11.78 0.101575
11.79 0.104028
11.8 0.106136
11.81 0.107998
11.82 0.109682
11.83 0.11125
11.84 0.112758
11.85 0.114251
11.86 0.115769
11.87 0.117336
11.88 0.118964
11.89 0.120652
11.9 0.122392
11.91 0.124163
11.92 0.125936
11.93 0.127666
11.94 0.129306
11.95 0.130804
11.96 0.132104
11.97 0.133146
11.98 0.133867
11.99 0.13416
12 0.133986
12.01 0.133291
12.02 0.132017
12.03 0.13011
12.04 0.12752
12.05 0.124177
12.06 0.119998
12.07 0.115015
12.08 0.109205
12.09 0.102549
12.1 0.0950404
12.11 0.0866757
12.12 0.0773889
12.13 0.0672423
12.14 0.0562848
12.15 0.0445454
12.16 0.0320605
12.17 0.0188729
12.18 0.0050189
