# xPDFsuite Configuration #
[PDF]
wavelength = 0.1
dataformat = QA
inputfile = BiMsol6_insitu_700 C-00712.xy
backgroundfile = Quartz2mm-dist500-00000.xy
mode = xray
bgscale = 0.0042
composition = Bi2Fe4O9
outputtype = gr
qmaxinst = 24.998449118
qmin = 0.1
qmax = 21.4986662415
rmax = 80.0
rmin = 0.0
rstep = 0.01
rpoly = 0.9

[Misc]
inputdir = C:/Data/Seafile/CPH/Beamtime/Desy Oct 20/In situ data/Processed/BiMsol6/PDF
savedir = C:/Data/Seafile/CPH/Beamtime/Desy Oct 20/In situ data/PDF/BiMsol6
backgroundfilefull = C:/Data/Seafile/CPH/Beamtime/Desy Oct 20/In situ data/Processed/Standard_Empty_Cap/Quartz2mm-dist500-00000.xy

#### start data
#S 1
#L r($\AA$)  G($\AA^{-2}$)
0 0
0.01 0.0062351
0.02 0.0121169
0.03 0.017343
0.04 0.0216422
0.05 0.0247867
0.06 0.0266029
0.07 0.0269011
0.08 0.0256259
0.09 0.0229173
0.1 0.0188903
0.11 0.0137236
0.12 0.00765108
0.13 0.000952073
0.14 -0.00605959
0.15 -0.0129888
0.16 -0.0195024
0.17 -0.0252878
0.18 -0.0300648
0.19 -0.0335996
0.2 -0.0356521
0.21 -0.0360584
0.22 -0.0349146
0.23 -0.032286
0.24 -0.028314
0.25 -0.0232116
0.26 -0.0172556
0.27 -0.0107605
0.28 -0.00417896
0.29 0.00208653
0.3 0.00764528
0.31 0.0121263
0.32 0.0151962
0.33 0.0165181
0.34 0.0157629
0.35 0.0129827
0.36 0.00817669
0.37 0.00144549
0.38 -0.00700731
0.39 -0.0168781
0.4 -0.0278148
0.41 -0.0392141
0.42 -0.0504844
0.43 -0.0610246
0.44 -0.0702131
0.45 -0.0774318
0.46 -0.0820273
0.47 -0.0831591
0.48 -0.0806476
0.49 -0.0741551
0.5 -0.0634636
0.51 -0.0484882
0.52 -0.0292869
0.53 -0.00579996
0.54 0.0214314
0.55 0.0516975
0.56 0.0843385
0.57 0.118585
0.58 0.153577
0.59 0.188381
0.6 0.221803
0.61 0.252918
0.62 0.280792
0.63 0.304553
0.64 0.323417
0.65 0.336717
0.66 0.343521
0.67 0.343461
0.68 0.336724
0.69 0.323329
0.7 0.303477
0.71 0.277544
0.72 0.246065
0.73 0.209262
0.74 0.168593
0.75 0.125007
0.76 0.0795061
0.77 0.0331312
0.78 -0.0130746
0.79 -0.0579828
0.8 -0.100466
0.81 -0.139768
0.82 -0.175158
0.83 -0.20604
0.84 -0.231969
0.85 -0.252661
0.86 -0.267444
0.87 -0.276877
0.88 -0.281274
0.89 -0.281016
0.9 -0.276607
0.91 -0.268655
0.92 -0.257763
0.93 -0.2447
0.94 -0.230448
0.95 -0.215766
0.96 -0.20138
0.97 -0.187961
0.98 -0.176102
0.99 -0.166529
1 -0.159517
1.01 -0.155255
1.02 -0.153864
1.03 -0.155344
1.04 -0.159584
1.05 -0.166429
1.06 -0.175659
1.07 -0.186652
1.08 -0.198964
1.09 -0.212117
1.1 -0.225626
1.11 -0.239013
1.12 -0.251753
1.13 -0.263427
1.14 -0.273734
1.15 -0.282424
1.16 -0.289328
1.17 -0.294359
1.18 -0.297483
1.19 -0.298644
1.2 -0.298197
1.21 -0.296365
1.22 -0.293419
1.23 -0.289661
1.24 -0.285408
1.25 -0.280991
1.26 -0.276759
1.27 -0.272987
1.28 -0.2699
1.29 -0.267669
1.3 -0.26641
1.31 -0.266178
1.32 -0.267057
1.33 -0.268844
1.34 -0.271393
1.35 -0.274511
1.36 -0.277973
1.37 -0.281525
1.38 -0.284878
1.39 -0.287734
1.4 -0.289864
1.41 -0.291062
1.42 -0.291161
1.43 -0.290046
1.44 -0.287658
1.45 -0.283864
1.46 -0.278883
1.47 -0.272861
1.48 -0.265993
1.49 -0.258518
1.5 -0.250712
1.51 -0.242891
1.52 -0.235419
1.53 -0.228599
1.54 -0.222719
1.55 -0.21803
1.56 -0.214741
1.57 -0.213004
1.58 -0.213077
1.59 -0.214829
1.6 -0.218161
1.61 -0.222933
1.62 -0.228935
1.63 -0.235898
1.64 -0.243511
1.65 -0.251372
1.66 -0.259043
1.67 -0.266126
1.68 -0.272229
1.69 -0.276985
1.7 -0.280062
1.71 -0.280982
1.72 -0.279631
1.73 -0.275936
1.74 -0.269843
1.75 -0.261383
1.76 -0.250662
1.77 -0.237821
1.78 -0.223038
1.79 -0.206829
1.8 -0.189573
1.81 -0.171679
1.82 -0.153573
1.83 -0.135685
1.84 -0.11851
1.85 -0.102454
1.86 -0.087818
1.87 -0.0748735
1.88 -0.0638235
1.89 -0.0547972
1.9 -0.0478766
1.91 -0.0432011
1.92 -0.0404344
1.93 -0.0393847
1.94 -0.0398004
1.95 -0.0413815
1.96 -0.0437925
1.97 -0.0466825
1.98 -0.0496282
1.99 -0.0522607
2 -0.0542611
2.01 -0.0553522
2.02 -0.0553112
2.03 -0.0539738
2.04 -0.0510992
2.05 -0.0468461
2.06 -0.0413004
2.07 -0.0346224
2.08 -0.027041
2.09 -0.0188459
2.1 -0.0103839
2.11 -0.00209587
2.12 0.00560064
2.13 0.0122976
2.14 0.0175992
2.15 0.0211364
2.16 0.0225817
2.17 0.0213796
2.18 0.0175572
2.19 0.0110202
2.2 0.00173761
2.21 -0.0102387
2.22 -0.0247745
2.23 -0.0417498
2.24 -0.0608816
2.25 -0.081641
2.26 -0.103617
2.27 -0.126362
2.28 -0.149413
2.29 -0.172297
2.3 -0.19445
2.31 -0.215445
2.32 -0.234913
2.33 -0.252526
2.34 -0.268021
2.35 -0.281206
2.36 -0.29188
2.37 -0.299891
2.38 -0.305502
2.39 -0.308845
2.4 -0.310117
2.41 -0.309574
2.42 -0.307516
2.43 -0.304206
2.44 -0.300117
2.45 -0.295645
2.46 -0.291147
2.47 -0.286958
2.48 -0.283381
2.49 -0.280702
2.5 -0.279232
2.51 -0.279023
2.52 -0.280158
2.53 -0.282658
2.54 -0.286486
2.55 -0.291551
2.56 -0.297782
2.57 -0.304928
2.58 -0.312724
2.59 -0.320929
2.6 -0.32929
2.61 -0.337555
2.62 -0.345475
2.63 -0.35275
2.64 -0.359231
2.65 -0.364764
2.66 -0.369235
2.67 -0.37257
2.68 -0.374739
2.69 -0.375684
2.7 -0.375483
2.71 -0.374294
2.72 -0.372242
2.73 -0.369474
2.74 -0.366152
2.75 -0.362447
2.76 -0.358525
2.77 -0.354586
2.78 -0.350777
2.79 -0.347224
2.8 -0.344027
2.81 -0.341261
2.82 -0.338997
2.83 -0.337251
2.84 -0.335973
2.85 -0.335115
2.86 -0.33461
2.87 -0.33437
2.88 -0.334296
2.89 -0.334277
2.9 -0.334187
2.91 -0.333919
2.92 -0.333378
2.93 -0.332479
2.94 -0.331154
2.95 -0.329327
2.96 -0.326947
2.97 -0.324036
2.98 -0.320598
2.99 -0.316649
3 -0.312214
3.01 -0.307325
3.02 -0.301975
3.03 -0.296227
3.04 -0.290108
3.05 -0.283622
3.06 -0.276755
3.07 -0.269478
3.08 -0.261718
3.09 -0.253361
3.1 -0.244345
3.11 -0.234551
3.12 -0.223843
3.13 -0.212077
3.14 -0.199099
3.15 -0.184631
3.16 -0.168583
3.17 -0.150872
3.18 -0.131394
3.19 -0.110071
3.2 -0.0868593
3.21 -0.0617155
3.22 -0.0345468
3.23 -0.00562897
3.24 0.0248986
3.25 0.0568517
3.26 0.0900042
3.27 0.124091
3.28 0.158834
3.29 0.19384
3.3 0.228731
3.31 0.263146
3.32 0.296724
3.33 0.329107
3.34 0.359939
3.35 0.388686
3.36 0.415244
3.37 0.439375
3.38 0.460884
3.39 0.479626
3.4 0.4955
3.41 0.508276
3.42 0.517985
3.43 0.524846
3.44 0.528957
3.45 0.530456
3.46 0.52951
3.47 0.526311
3.48 0.520857
3.49 0.513624
3.5 0.504836
3.51 0.494714
3.52 0.483464
3.53 0.47128
3.54 0.458306
3.55 0.444704
3.56 0.430645
3.57 0.416229
3.58 0.401532
3.59 0.386609
3.6 0.371501
3.61 0.356214
3.62 0.340779
3.63 0.325207
3.64 0.309505
3.65 0.293689
3.66 0.277781
3.67 0.261815
3.68 0.245853
3.69 0.229971
3.7 0.214259
3.71 0.198829
3.72 0.183806
3.73 0.169333
3.74 0.155648
3.75 0.142883
3.76 0.131192
3.77 0.120743
3.78 0.111698
3.79 0.104211
3.8 0.0984723
3.81 0.0947194
3.82 0.0928912
3.83 0.093051
3.84 0.0952339
3.85 0.0994459
3.86 0.105663
3.87 0.113988
3.88 0.124233
3.89 0.136219
3.9 0.149813
3.91 0.164865
3.92 0.181211
3.93 0.198695
3.94 0.217188
3.95 0.236403
3.96 0.256162
3.97 0.276295
3.98 0.296638
3.99 0.317042
4 0.337355
4.01 0.35744
4.02 0.377196
4.03 0.39653
4.04 0.415364
4.05 0.433628
4.06 0.451259
4.07 0.468127
4.08 0.484256
4.09 0.499602
4.1 0.51412
4.11 0.527763
4.12 0.540482
4.13 0.552161
4.14 0.562735
4.15 0.572196
4.16 0.580477
4.17 0.587506
4.18 0.593212
4.19 0.597522
4.2 0.600195
4.21 0.601318
4.22 0.600843
4.23 0.598721
4.24 0.594917
4.25 0.589407
4.26 0.582098
4.27 0.572967
4.28 0.562156
4.29 0.549705
4.3 0.535669
4.31 0.520116
4.32 0.503126
4.33 0.484663
4.34 0.464954
4.35 0.444125
4.36 0.422284
4.37 0.399539
4.38 0.375999
4.39 0.351745
4.4 0.326866
4.41 0.301506
4.42 0.275749
4.43 0.24967
4.44 0.223341
4.45 0.196821
4.46 0.170159
4.47 0.143422
4.48 0.116657
4.49 0.0899101
4.5 0.063226
4.51 0.0366506
4.52 0.0102385
4.53 -0.0159363
4.54 -0.0418299
4.55 -0.0673775
4.56 -0.092509
4.57 -0.117149
4.58 -0.141218
4.59 -0.164573
4.6 -0.187145
4.61 -0.208876
4.62 -0.229682
4.63 -0.249487
4.64 -0.26822
4.65 -0.285799
4.66 -0.302069
4.67 -0.317112
4.68 -0.330907
4.69 -0.343451
4.7 -0.354755
4.71 -0.364847
4.72 -0.373693
4.73 -0.381386
4.74 -0.388055
4.75 -0.393787
4.76 -0.398674
4.77 -0.402817
4.78 -0.406316
4.79 -0.409229
4.8 -0.41173
4.81 -0.413913
4.82 -0.415869
4.83 -0.417678
4.84 -0.41941
4.85 -0.421123
4.86 -0.422867
4.87 -0.42467
4.88 -0.426546
4.89 -0.428498
4.9 -0.430515
4.91 -0.432578
4.92 -0.434654
4.93 -0.436702
4.94 -0.438677
4.95 -0.440534
4.96 -0.442226
4.97 -0.443704
4.98 -0.444908
4.99 -0.445783
5 -0.446309
5.01 -0.446452
5.02 -0.446183
5.03 -0.445479
5.04 -0.444321
5.05 -0.442645
5.06 -0.44048
5.07 -0.437826
5.08 -0.43468
5.09 -0.43104
5.1 -0.426904
5.11 -0.422256
5.12 -0.417074
5.13 -0.4114
5.14 -0.405236
5.15 -0.398586
5.16 -0.391456
5.17 -0.383854
5.18 -0.375752
5.19 -0.367196
5.2 -0.35822
5.21 -0.348854
5.22 -0.339131
5.23 -0.329095
5.24 -0.318791
5.25 -0.30827
5.26 -0.297623
5.27 -0.286925
5.28 -0.276254
5.29 -0.265695
5.3 -0.255335
5.31 -0.24529
5.32 -0.235649
5.33 -0.226483
5.34 -0.21787
5.35 -0.20988
5.36 -0.202573
5.37 -0.196011
5.38 -0.190302
5.39 -0.185391
5.4 -0.181281
5.41 -0.177964
5.42 -0.175417
5.43 -0.173602
5.44 -0.172512
5.45 -0.172064
5.46 -0.172154
5.47 -0.172702
5.48 -0.173627
5.49 -0.174843
5.5 -0.176267
5.51 -0.177823
5.52 -0.179413
5.53 -0.180967
5.54 -0.182425
5.55 -0.183734
5.56 -0.184851
5.57 -0.185728
5.58 -0.186335
5.59 -0.186672
5.6 -0.186728
5.61 -0.186501
5.62 -0.185988
5.63 -0.185192
5.64 -0.184079
5.65 -0.182675
5.66 -0.180974
5.67 -0.178962
5.68 -0.176618
5.69 -0.173915
5.7 -0.170798
5.71 -0.167204
5.72 -0.163113
5.73 -0.158468
5.74 -0.153213
5.75 -0.147288
5.76 -0.140637
5.77 -0.133126
5.78 -0.124764
5.79 -0.115534
5.8 -0.105413
5.81 -0.0943939
5.82 -0.082484
5.83 -0.0696817
5.84 -0.0559963
5.85 -0.041566
5.86 -0.0264737
5.87 -0.0108182
5.88 0.00528748
5.89 0.0217185
5.9 0.038345
5.91 0.0549987
5.92 0.0715316
5.93 0.0878035
5.94 0.10368
5.95 0.119034
5.96 0.133737
5.97 0.147625
5.98 0.160684
5.99 0.172856
6 0.184106
6.01 0.194416
6.02 0.203791
6.03 0.21219
6.04 0.21969
6.05 0.226392
6.06 0.232367
6.07 0.237696
6.08 0.242465
6.09 0.246757
6.1 0.250633
6.11 0.254219
6.12 0.257585
6.13 0.26079
6.14 0.263878
6.15 0.266876
6.16 0.269791
6.17 0.272615
6.18 0.275325
6.19 0.277878
6.2 0.280216
6.21 0.282272
6.22 0.283965
6.23 0.285147
6.24 0.285773
6.25 0.285752
6.26 0.284997
6.27 0.283429
6.28 0.280975
6.29 0.277523
6.3 0.273009
6.31 0.267466
6.32 0.260883
6.33 0.253262
6.34 0.244624
6.35 0.235005
6.36 0.224362
6.37 0.212854
6.38 0.200567
6.39 0.187584
6.4 0.173995
6.41 0.159892
6.42 0.145355
6.43 0.130478
6.44 0.11538
6.45 0.100144
6.46 0.0848438
6.47 0.0695487
6.48 0.0543175
6.49 0.0392152
6.5 0.0242781
6.51 0.00953392
6.52 -0.00499482
6.53 -0.0192925
6.54 -0.0333494
6.55 -0.0471534
6.56 -0.0606896
6.57 -0.0739814
6.58 -0.0870317
6.59 -0.0998436
6.6 -0.112419
6.61 -0.12476
6.62 -0.136845
6.63 -0.148682
6.64 -0.160272
6.65 -0.171607
6.66 -0.182675
6.67 -0.193462
6.68 -0.203948
6.69 -0.214088
6.7 -0.223891
6.71 -0.233337
6.72 -0.242405
6.73 -0.251069
6.74 -0.259306
6.75 -0.267052
6.76 -0.274288
6.77 -0.281
6.78 -0.287153
6.79 -0.292708
6.8 -0.297621
6.81 -0.301839
6.82 -0.305228
6.83 -0.307807
6.84 -0.309515
6.85 -0.310285
6.86 -0.31005
6.87 -0.30874
6.88 -0.306209
6.89 -0.302384
6.9 -0.297263
6.91 -0.290783
6.92 -0.28289
6.93 -0.273537
6.94 -0.262686
6.95 -0.250138
6.96 -0.236052
6.97 -0.22044
6.98 -0.203325
6.99 -0.184746
7 -0.164757
7.01 -0.143367
7.02 -0.120655
7.03 -0.0968127
7.04 -0.0719552
7.05 -0.0462062
7.06 -0.0196968
7.07 0.00743648
7.08 0.0350908
7.09 0.0630701
7.1 0.0912335
7.11 0.119452
7.12 0.147605
7.13 0.175581
7.14 0.203264
7.15 0.230539
7.16 0.257355
7.17 0.28365
7.18 0.309372
7.19 0.334479
7.2 0.358937
7.21 0.382656
7.22 0.405656
7.23 0.427936
7.24 0.449473
7.25 0.470246
7.26 0.490226
7.27 0.509354
7.28 0.527528
7.29 0.544767
7.3 0.561009
7.31 0.576179
7.32 0.590195
7.33 0.602966
7.34 0.614279
7.35 0.624079
7.36 0.63231
7.37 0.63887
7.38 0.64366
7.39 0.64659
7.4 0.647543
7.41 0.646276
7.42 0.642935
7.43 0.637488
7.44 0.629922
7.45 0.620245
7.46 0.608487
7.47 0.594558
7.48 0.578592
7.49 0.560779
7.5 0.541233
7.51 0.520083
7.52 0.497474
7.53 0.473553
7.54 0.448383
7.55 0.422276
7.56 0.395403
7.57 0.367936
7.58 0.340042
7.59 0.311885
7.6 0.283625
7.61 0.25543
7.62 0.227442
7.63 0.199786
7.64 0.172578
7.65 0.145923
7.66 0.119918
7.67 0.0947382
7.68 0.0703916
7.69 0.0469431
7.7 0.024456
7.71 0.00298844
7.72 -0.0174059
7.73 -0.036621
7.74 -0.0545792
7.75 -0.0713167
7.76 -0.0867952
7.77 -0.10098
7.78 -0.113843
7.79 -0.125359
7.8 -0.135374
7.81 -0.143993
7.82 -0.151242
7.83 -0.157134
7.84 -0.161691
7.85 -0.164951
7.86 -0.166916
7.87 -0.167604
7.88 -0.16719
7.89 -0.165759
7.9 -0.163404
7.91 -0.160229
7.92 -0.15634
7.93 -0.151807
7.94 -0.146793
7.95 -0.141425
7.96 -0.135808
7.97 -0.130042
7.98 -0.124217
7.99 -0.118411
8 -0.112704
8.01 -0.107139
8.02 -0.101748
8.03 -0.096546
8.04 -0.0915364
8.05 -0.0867074
8.06 -0.082045
8.07 -0.0775034
8.08 -0.073034
8.09 -0.0685899
8.1 -0.0641231
8.11 -0.0595873
8.12 -0.0549389
8.13 -0.0501278
8.14 -0.0451446
8.15 -0.0399803
8.16 -0.0346393
8.17 -0.0291404
8.18 -0.023517
8.19 -0.0178152
8.2 -0.0121075
8.21 -0.0064713
8.22 -0.00098887
8.23 0.00425231
8.24 0.00916258
8.25 0.0136517
8.26 0.0175711
8.27 0.0208976
8.28 0.0235702
8.29 0.0255426
8.3 0.0267859
8.31 0.0272896
8.32 0.0270235
8.33 0.0260216
8.34 0.0243821
8.35 0.0221769
8.36 0.0194936
8.37 0.0164328
8.38 0.0131046
8.39 0.00962179
8.4 0.00612923
8.41 0.00274226
8.42 -0.00043258
8.43 -0.00330044
8.44 -0.00578167
8.45 -0.00779278
8.46 -0.00927797
8.47 -0.010259
8.48 -0.0107488
8.49 -0.0107839
8.5 -0.0104238
8.51 -0.0097491
8.52 -0.00884956
8.53 -0.00787227
8.54 -0.00694995
8.55 -0.00621765
8.56 -0.00581197
8.57 -0.00586649
8.58 -0.00653144
8.59 -0.00796853
8.6 -0.0102203
8.61 -0.0133595
8.62 -0.0174361
8.63 -0.0224757
8.64 -0.0284784
8.65 -0.0354962
8.66 -0.0434151
8.67 -0.0521285
8.68 -0.0615379
8.69 -0.0715289
8.7 -0.0819741
8.71 -0.0927419
8.72 -0.103687
8.73 -0.114645
8.74 -0.125483
8.75 -0.13608
8.76 -0.146328
8.77 -0.156137
8.78 -0.16539
8.79 -0.174053
8.8 -0.182122
8.81 -0.189594
8.82 -0.196487
8.83 -0.202836
8.84 -0.208687
8.85 -0.214074
8.86 -0.219124
8.87 -0.223914
8.88 -0.228527
8.89 -0.23304
8.9 -0.237522
8.91 -0.242041
8.92 -0.246647
8.93 -0.251367
8.94 -0.256214
8.95 -0.26118
8.96 -0.266242
8.97 -0.271361
8.98 -0.276475
8.99 -0.281506
9 -0.286376
9.01 -0.290997
9.02 -0.295281
9.03 -0.29914
9.04 -0.302457
9.05 -0.305141
9.06 -0.307163
9.07 -0.308473
9.08 -0.30904
9.09 -0.308846
9.1 -0.307896
9.11 -0.306132
9.12 -0.303672
9.13 -0.30058
9.14 -0.296926
9.15 -0.292791
9.16 -0.288266
9.17 -0.283437
9.18 -0.278408
9.19 -0.273294
9.2 -0.268184
9.21 -0.263159
9.22 -0.258291
9.23 -0.253636
9.24 -0.24927
9.25 -0.245203
9.26 -0.241442
9.27 -0.237986
9.28 -0.234819
9.29 -0.231917
9.3 -0.22925
9.31 -0.226779
9.32 -0.224437
9.33 -0.222176
9.34 -0.219947
9.35 -0.217707
9.36 -0.215418
9.37 -0.213038
9.38 -0.210549
9.39 -0.207943
9.4 -0.20522
9.41 -0.202388
9.42 -0.199464
9.43 -0.196472
9.44 -0.193445
9.45 -0.19042
9.46 -0.187434
9.47 -0.184519
9.48 -0.181702
9.49 -0.179004
9.5 -0.17645
9.51 -0.174035
9.52 -0.171741
9.53 -0.169542
9.54 -0.167399
9.55 -0.165262
9.56 -0.163065
9.57 -0.160713
9.58 -0.158128
9.59 -0.155221
9.6 -0.151898
9.61 -0.148067
9.62 -0.143637
9.63 -0.138475
9.64 -0.1325
9.65 -0.125685
9.66 -0.117983
9.67 -0.109358
9.68 -0.099793
9.69 -0.089286
9.7 -0.0777492
9.71 -0.0653264
9.72 -0.0520701
9.73 -0.0380449
9.74 -0.0233268
9.75 -0.00800064
9.76 0.00786374
9.77 0.0241626
9.78 0.0407672
9.79 0.057584
9.8 0.0745242
9.81 0.0915057
9.82 0.108455
9.83 0.125292
9.84 0.14197
9.85 0.158449
9.86 0.174701
9.87 0.190706
9.88 0.206453
9.89 0.221929
9.9 0.237124
9.91 0.252066
9.92 0.266757
9.93 0.281204
9.94 0.295405
9.95 0.309356
9.96 0.323018
9.97 0.336388
9.98 0.34944
9.99 0.362138
10 0.374433
10.01 0.386273
10.02 0.397582
10.03 0.408252
10.04 0.418264
10.05 0.427553
10.06 0.436058
10.07 0.443722
10.08 0.450496
10.09 0.456264
10.1 0.461044
10.11 0.464859
10.12 0.467715
10.13 0.469636
10.14 0.470658
10.15 0.470821
10.16 0.47014
10.17 0.46878
10.18 0.466835
10.19 0.464404
10.2 0.461594
10.21 0.458514
10.22 0.455266
10.23 0.451972
10.24 0.448734
10.25 0.445637
10.26 0.442754
10.27 0.440143
10.28 0.437851
10.29 0.435941
10.3 0.434382
10.31 0.433165
10.32 0.43226
10.33 0.431628
10.34 0.431211
10.35 0.430947
10.36 0.430748
10.37 0.43052
10.38 0.430176
10.39 0.429627
10.4 0.428784
10.41 0.427563
10.42 0.425825
10.43 0.423543
10.44 0.420658
10.45 0.41712
10.46 0.412887
10.47 0.407931
10.48 0.402196
10.49 0.395658
10.5 0.388371
10.51 0.380346
10.52 0.371601
10.53 0.362159
10.54 0.352049
10.55 0.341239
10.56 0.329822
10.57 0.31784
10.58 0.305326
10.59 0.292314
10.6 0.278834
10.61 0.264898
10.62 0.250522
10.63 0.235766
10.64 0.220652
10.65 0.205206
10.66 0.18945
10.67 0.17341
10.68 0.157088
10.69 0.140532
10.7 0.123779
10.71 0.10686
10.72 0.0898101
10.73 0.0726656
10.74 0.0554654
10.75 0.0382552
10.76 0.0210814
10.77 0.00398646
10.78 -0.0129879
10.79 -0.0298014
10.8 -0.0464164
10.81 -0.0627777
10.82 -0.0788619
10.83 -0.0946547
10.84 -0.110138
10.85 -0.125302
10.86 -0.140139
10.87 -0.154647
10.88 -0.168807
10.89 -0.182665
10.9 -0.19624
10.91 -0.209553
10.92 -0.222628
10.93 -0.23549
10.94 -0.248152
10.95 -0.260643
10.96 -0.272992
10.97 -0.285214
10.98 -0.297318
10.99 -0.309307
11 -0.321177
11.01 -0.332901
11.02 -0.344473
11.03 -0.355866
11.04 -0.367047
11.05 -0.377975
11.06 -0.388607
11.07 -0.398873
11.08 -0.408712
11.09 -0.418095
11.1 -0.426968
11.11 -0.435284
11.12 -0.442994
11.13 -0.450057
11.14 -0.456355
11.15 -0.461926
11.16 -0.466752
11.17 -0.470814
11.18 -0.474102
11.19 -0.476613
11.2 -0.478311
11.21 -0.479188
11.22 -0.47931
11.23 -0.478693
11.24 -0.477354
11.25 -0.475313
11.26 -0.472588
11.27 -0.469134
11.28 -0.465023
11.29 -0.46028
11.3 -0.454916
11.31 -0.448939
11.32 -0.442353
11.33 -0.43514
11.34 -0.427269
11.35 -0.418789
11.36 -0.409695
11.37 -0.399985
11.38 -0.389656
11.39 -0.378709
11.4 -0.367093
11.41 -0.354854
11.42 -0.342025
11.43 -0.328626
11.44 -0.314684
11.45 -0.300233
11.46 -0.285306
11.47 -0.269927
11.48 -0.254196
11.49 -0.238177
11.5 -0.221936
11.51 -0.205545
11.52 -0.189078
11.53 -0.172618
11.54 -0.156251
11.55 -0.140053
11.56 -0.124095
11.57 -0.108446
11.58 -0.0931699
11.59 -0.0783308
11.6 -0.064029
11.61 -0.0502603
11.62 -0.0370588
11.63 -0.0244505
11.64 -0.0124537
11.65 -0.00107918
11.66 0.0096284
11.67 0.0196829
11.68 0.0291265
11.69 0.0379742
11.7 0.046245
11.71 0.053961
11.72 0.0611454
11.73 0.0677699
11.74 0.073921
11.75 0.0796247
11.76 0.084906
11.77 0.0897889
11.78 0.0942955
11.79 0.098428
11.8 0.102205
11.81 0.105665
11.82 0.108821
11.83 0.111688
11.84 0.114275
11.85 0.116593
11.86 0.118622
11.87 0.120397
11.88 0.121926
11.89 0.123213
11.9 0.124264
11.91 0.125081
11.92 0.125654
11.93 0.125977
11.94 0.126063
11.95 0.125909
11.96 0.125505
11.97 0.124841
11.98 0.123904
11.99 0.122646
12 0.121065
12.01 0.119143
12.02 0.11685
12.03 0.114154
12.04 0.111022
12.05 0.1074
12.06 0.103218
12.07 0.0984781
12.08 0.0931412
12.09 0.0871704
12.1 0.0805313
12.11 0.0731926
12.12 0.0650638
12.13 0.056162
12.14 0.0464979
12.15 0.0360668
12.16 0.0248728
12.17 0.0129289
12.18 0.000242751
