# xPDFsuite Configuration #
[PDF]
wavelength = 0.1
dataformat = QA
inputfile = BiMsol6_insitu_700 C-00435.xy
backgroundfile = Quartz2mm-dist500-00000.xy
mode = xray
bgscale = 0.0042
composition = Bi2Fe4O9
outputtype = gr
qmaxinst = 24.998449118
qmin = 0.1
qmax = 21.4986662415
rmax = 80.0
rmin = 0.0
rstep = 0.01
rpoly = 0.9

[Misc]
inputdir = C:/Data/Seafile/CPH/Beamtime/Desy Oct 20/In situ data/Processed/BiMsol6/PDF
savedir = C:/Data/Seafile/CPH/Beamtime/Desy Oct 20/In situ data/PDF/BiMsol6
backgroundfilefull = C:/Data/Seafile/CPH/Beamtime/Desy Oct 20/In situ data/Processed/Standard_Empty_Cap/Quartz2mm-dist500-00000.xy

#### start data
#S 1
#L r($\AA$)  G($\AA^{-2}$)
0 0
0.01 0.00646673
0.02 0.0125652
0.03 0.0179802
0.04 0.0224294
0.05 0.0256759
0.06 0.0275397
0.07 0.0278242
0.08 0.0264739
0.09 0.0236363
0.1 0.0194333
0.11 0.0140535
0.12 0.007743
0.13 0.000794981
0.14 -0.00645964
0.15 -0.0136094
0.16 -0.0203065
0.17 -0.0262255
0.18 -0.0310757
0.19 -0.0346154
0.2 -0.0365972
0.21 -0.0368551
0.22 -0.0354957
0.23 -0.0325931
0.24 -0.0283017
0.25 -0.0228509
0.26 -0.0165365
0.27 -0.00969767
0.28 -0.00281109
0.29 0.00369873
0.3 0.00942024
0.31 0.0139639
0.32 0.0169814
0.33 0.0181214
0.34 0.0170421
0.35 0.0138096
0.36 0.00843201
0.37 0.00102571
0.38 -0.00818337
0.39 -0.0188632
0.4 -0.0306261
0.41 -0.0428237
0.42 -0.0548217
0.43 -0.0659749
0.44 -0.075618
0.45 -0.0830905
0.46 -0.087695
0.47 -0.0885321
0.48 -0.0854212
0.49 -0.0780078
0.5 -0.0660665
0.51 -0.0495155
0.52 -0.0284264
0.53 -0.00274588
0.54 0.0269345
0.55 0.0598443
0.56 0.0952666
0.57 0.132367
0.58 0.170217
0.59 0.207806
0.6 0.243842
0.61 0.277335
0.62 0.30728
0.63 0.332741
0.64 0.352878
0.65 0.366976
0.66 0.374037
0.67 0.373675
0.68 0.366099
0.69 0.351342
0.7 0.329631
0.71 0.301378
0.72 0.267175
0.73 0.227276
0.74 0.18326
0.75 0.136158
0.76 0.0870641
0.77 0.0371052
0.78 -0.0125859
0.79 -0.0607825
0.8 -0.106264
0.81 -0.14822
0.82 -0.185863
0.83 -0.218555
0.84 -0.245824
0.85 -0.26737
0.86 -0.282476
0.87 -0.291766
0.88 -0.295596
0.89 -0.294395
0.9 -0.288726
0.91 -0.279265
0.92 -0.266687
0.93 -0.251847
0.94 -0.235819
0.95 -0.219439
0.96 -0.203507
0.97 -0.188758
0.98 -0.175841
0.99 -0.165559
1 -0.158199
1.01 -0.153956
1.02 -0.152952
1.03 -0.155175
1.04 -0.160484
1.05 -0.168698
1.06 -0.179551
1.07 -0.192341
1.08 -0.206559
1.09 -0.221661
1.1 -0.237096
1.11 -0.252324
1.12 -0.266743
1.13 -0.279884
1.14 -0.291413
1.15 -0.301051
1.16 -0.308613
1.17 -0.314009
1.18 -0.31721
1.19 -0.318165
1.2 -0.317293
1.21 -0.314863
1.22 -0.311199
1.23 -0.306663
1.24 -0.301634
1.25 -0.296516
1.26 -0.291724
1.27 -0.287583
1.28 -0.284366
1.29 -0.282281
1.3 -0.281467
1.31 -0.281997
1.32 -0.283984
1.33 -0.287171
1.34 -0.291382
1.35 -0.296381
1.36 -0.301886
1.37 -0.307583
1.38 -0.313111
1.39 -0.318083
1.4 -0.322198
1.41 -0.325176
1.42 -0.326785
1.43 -0.326851
1.44 -0.325268
1.45 -0.321819
1.46 -0.316748
1.47 -0.310203
1.48 -0.302394
1.49 -0.293594
1.5 -0.284124
1.51 -0.274353
1.52 -0.264726
1.53 -0.255652
1.54 -0.24751
1.55 -0.240646
1.56 -0.235363
1.57 -0.231906
1.58 -0.230659
1.59 -0.231541
1.6 -0.234507
1.61 -0.239456
1.62 -0.246202
1.63 -0.254483
1.64 -0.263992
1.65 -0.274309
1.66 -0.284896
1.67 -0.295283
1.68 -0.304991
1.69 -0.313555
1.7 -0.320537
1.71 -0.325338
1.72 -0.327723
1.73 -0.327512
1.74 -0.324554
1.75 -0.318791
1.76 -0.31026
1.77 -0.299029
1.78 -0.285199
1.79 -0.269331
1.8 -0.251816
1.81 -0.233094
1.82 -0.213648
1.83 -0.193979
1.84 -0.174651
1.85 -0.1562
1.86 -0.139057
1.87 -0.123611
1.88 -0.110182
1.89 -0.0990176
1.9 -0.090313
1.91 -0.0843534
1.92 -0.0808412
1.93 -0.0796414
1.94 -0.0805381
1.95 -0.0832435
1.96 -0.0874101
1.97 -0.0926873
1.98 -0.0985682
1.99 -0.104568
2 -0.11026
2.01 -0.115244
2.02 -0.119164
2.03 -0.12171
2.04 -0.122452
2.05 -0.121414
2.06 -0.118544
2.07 -0.113872
2.08 -0.107515
2.09 -0.099666
2.1 -0.0905427
2.11 -0.0805287
2.12 -0.0700832
2.13 -0.0596244
2.14 -0.0495851
2.15 -0.0403964
2.16 -0.032472
2.17 -0.0264098
2.18 -0.0223978
2.19 -0.0206791
2.2 -0.0214381
2.21 -0.0247812
2.22 -0.0307329
2.23 -0.0393451
2.24 -0.050511
2.25 -0.0638167
2.26 -0.0789659
2.27 -0.0956087
2.28 -0.113354
2.29 -0.131784
2.3 -0.150449
2.31 -0.168854
2.32 -0.186592
2.33 -0.203289
2.34 -0.218621
2.35 -0.232318
2.36 -0.244103
2.37 -0.253735
2.38 -0.261321
2.39 -0.266886
2.4 -0.270521
2.41 -0.27238
2.42 -0.272672
2.43 -0.271563
2.44 -0.269458
2.45 -0.26671
2.46 -0.263643
2.47 -0.260573
2.48 -0.257802
2.49 -0.255625
2.5 -0.254363
2.51 -0.254137
2.52 -0.25508
2.53 -0.257267
2.54 -0.260722
2.55 -0.265412
2.56 -0.271336
2.57 -0.278301
2.58 -0.286085
2.59 -0.294485
2.6 -0.303278
2.61 -0.312229
2.62 -0.321097
2.63 -0.329598
2.64 -0.337538
2.65 -0.344732
2.66 -0.351028
2.67 -0.356305
2.68 -0.360482
2.69 -0.363439
2.7 -0.365189
2.71 -0.365828
2.72 -0.365424
2.73 -0.36407
2.74 -0.361878
2.75 -0.358975
2.76 -0.355442
2.77 -0.351492
2.78 -0.347248
2.79 -0.342822
2.8 -0.338307
2.81 -0.333773
2.82 -0.329272
2.83 -0.324825
2.84 -0.320419
2.85 -0.316021
2.86 -0.311574
2.87 -0.307006
2.88 -0.302232
2.89 -0.297112
2.9 -0.291568
2.91 -0.285508
2.92 -0.278845
2.93 -0.271503
2.94 -0.263424
2.95 -0.254533
2.96 -0.244789
2.97 -0.234257
2.98 -0.222969
2.99 -0.210977
3 -0.198351
3.01 -0.185173
3.02 -0.171508
3.03 -0.157502
3.04 -0.14327
3.05 -0.128913
3.06 -0.114522
3.07 -0.10018
3.08 -0.0859552
3.09 -0.0719078
3.1 -0.0580486
3.11 -0.0443781
3.12 -0.0308768
3.13 -0.0175062
3.14 -0.00421132
3.15 0.00908235
3.16 0.0224639
3.17 0.0360167
3.18 0.049823
3.19 0.0639589
3.2 0.0784903
3.21 0.0934777
3.22 0.10899
3.23 0.124987
3.24 0.141446
3.25 0.158319
3.26 0.175532
3.27 0.192987
3.28 0.210558
3.29 0.228078
3.3 0.245378
3.31 0.262287
3.32 0.278625
3.33 0.294215
3.34 0.308874
3.35 0.322316
3.36 0.334503
3.37 0.345319
3.38 0.354672
3.39 0.362498
3.4 0.368766
3.41 0.373378
3.42 0.376391
3.43 0.377958
3.44 0.378178
3.45 0.377175
3.46 0.375094
3.47 0.372096
3.48 0.368292
3.49 0.363965
3.5 0.3593
3.51 0.354477
3.52 0.349668
3.53 0.345031
3.54 0.340735
3.55 0.336927
3.56 0.333685
3.57 0.331087
3.58 0.329191
3.59 0.328032
3.6 0.327629
3.61 0.328056
3.62 0.329224
3.63 0.331091
3.64 0.333616
3.65 0.33675
3.66 0.340444
3.67 0.344662
3.68 0.349364
3.69 0.354465
3.7 0.359922
3.71 0.3657
3.72 0.371768
3.73 0.378099
3.74 0.384695
3.75 0.39152
3.76 0.398553
3.77 0.405781
3.78 0.413187
3.79 0.420753
3.8 0.428457
3.81 0.436271
3.82 0.444145
3.83 0.452031
3.84 0.459873
3.85 0.467609
3.86 0.475169
3.87 0.482446
3.88 0.48936
3.89 0.495834
3.9 0.50178
3.91 0.507114
3.92 0.511752
3.93 0.5156
3.94 0.51851
3.95 0.520501
3.96 0.521521
3.97 0.52153
3.98 0.520499
3.99 0.51841
4 0.51518
4.01 0.510841
4.02 0.505454
4.03 0.499043
4.04 0.491633
4.05 0.483255
4.06 0.473937
4.07 0.463626
4.08 0.452458
4.09 0.440466
4.1 0.427679
4.11 0.414125
4.12 0.39983
4.13 0.384771
4.14 0.368976
4.15 0.352501
4.16 0.335368
4.17 0.317595
4.18 0.299206
4.19 0.28023
4.2 0.260642
4.21 0.240548
4.22 0.220002
4.23 0.199063
4.24 0.177799
4.25 0.156288
4.26 0.13461
4.27 0.112869
4.28 0.0911713
4.29 0.0696172
4.3 0.0483058
4.31 0.0273343
4.32 0.00679503
4.33 -0.013166
4.34 -0.0325125
4.35 -0.0511922
4.36 -0.0691592
4.37 -0.0863831
4.38 -0.10285
4.39 -0.118533
4.4 -0.133428
4.41 -0.147631
4.42 -0.161193
4.43 -0.174179
4.44 -0.186661
4.45 -0.198716
4.46 -0.210402
4.47 -0.221833
4.48 -0.233093
4.49 -0.244251
4.5 -0.255366
4.51 -0.266486
4.52 -0.277643
4.53 -0.288857
4.54 -0.30012
4.55 -0.31141
4.56 -0.322689
4.57 -0.333906
4.58 -0.344996
4.59 -0.355859
4.6 -0.366411
4.61 -0.376569
4.62 -0.386246
4.63 -0.395356
4.64 -0.40382
4.65 -0.411554
4.66 -0.41843
4.67 -0.424481
4.68 -0.429683
4.69 -0.434032
4.7 -0.437539
4.71 -0.440233
4.72 -0.442112
4.73 -0.443264
4.74 -0.443804
4.75 -0.443818
4.76 -0.443404
4.77 -0.44266
4.78 -0.441687
4.79 -0.440582
4.8 -0.439461
4.81 -0.43841
4.82 -0.437504
4.83 -0.436807
4.84 -0.43637
4.85 -0.436248
4.86 -0.436466
4.87 -0.437013
4.88 -0.437881
4.89 -0.439053
4.9 -0.440501
4.91 -0.44219
4.92 -0.444094
4.93 -0.446142
4.94 -0.448284
4.95 -0.450473
4.96 -0.45266
4.97 -0.454802
4.98 -0.456852
4.99 -0.458765
5 -0.460515
5.01 -0.462074
5.02 -0.463413
5.03 -0.464509
5.04 -0.465337
5.05 -0.465838
5.06 -0.466005
5.07 -0.465812
5.08 -0.465218
5.09 -0.464182
5.1 -0.462652
5.11 -0.460551
5.12 -0.457778
5.13 -0.454308
5.14 -0.450069
5.15 -0.444983
5.16 -0.438974
5.17 -0.431966
5.18 -0.423787
5.19 -0.41443
5.2 -0.403871
5.21 -0.392068
5.22 -0.378991
5.23 -0.364625
5.24 -0.348941
5.25 -0.331876
5.26 -0.313589
5.27 -0.294134
5.28 -0.273583
5.29 -0.252021
5.3 -0.229542
5.31 -0.2062
5.32 -0.18215
5.33 -0.157541
5.34 -0.132488
5.35 -0.107103
5.36 -0.0814922
5.37 -0.0557552
5.38 -0.0299877
5.39 -0.00427663
5.4 0.0213143
5.41 0.0467326
5.42 0.0719369
5.43 0.0968953
5.44 0.121565
5.45 0.145929
5.46 0.169986
5.47 0.193721
5.48 0.217114
5.49 0.240137
5.5 0.262755
5.51 0.284862
5.52 0.30644
5.53 0.327408
5.54 0.347671
5.55 0.367118
5.56 0.385623
5.57 0.40298
5.58 0.419012
5.59 0.433631
5.6 0.446681
5.61 0.45801
5.62 0.467473
5.63 0.474938
5.64 0.480048
5.65 0.482916
5.66 0.483496
5.67 0.481758
5.68 0.477699
5.69 0.47135
5.7 0.462683
5.71 0.451751
5.72 0.438853
5.73 0.424152
5.74 0.407835
5.75 0.390109
5.76 0.371197
5.77 0.351257
5.78 0.330623
5.79 0.309544
5.8 0.288237
5.81 0.266906
5.82 0.245735
5.83 0.224901
5.84 0.204576
5.85 0.184828
5.86 0.165726
5.87 0.147309
5.88 0.129591
5.89 0.112559
5.9 0.0962316
5.91 0.0805141
5.92 0.0653216
5.93 0.0505836
5.94 0.0362297
5.95 0.0221948
5.96 0.00842829
5.97 -0.00509687
5.98 -0.0184213
5.99 -0.0315393
6 -0.0444217
6.01 -0.0570147
6.02 -0.0692411
6.03 -0.0809568
6.04 -0.0920387
6.05 -0.102368
6.06 -0.111797
6.07 -0.12017
6.08 -0.127336
6.09 -0.133132
6.1 -0.137268
6.11 -0.139782
6.12 -0.140589
6.13 -0.139635
6.14 -0.136896
6.15 -0.132384
6.16 -0.126042
6.17 -0.117992
6.18 -0.108453
6.19 -0.0975845
6.2 -0.0855746
6.21 -0.0726343
6.22 -0.0589925
6.23 -0.0448646
6.24 -0.0305726
6.25 -0.0163588
6.26 -0.00245507
6.27 0.0109231
6.28 0.0235824
6.29 0.0353023
6.3 0.0459211
6.31 0.0554066
6.32 0.0637051
6.33 0.0707994
6.34 0.076709
6.35 0.0814873
6.36 0.0851208
6.37 0.0878372
6.38 0.0897886
6.39 0.0911317
6.4 0.0920329
6.41 0.0926632
6.42 0.0931949
6.43 0.0938139
6.44 0.0946717
6.45 0.0958962
6.46 0.0975942
6.47 0.0998489
6.48 0.102718
6.49 0.106296
6.5 0.110539
6.51 0.115409
6.52 0.12086
6.53 0.126832
6.54 0.133247
6.55 0.140026
6.56 0.147077
6.57 0.154278
6.58 0.161538
6.59 0.168773
6.6 0.175911
6.61 0.182891
6.62 0.18965
6.63 0.196169
6.64 0.202447
6.65 0.208491
6.66 0.214325
6.67 0.219983
6.68 0.225508
6.69 0.23095
6.7 0.236378
6.71 0.241843
6.72 0.247393
6.73 0.25307
6.74 0.258901
6.75 0.264915
6.76 0.271106
6.77 0.277442
6.78 0.283887
6.79 0.290384
6.8 0.29686
6.81 0.303228
6.82 0.309354
6.83 0.31514
6.84 0.320471
6.85 0.325228
6.86 0.329292
6.87 0.332551
6.88 0.334838
6.89 0.336052
6.9 0.336168
6.91 0.335125
6.92 0.332882
6.93 0.329415
6.94 0.324718
6.95 0.318669
6.96 0.31144
6.97 0.303084
6.98 0.293665
6.99 0.283256
7 0.271941
7.01 0.259771
7.02 0.24684
7.03 0.233291
7.04 0.219213
7.05 0.20469
7.06 0.189799
7.07 0.17461
7.08 0.159167
7.09 0.143547
7.1 0.127797
7.11 0.111951
7.12 0.0960394
7.13 0.0800844
7.14 0.0641059
7.15 0.0481235
7.16 0.032156
7.17 0.0162217
7.18 0.000341782
7.19 -0.0154589
7.2 -0.0311511
7.21 -0.0466837
7.22 -0.0620216
7.23 -0.0771233
7.24 -0.0919403
7.25 -0.106421
7.26 -0.120513
7.27 -0.13415
7.28 -0.147245
7.29 -0.159794
7.3 -0.171756
7.31 -0.183102
7.32 -0.193808
7.33 -0.203862
7.34 -0.213209
7.35 -0.221893
7.36 -0.229959
7.37 -0.237444
7.38 -0.24439
7.39 -0.250851
7.4 -0.256878
7.41 -0.262516
7.42 -0.267871
7.43 -0.273011
7.44 -0.278001
7.45 -0.282901
7.46 -0.287764
7.47 -0.29264
7.48 -0.297566
7.49 -0.302564
7.5 -0.307644
7.51 -0.312803
7.52 -0.318028
7.53 -0.323294
7.54 -0.32856
7.55 -0.333776
7.56 -0.338889
7.57 -0.34384
7.58 -0.348569
7.59 -0.353012
7.6 -0.357084
7.61 -0.360717
7.62 -0.363879
7.63 -0.366522
7.64 -0.368607
7.65 -0.370101
7.66 -0.370981
7.67 -0.371161
7.68 -0.370702
7.69 -0.369611
7.7 -0.367899
7.71 -0.365583
7.72 -0.362684
7.73 -0.359203
7.74 -0.355163
7.75 -0.350633
7.76 -0.345645
7.77 -0.340232
7.78 -0.334425
7.79 -0.328254
7.8 -0.321721
7.81 -0.314884
7.82 -0.307779
7.83 -0.300434
7.84 -0.292879
7.85 -0.285146
7.86 -0.277263
7.87 -0.269268
7.88 -0.261213
7.89 -0.253141
7.9 -0.245103
7.91 -0.23715
7.92 -0.229338
7.93 -0.221751
7.94 -0.214446
7.95 -0.207479
7.96 -0.200913
7.97 -0.194808
7.98 -0.189222
7.99 -0.184223
8 -0.1799
8.01 -0.176237
8.02 -0.173256
8.03 -0.170973
8.04 -0.16939
8.05 -0.168498
8.06 -0.168324
8.07 -0.168802
8.08 -0.16986
8.09 -0.171441
8.1 -0.17348
8.11 -0.175906
8.12 -0.178647
8.13 -0.181634
8.14 -0.184758
8.15 -0.187942
8.16 -0.191114
8.17 -0.194204
8.18 -0.197152
8.19 -0.199889
8.2 -0.202367
8.21 -0.204563
8.22 -0.20645
8.23 -0.20801
8.24 -0.209231
8.25 -0.210105
8.26 -0.21059
8.27 -0.210723
8.28 -0.210502
8.29 -0.209921
8.3 -0.208971
8.31 -0.207635
8.32 -0.205866
8.33 -0.203625
8.34 -0.200893
8.35 -0.197619
8.36 -0.193745
8.37 -0.189204
8.38 -0.183924
8.39 -0.177732
8.4 -0.170627
8.41 -0.162539
8.42 -0.153399
8.43 -0.143145
8.44 -0.131724
8.45 -0.11904
8.46 -0.105035
8.47 -0.0897935
8.48 -0.0733306
8.49 -0.0556814
8.5 -0.0368998
8.51 -0.0170587
8.52 0.00383599
8.53 0.0255863
8.54 0.0480511
8.55 0.0710972
8.56 0.0945848
8.57 0.11837
8.58 0.142312
8.59 0.166251
8.6 0.190049
8.61 0.213587
8.62 0.236761
8.63 0.259482
8.64 0.281678
8.65 0.303243
8.66 0.324174
8.67 0.344476
8.68 0.364151
8.69 0.383216
8.7 0.401698
8.71 0.419622
8.72 0.436996
8.73 0.453911
8.74 0.470403
8.75 0.486499
8.76 0.502217
8.77 0.517557
8.78 0.532475
8.79 0.546943
8.8 0.560921
8.81 0.574329
8.82 0.587072
8.83 0.599034
8.84 0.610074
8.85 0.61993
8.86 0.628547
8.87 0.635766
8.88 0.641428
8.89 0.64538
8.9 0.647476
8.91 0.647448
8.92 0.645192
8.93 0.640727
8.94 0.633988
8.95 0.624941
8.96 0.613578
8.97 0.599919
8.98 0.583762
8.99 0.56546
9 0.545122
9.01 0.522881
9.02 0.498888
9.03 0.473312
9.04 0.446266
9.05 0.417956
9.06 0.388659
9.07 0.358562
9.08 0.32785
9.09 0.296697
9.1 0.265264
9.11 0.233701
9.12 0.202166
9.13 0.170772
9.14 0.139617
9.15 0.108781
9.16 0.0783315
9.17 0.0483458
9.18 0.0188898
9.19 -0.0100333
9.2 -0.0383903
9.21 -0.0661485
9.22 -0.0932733
9.23 -0.119725
9.24 -0.145384
9.25 -0.17024
9.26 -0.194241
9.27 -0.217308
9.28 -0.239352
9.29 -0.260274
9.3 -0.279923
9.31 -0.298098
9.32 -0.314784
9.33 -0.329862
9.34 -0.343213
9.35 -0.354725
9.36 -0.364295
9.37 -0.371652
9.38 -0.376818
9.39 -0.379807
9.4 -0.380583
9.41 -0.379135
9.42 -0.375474
9.43 -0.369588
9.44 -0.361383
9.45 -0.351151
9.46 -0.338997
9.47 -0.325039
9.48 -0.309414
9.49 -0.292268
9.5 -0.273668
9.51 -0.253841
9.52 -0.233008
9.53 -0.21133
9.54 -0.188964
9.55 -0.166058
9.56 -0.142751
9.57 -0.119158
9.58 -0.0954306
9.59 -0.071669
9.6 -0.0479585
9.61 -0.0243723
9.62 -0.000971633
9.63 0.0221752
9.64 0.045023
9.65 0.0675517
9.66 0.0897323
9.67 0.111538
9.68 0.132943
9.69 0.153919
9.7 0.174379
9.71 0.194335
9.72 0.213748
9.73 0.232568
9.74 0.250745
9.75 0.268218
9.76 0.284881
9.77 0.300647
9.78 0.315498
9.79 0.329363
9.8 0.342178
9.81 0.353879
9.82 0.364409
9.83 0.373587
9.84 0.381481
9.85 0.388081
9.86 0.39337
9.87 0.397346
9.88 0.400018
9.89 0.401357
9.9 0.401359
9.91 0.400168
9.92 0.397841
9.93 0.394444
9.94 0.390046
9.95 0.384723
9.96 0.378482
9.97 0.371467
9.98 0.363774
9.99 0.355477
10 0.346643
10.01 0.337333
10.02 0.327592
10.03 0.31745
10.04 0.306983
10.05 0.29622
10.06 0.285186
10.07 0.273899
10.08 0.262371
10.09 0.250595
10.1 0.238589
10.11 0.226366
10.12 0.213933
10.13 0.2013
10.14 0.188479
10.15 0.175481
10.16 0.162321
10.17 0.149042
10.18 0.135677
10.19 0.122268
10.2 0.108856
10.21 0.0954929
10.22 0.0822408
10.23 0.0691612
10.24 0.0563062
10.25 0.0437325
10.26 0.0314952
10.27 0.0196468
10.28 0.00823866
10.29 -0.00263281
10.3 -0.0129825
10.31 -0.0227839
10.32 -0.0320186
10.33 -0.0406771
10.34 -0.0487586
10.35 -0.056238
10.36 -0.0631377
10.37 -0.0695172
10.38 -0.0754108
10.39 -0.0808598
10.4 -0.0859107
10.41 -0.0906152
10.42 -0.095002
10.43 -0.0991667
10.44 -0.10317
10.45 -0.107073
10.46 -0.110934
10.47 -0.114812
10.48 -0.118769
10.49 -0.122869
10.5 -0.127154
10.51 -0.13167
10.52 -0.136458
10.53 -0.141552
10.54 -0.146985
10.55 -0.152821
10.56 -0.15905
10.57 -0.165679
10.58 -0.172717
10.59 -0.180164
10.6 -0.188018
10.61 -0.196282
10.62 -0.204953
10.63 -0.213978
10.64 -0.223326
10.65 -0.232965
10.66 -0.242854
10.67 -0.25295
10.68 -0.263216
10.69 -0.273582
10.7 -0.283991
10.71 -0.294387
10.72 -0.304714
10.73 -0.314916
10.74 -0.324935
10.75 -0.334698
10.76 -0.344179
10.77 -0.353338
10.78 -0.362144
10.79 -0.37057
10.8 -0.378602
10.81 -0.386198
10.82 -0.393379
10.83 -0.400172
10.84 -0.406597
10.85 -0.412682
10.86 -0.418462
10.87 -0.423974
10.88 -0.429248
10.89 -0.434358
10.9 -0.43935
10.91 -0.444269
10.92 -0.449157
10.93 -0.454048
10.94 -0.458974
10.95 -0.463956
10.96 -0.468997
10.97 -0.474092
10.98 -0.479223
10.99 -0.484361
11 -0.489464
11.01 -0.494462
11.02 -0.499295
11.03 -0.503888
11.04 -0.50816
11.05 -0.512026
11.06 -0.515399
11.07 -0.518153
11.08 -0.520189
11.09 -0.521465
11.1 -0.52191
11.11 -0.521466
11.12 -0.520084
11.13 -0.51773
11.14 -0.514273
11.15 -0.509813
11.16 -0.504371
11.17 -0.497975
11.18 -0.490666
11.19 -0.482499
11.2 -0.473505
11.21 -0.463751
11.22 -0.453372
11.23 -0.442452
11.24 -0.431073
11.25 -0.419317
11.26 -0.407261
11.27 -0.394957
11.28 -0.382489
11.29 -0.36991
11.3 -0.357253
11.31 -0.344542
11.32 -0.331787
11.33 -0.318983
11.34 -0.30611
11.35 -0.293144
11.36 -0.280051
11.37 -0.266786
11.38 -0.253304
11.39 -0.239555
11.4 -0.225457
11.41 -0.210977
11.42 -0.196083
11.43 -0.180742
11.44 -0.164927
11.45 -0.148621
11.46 -0.131806
11.47 -0.114456
11.48 -0.0966346
11.49 -0.0783701
11.5 -0.0597001
11.51 -0.0406698
11.52 -0.0213308
11.53 -0.0017244
11.54 0.0180731
11.55 0.0379928
11.56 0.0579773
11.57 0.0779731
11.58 0.0979317
11.59 0.11781
11.6 0.13756
11.61 0.157166
11.62 0.176615
11.63 0.195899
11.64 0.215018
11.65 0.23398
11.66 0.252789
11.67 0.271464
11.68 0.290031
11.69 0.308507
11.7 0.326905
11.71 0.345234
11.72 0.363497
11.73 0.381678
11.74 0.399765
11.75 0.417731
11.76 0.435534
11.77 0.453122
11.78 0.470432
11.79 0.487367
11.8 0.503828
11.81 0.519745
11.82 0.53502
11.83 0.549555
11.84 0.563246
11.85 0.575995
11.86 0.587582
11.87 0.598014
11.88 0.607219
11.89 0.615127
11.9 0.62168
11.91 0.626833
11.92 0.630488
11.93 0.632581
11.94 0.633216
11.95 0.6324
11.96 0.630152
11.97 0.626503
11.98 0.621488
11.99 0.615027
12 0.607277
12.01 0.598312
12.02 0.588184
12.03 0.576942
12.04 0.564632
12.05 0.551264
12.06 0.536832
12.07 0.521453
12.08 0.505156
12.09 0.487963
12.1 0.469898
12.11 0.450978
12.12 0.431154
12.13 0.410495
12.14 0.389052
12.15 0.366856
12.16 0.343946
12.17 0.320369
12.18 0.296171
12.19 0.271393
12.2 0.246177
12.21 0.22062
12.22 0.194833
12.23 0.168936
12.24 0.143062
