# xPDFsuite Configuration #
[PDF]
wavelength = 0.1
dataformat = QA
inputfile = BiMsol6_insitu_700 C-00410.xy
backgroundfile = Quartz2mm-dist500-00000.xy
mode = xray
bgscale = 0.0042
composition = Bi2Fe4O9
outputtype = gr
qmaxinst = 24.998449118
qmin = 0.1
qmax = 21.4986662415
rmax = 80.0
rmin = 0.0
rstep = 0.01
rpoly = 0.9

[Misc]
inputdir = C:/Data/Seafile/CPH/Beamtime/Desy Oct 20/In situ data/Processed/BiMsol6/PDF
savedir = C:/Data/Seafile/CPH/Beamtime/Desy Oct 20/In situ data/PDF/BiMsol6
backgroundfilefull = C:/Data/Seafile/CPH/Beamtime/Desy Oct 20/In situ data/Processed/Standard_Empty_Cap/Quartz2mm-dist500-00000.xy

#### start data
#S 1
#L r($\AA$)  G($\AA^{-2}$)
0 0
0.01 0.00648052
0.02 0.0125957
0.03 0.0180327
0.04 0.022511
0.05 0.0257949
0.06 0.0277048
0.07 0.028044
0.08 0.0267551
0.09 0.0239825
0.1 0.0198448
0.11 0.0145263
0.12 0.00826876
0.13 0.00136077
0.14 -0.00587352
0.15 -0.0130253
0.16 -0.0197496
0.17 -0.025723
0.18 -0.0306553
0.19 -0.0343039
0.2 -0.0364199
0.21 -0.0368329
0.22 -0.0356416
0.23 -0.0329128
0.24 -0.0287923
0.25 -0.0235002
0.26 -0.0173227
0.27 -0.0105855
0.28 -0.00375772
0.29 0.00274283
0.3 0.00851031
0.31 0.0131588
0.32 0.016341
0.33 0.0177052
0.34 0.0169069
0.35 0.0139981
0.36 0.00897529
0.37 0.00194026
0.38 -0.00689796
0.39 -0.0172261
0.4 -0.0286813
0.41 -0.0406363
0.42 -0.0524751
0.43 -0.0635706
0.44 -0.0732734
0.45 -0.0809356
0.46 -0.0858711
0.47 -0.0871954
0.48 -0.0847109
0.49 -0.0780547
0.5 -0.0669867
0.51 -0.0514045
0.52 -0.0313538
0.53 -0.00675047
0.54 0.021856
0.55 0.0537358
0.56 0.0882134
0.57 0.124496
0.58 0.161696
0.59 0.198844
0.6 0.23471
0.61 0.268308
0.62 0.298656
0.63 0.324828
0.64 0.345991
0.65 0.361424
0.66 0.370132
0.67 0.371694
0.68 0.366268
0.69 0.353841
0.7 0.334586
0.71 0.308858
0.72 0.277182
0.73 0.239733
0.74 0.198021
0.75 0.153013
0.76 0.10574
0.77 0.0572734
0.78 0.00869882
0.79 -0.0388178
0.8 -0.0840924
0.81 -0.126297
0.82 -0.164644
0.83 -0.198479
0.84 -0.227301
0.85 -0.25077
0.86 -0.268141
0.87 -0.27994
0.88 -0.286445
0.89 -0.288007
0.9 -0.285106
0.91 -0.278337
0.92 -0.268286
0.93 -0.255713
0.94 -0.241639
0.95 -0.226846
0.96 -0.212089
0.97 -0.198073
0.98 -0.18543
0.99 -0.174924
1 -0.166892
1.01 -0.161574
1.02 -0.15914
1.03 -0.159638
1.04 -0.162999
1.05 -0.169117
1.06 -0.17782
1.07 -0.188503
1.08 -0.200742
1.09 -0.214075
1.1 -0.228026
1.11 -0.242119
1.12 -0.255839
1.13 -0.268743
1.14 -0.280499
1.15 -0.290833
1.16 -0.299543
1.17 -0.30651
1.18 -0.311663
1.19 -0.314911
1.2 -0.316558
1.21 -0.316791
1.22 -0.315844
1.23 -0.313986
1.24 -0.311505
1.25 -0.308692
1.26 -0.305876
1.27 -0.303322
1.28 -0.301246
1.29 -0.299815
1.3 -0.299142
1.31 -0.299287
1.32 -0.300325
1.33 -0.302088
1.34 -0.304449
1.35 -0.307236
1.36 -0.310246
1.37 -0.31325
1.38 -0.315982
1.39 -0.318173
1.4 -0.319625
1.41 -0.320155
1.42 -0.319619
1.43 -0.317924
1.44 -0.31503
1.45 -0.310834
1.46 -0.30556
1.47 -0.299365
1.48 -0.292453
1.49 -0.28507
1.5 -0.277497
1.51 -0.270057
1.52 -0.263117
1.53 -0.25697
1.54 -0.251896
1.55 -0.248143
1.56 -0.245911
1.57 -0.245343
1.58 -0.246696
1.59 -0.249818
1.6 -0.254596
1.61 -0.260875
1.62 -0.26843
1.63 -0.276977
1.64 -0.286188
1.65 -0.29564
1.66 -0.304877
1.67 -0.313482
1.68 -0.321047
1.69 -0.327186
1.7 -0.331549
1.71 -0.333632
1.72 -0.333315
1.73 -0.330516
1.74 -0.325173
1.75 -0.317312
1.76 -0.307041
1.77 -0.294499
1.78 -0.279866
1.79 -0.263687
1.8 -0.246359
1.81 -0.228316
1.82 -0.210014
1.83 -0.191915
1.84 -0.174556
1.85 -0.158387
1.86 -0.14375
1.87 -0.130959
1.88 -0.120258
1.89 -0.111815
1.9 -0.105752
1.91 -0.102268
1.92 -0.101021
1.93 -0.101833
1.94 -0.104456
1.95 -0.108587
1.96 -0.113871
1.97 -0.119947
1.98 -0.12634
1.99 -0.13261
2 -0.138373
2.01 -0.143276
2.02 -0.147011
2.03 -0.14932
2.04 -0.149829
2.05 -0.148609
2.06 -0.145646
2.07 -0.140999
2.08 -0.1348
2.09 -0.127253
2.1 -0.118574
2.11 -0.109127
2.12 -0.0993325
2.13 -0.0895666
2.14 -0.0802129
2.15 -0.0716468
2.16 -0.0642219
2.17 -0.0584479
2.18 -0.0544656
2.19 -0.0524645
2.2 -0.0525808
2.21 -0.0548822
2.22 -0.0593658
2.23 -0.0660488
2.24 -0.0748148
2.25 -0.0853002
2.26 -0.0972419
2.27 -0.110338
2.28 -0.124257
2.29 -0.138654
2.3 -0.153157
2.31 -0.16738
2.32 -0.181009
2.33 -0.193767
2.34 -0.205418
2.35 -0.215777
2.36 -0.224662
2.37 -0.231927
2.38 -0.237691
2.39 -0.242014
2.4 -0.245003
2.41 -0.246814
2.42 -0.247637
2.43 -0.247651
2.44 -0.247171
2.45 -0.246472
2.46 -0.2458
2.47 -0.245392
2.48 -0.24546
2.49 -0.246209
2.5 -0.247857
2.51 -0.250438
2.52 -0.254004
2.53 -0.258565
2.54 -0.264088
2.55 -0.270499
2.56 -0.277735
2.57 -0.285607
2.58 -0.293912
2.59 -0.302467
2.6 -0.311079
2.61 -0.319558
2.62 -0.327713
2.63 -0.335312
2.64 -0.342248
2.65 -0.348403
2.66 -0.353689
2.67 -0.358046
2.68 -0.361446
2.69 -0.363831
2.7 -0.365249
2.71 -0.365808
2.72 -0.365585
2.73 -0.364667
2.74 -0.363151
2.75 -0.361136
2.76 -0.358677
2.77 -0.355915
2.78 -0.352914
2.79 -0.349726
2.8 -0.346378
2.81 -0.342878
2.82 -0.339198
2.83 -0.335292
2.84 -0.331108
2.85 -0.326569
2.86 -0.321587
2.87 -0.316064
2.88 -0.309901
2.89 -0.302911
2.9 -0.295068
2.91 -0.286305
2.92 -0.276563
2.93 -0.265804
2.94 -0.254012
2.95 -0.241152
2.96 -0.227231
2.97 -0.212388
2.98 -0.196705
2.99 -0.180283
3 -0.163239
3.01 -0.1457
3.02 -0.127781
3.03 -0.109661
3.04 -0.0914796
3.05 -0.0733626
3.06 -0.0554229
3.07 -0.037758
3.08 -0.0204612
3.09 -0.00361941
3.1 0.0127656
3.11 0.0286815
3.12 0.0441355
3.13 0.0591524
3.14 0.0737721
3.15 0.0880222
3.16 0.101989
3.17 0.115746
3.18 0.129358
3.19 0.142881
3.2 0.156363
3.21 0.16984
3.22 0.183337
3.23 0.196853
3.24 0.21037
3.25 0.223852
3.26 0.237246
3.27 0.250482
3.28 0.263456
3.29 0.276067
3.3 0.288227
3.31 0.299833
3.32 0.310785
3.33 0.320988
3.34 0.330349
3.35 0.338701
3.36 0.346085
3.37 0.352467
3.38 0.357835
3.39 0.362199
3.4 0.365587
3.41 0.367994
3.42 0.369508
3.43 0.370264
3.44 0.370363
3.45 0.369912
3.46 0.369024
3.47 0.367816
3.48 0.36639
3.49 0.36489
3.5 0.363417
3.51 0.36206
3.52 0.360897
3.53 0.359994
3.54 0.35942
3.55 0.359224
3.56 0.359406
3.57 0.359979
3.58 0.360946
3.59 0.362305
3.6 0.364047
3.61 0.366201
3.62 0.368723
3.63 0.371601
3.64 0.374836
3.65 0.378431
3.66 0.382396
3.67 0.386766
3.68 0.391581
3.69 0.396841
3.7 0.402577
3.71 0.408821
3.72 0.415601
3.73 0.422943
3.74 0.430917
3.75 0.439489
3.76 0.448632
3.77 0.458318
3.78 0.468503
3.79 0.479122
3.8 0.490095
3.81 0.501316
3.82 0.512627
3.83 0.523884
3.84 0.534926
3.85 0.545583
3.86 0.555677
3.87 0.564947
3.88 0.573225
3.89 0.580361
3.9 0.586191
3.91 0.590562
3.92 0.593341
3.93 0.594381
3.94 0.593439
3.95 0.590625
3.96 0.585908
3.97 0.579281
3.98 0.57076
3.99 0.560389
4 0.54811
4.01 0.534065
4.02 0.518439
4.03 0.501344
4.04 0.482904
4.05 0.463243
4.06 0.442484
4.07 0.420667
4.08 0.398027
4.09 0.374678
4.1 0.350721
4.11 0.32625
4.12 0.301347
4.13 0.276069
4.14 0.25049
4.15 0.224684
4.16 0.198703
4.17 0.172594
4.18 0.146402
4.19 0.120176
4.2 0.0939743
4.21 0.0678579
4.22 0.0418908
4.23 0.0161446
4.24 -0.00930146
4.25 -0.0343608
4.26 -0.0589119
4.27 -0.0828308
4.28 -0.10605
4.29 -0.128468
4.3 -0.149987
4.31 -0.170515
4.32 -0.189969
4.33 -0.208155
4.34 -0.225113
4.35 -0.240825
4.36 -0.255277
4.37 -0.268472
4.38 -0.280439
4.39 -0.291179
4.4 -0.300726
4.41 -0.309261
4.42 -0.316887
4.43 -0.323719
4.44 -0.329881
4.45 -0.3355
4.46 -0.340677
4.47 -0.345576
4.48 -0.350322
4.49 -0.355013
4.5 -0.359735
4.51 -0.364553
4.52 -0.369519
4.53 -0.374667
4.54 -0.379981
4.55 -0.385437
4.56 -0.390992
4.57 -0.396584
4.58 -0.402138
4.59 -0.407553
4.6 -0.412726
4.61 -0.41757
4.62 -0.421989
4.63 -0.4259
4.64 -0.429226
4.65 -0.431896
4.66 -0.433804
4.67 -0.434996
4.68 -0.435474
4.69 -0.435262
4.7 -0.434402
4.71 -0.43296
4.72 -0.430989
4.73 -0.428613
4.74 -0.425967
4.75 -0.423172
4.76 -0.420349
4.77 -0.417622
4.78 -0.41511
4.79 -0.412968
4.8 -0.411263
4.81 -0.410074
4.82 -0.409461
4.83 -0.409465
4.84 -0.410105
4.85 -0.411419
4.86 -0.413381
4.87 -0.415911
4.88 -0.41895
4.89 -0.422427
4.9 -0.42626
4.91 -0.430359
4.92 -0.43464
4.93 -0.438982
4.94 -0.443292
4.95 -0.447486
4.96 -0.451485
4.97 -0.455223
4.98 -0.458624
4.99 -0.461627
5 -0.464223
5.01 -0.466388
5.02 -0.468109
5.03 -0.469375
5.04 -0.470184
5.05 -0.470488
5.06 -0.470322
5.07 -0.469686
5.08 -0.468571
5.09 -0.466955
5.1 -0.46481
5.11 -0.462076
5.12 -0.458667
5.13 -0.454567
5.14 -0.449703
5.15 -0.443996
5.16 -0.437359
5.17 -0.429702
5.18 -0.420827
5.19 -0.410699
5.2 -0.399266
5.21 -0.386453
5.22 -0.372195
5.23 -0.356441
5.24 -0.339116
5.25 -0.320095
5.26 -0.299525
5.27 -0.277429
5.28 -0.253847
5.29 -0.228836
5.3 -0.202472
5.31 -0.17475
5.32 -0.145834
5.33 -0.115885
5.34 -0.085019
5.35 -0.053356
5.36 -0.0210167
5.37 0.0118857
5.38 0.0452614
5.39 0.0789462
5.4 0.112837
5.41 0.146837
5.42 0.180857
5.43 0.21481
5.44 0.248599
5.45 0.282137
5.46 0.315352
5.47 0.348161
5.48 0.380475
5.49 0.4122
5.5 0.443228
5.51 0.473336
5.52 0.502473
5.53 0.530495
5.54 0.557241
5.55 0.582541
5.56 0.606215
5.57 0.627963
5.58 0.647547
5.59 0.66489
5.6 0.679802
5.61 0.692104
5.62 0.701634
5.63 0.708244
5.64 0.711475
5.65 0.711533
5.66 0.708391
5.67 0.702034
5.68 0.692484
5.69 0.6798
5.7 0.663952
5.71 0.645019
5.72 0.6234
5.73 0.599307
5.74 0.572979
5.75 0.544676
5.76 0.514673
5.77 0.483151
5.78 0.450541
5.79 0.417157
5.8 0.383278
5.81 0.349163
5.82 0.315056
5.83 0.281187
5.84 0.247789
5.85 0.214994
5.86 0.182922
5.87 0.151665
5.88 0.121287
5.89 0.0918242
5.9 0.0633713
5.91 0.0358691
5.92 0.00926742
5.93 -0.0164627
5.94 -0.0413525
5.95 -0.0654309
5.96 -0.0887024
5.97 -0.111119
5.98 -0.132747
5.99 -0.153557
6 -0.173504
6.01 -0.192518
6.02 -0.210514
6.03 -0.227294
6.04 -0.242757
6.05 -0.256818
6.06 -0.269339
6.07 -0.280181
6.08 -0.28921
6.09 -0.29628
6.1 -0.301076
6.11 -0.303725
6.12 -0.304173
6.13 -0.302395
6.14 -0.2984
6.15 -0.292231
6.16 -0.283839
6.17 -0.273381
6.18 -0.261124
6.19 -0.247251
6.2 -0.231971
6.21 -0.215513
6.22 -0.198121
6.23 -0.179999
6.24 -0.161505
6.25 -0.142889
6.26 -0.124386
6.27 -0.106216
6.28 -0.0885743
6.29 -0.0716736
6.3 -0.0556755
6.31 -0.0406268
6.32 -0.0265845
6.33 -0.0135706
6.34 -0.0015721
6.35 0.0094564
6.36 0.019506
6.37 0.0287769
6.38 0.0374057
6.39 0.0455341
6.4 0.0533127
6.41 0.0608962
6.42 0.0684426
6.43 0.076122
6.44 0.0840678
6.45 0.0923962
6.46 0.101205
6.47 0.110571
6.48 0.120548
6.49 0.131232
6.5 0.142582
6.51 0.154569
6.52 0.16716
6.53 0.180305
6.54 0.193943
6.55 0.208016
6.56 0.222457
6.57 0.237154
6.58 0.252034
6.59 0.267026
6.6 0.282071
6.61 0.297115
6.62 0.31211
6.63 0.327027
6.64 0.341849
6.65 0.356569
6.66 0.371186
6.67 0.385707
6.68 0.40014
6.69 0.414488
6.7 0.428768
6.71 0.44298
6.72 0.457115
6.73 0.471155
6.74 0.485068
6.75 0.498788
6.76 0.512248
6.77 0.525371
6.78 0.538059
6.79 0.5502
6.8 0.561667
6.81 0.572315
6.82 0.581885
6.83 0.590319
6.84 0.597464
6.85 0.603173
6.86 0.607304
6.87 0.609723
6.88 0.610192
6.89 0.608605
6.9 0.604982
6.91 0.599264
6.92 0.591412
6.93 0.581407
6.94 0.569255
6.95 0.554746
6.96 0.538172
6.97 0.519609
6.98 0.499145
6.99 0.476883
7 0.452937
7.01 0.427357
7.02 0.400272
7.03 0.37192
7.04 0.342438
7.05 0.311961
7.06 0.280625
7.07 0.248558
7.08 0.215838
7.09 0.182649
7.1 0.149114
7.11 0.115339
7.12 0.0814263
7.13 0.0474721
7.14 0.0135748
7.15 -0.020159
7.16 -0.0536491
7.17 -0.0868121
7.18 -0.119566
7.19 -0.151829
7.2 -0.18352
7.21 -0.214493
7.22 -0.244703
7.23 -0.274088
7.24 -0.302573
7.25 -0.330085
7.26 -0.356554
7.27 -0.381885
7.28 -0.405939
7.29 -0.428768
7.3 -0.450328
7.31 -0.470588
7.32 -0.489525
7.33 -0.507124
7.34 -0.523275
7.35 -0.538047
7.36 -0.551507
7.37 -0.563683
7.38 -0.574612
7.39 -0.584335
7.4 -0.592884
7.41 -0.600225
7.42 -0.606531
7.43 -0.611859
7.44 -0.616266
7.45 -0.619808
7.46 -0.622537
7.47 -0.624454
7.48 -0.625624
7.49 -0.626122
7.5 -0.625981
7.51 -0.625227
7.52 -0.623882
7.53 -0.621958
7.54 -0.61941
7.55 -0.616307
7.56 -0.612653
7.57 -0.608449
7.58 -0.603697
7.59 -0.598395
7.6 -0.592512
7.61 -0.586047
7.62 -0.579036
7.63 -0.571484
7.64 -0.563395
7.65 -0.55478
7.66 -0.545649
7.67 -0.535961
7.68 -0.525789
7.69 -0.515152
7.7 -0.504072
7.71 -0.49257
7.72 -0.48067
7.73 -0.468382
7.74 -0.455729
7.75 -0.442765
7.76 -0.429523
7.77 -0.416036
7.78 -0.402339
7.79 -0.388471
7.8 -0.374467
7.81 -0.360388
7.82 -0.346288
7.83 -0.332221
7.84 -0.318245
7.85 -0.304425
7.86 -0.290838
7.87 -0.277576
7.88 -0.264694
7.89 -0.252266
7.9 -0.240368
7.91 -0.229071
7.92 -0.218447
7.93 -0.208636
7.94 -0.199658
7.95 -0.191546
7.96 -0.184342
7.97 -0.178081
7.98 -0.172784
7.99 -0.168487
8 -0.16525
8.01 -0.162966
8.02 -0.161606
8.03 -0.161126
8.04 -0.161477
8.05 -0.162595
8.06 -0.16446
8.07 -0.166959
8.08 -0.169985
8.09 -0.173456
8.1 -0.177291
8.11 -0.181411
8.12 -0.185743
8.13 -0.190223
8.14 -0.194771
8.15 -0.199335
8.16 -0.203871
8.17 -0.208343
8.18 -0.212724
8.19 -0.216985
8.2 -0.221112
8.21 -0.225099
8.22 -0.22894
8.23 -0.232626
8.24 -0.236148
8.25 -0.239489
8.26 -0.242605
8.27 -0.245485
8.28 -0.248089
8.29 -0.250365
8.3 -0.252252
8.31 -0.253677
8.32 -0.254519
8.33 -0.254666
8.34 -0.254051
8.35 -0.252564
8.36 -0.250095
8.37 -0.246531
8.38 -0.241765
8.39 -0.235539
8.4 -0.227886
8.41 -0.218737
8.42 -0.208028
8.43 -0.195712
8.44 -0.181762
8.45 -0.166095
8.46 -0.148686
8.47 -0.129691
8.48 -0.109167
8.49 -0.0871905
8.5 -0.0638526
8.51 -0.039258
8.52 -0.0134223
8.53 0.0134266
8.54 0.0411404
8.55 0.0695922
8.56 0.0986586
8.57 0.128223
8.58 0.158186
8.59 0.188455
8.6 0.218917
8.61 0.249505
8.62 0.280166
8.63 0.31086
8.64 0.341556
8.65 0.372234
8.66 0.402882
8.67 0.433493
8.68 0.46406
8.69 0.494574
8.7 0.525016
8.71 0.555358
8.72 0.585542
8.73 0.615518
8.74 0.645208
8.75 0.674514
8.76 0.703317
8.77 0.731482
8.78 0.758778
8.79 0.785034
8.8 0.810093
8.81 0.833754
8.82 0.855813
8.83 0.876059
8.84 0.894261
8.85 0.909991
8.86 0.923282
8.87 0.933969
8.88 0.941909
8.89 0.946983
8.9 0.949098
8.91 0.947994
8.92 0.943676
8.93 0.936311
8.94 0.925933
8.95 0.912608
8.96 0.896427
8.97 0.8775
8.98 0.855679
8.99 0.83143
9 0.804918
9.01 0.776312
9.02 0.745786
9.03 0.713508
9.04 0.679572
9.05 0.644145
9.06 0.607474
9.07 0.569694
9.08 0.530931
9.09 0.491297
9.1 0.450895
9.11 0.409757
9.12 0.368043
9.13 0.325842
9.14 0.283235
9.15 0.240306
9.16 0.197145
9.17 0.15385
9.18 0.110544
9.19 0.0673635
9.2 0.0244478
9.21 -0.0180472
9.22 -0.0599506
9.23 -0.101077
9.24 -0.141114
9.25 -0.1799
9.26 -0.217238
9.27 -0.252906
9.28 -0.286685
9.29 -0.31836
9.3 -0.347646
9.31 -0.374193
9.32 -0.398035
9.33 -0.419028
9.34 -0.437053
9.35 -0.452023
9.36 -0.463879
9.37 -0.472327
9.38 -0.477544
9.39 -0.479675
9.4 -0.478793
9.41 -0.474998
9.42 -0.468411
9.43 -0.459125
9.44 -0.44713
9.45 -0.432852
9.46 -0.416468
9.47 -0.398158
9.48 -0.3781
9.49 -0.356466
9.5 -0.333329
9.51 -0.308903
9.52 -0.283386
9.53 -0.256902
9.54 -0.229563
9.55 -0.201466
9.56 -0.172695
9.57 -0.143277
9.58 -0.113355
9.59 -0.0829957
9.6 -0.0522676
9.61 -0.0212415
9.62 0.0100059
9.63 0.041392
9.64 0.072804
9.65 0.104125
9.66 0.135231
9.67 0.165985
9.68 0.196241
9.69 0.225839
9.7 0.254496
9.71 0.282118
9.72 0.308528
9.73 0.333556
9.74 0.357035
9.75 0.378808
9.76 0.398633
9.77 0.416342
9.78 0.431963
9.79 0.445426
9.8 0.456687
9.81 0.465731
9.82 0.472571
9.83 0.47703
9.84 0.479387
9.85 0.479768
9.86 0.478293
9.87 0.4751
9.88 0.470339
9.89 0.464118
9.9 0.45658
9.91 0.447992
9.92 0.438509
9.93 0.428276
9.94 0.417423
9.95 0.406065
9.96 0.394263
9.97 0.382127
9.98 0.369712
9.99 0.357043
10 0.344128
10.01 0.330956
10.02 0.317491
10.03 0.303672
10.04 0.289477
10.05 0.274858
10.06 0.259766
10.07 0.244159
10.08 0.228003
10.09 0.21123
10.1 0.193863
10.11 0.175937
10.12 0.157486
10.13 0.138564
10.14 0.119244
10.15 0.0996109
10.16 0.0797699
10.17 0.0598714
10.18 0.0400457
10.19 0.0204289
10.2 0.00115822
10.21 -0.0176317
10.22 -0.0357608
10.23 -0.0531123
10.24 -0.0696157
10.25 -0.0851895
10.26 -0.0997723
10.27 -0.113324
10.28 -0.125819
10.29 -0.13716
10.3 -0.147494
10.31 -0.156874
10.32 -0.165372
10.33 -0.173074
10.34 -0.180079
10.35 -0.186466
10.36 -0.192366
10.37 -0.197927
10.38 -0.203259
10.39 -0.208466
10.4 -0.213642
10.41 -0.218871
10.42 -0.224242
10.43 -0.229797
10.44 -0.23557
10.45 -0.24158
10.46 -0.247828
10.47 -0.254304
10.48 -0.260994
10.49 -0.267862
10.5 -0.274853
10.51 -0.281919
10.52 -0.289013
10.53 -0.296089
10.54 -0.303104
10.55 -0.310006
10.56 -0.316773
10.57 -0.323387
10.58 -0.329839
10.59 -0.336129
10.6 -0.342269
10.61 -0.348274
10.62 -0.35417
10.63 -0.360003
10.64 -0.365812
10.65 -0.371636
10.66 -0.377515
10.67 -0.383486
10.68 -0.389596
10.69 -0.395865
10.7 -0.402305
10.71 -0.408922
10.72 -0.415713
10.73 -0.422665
10.74 -0.429756
10.75 -0.436953
10.76 -0.444202
10.77 -0.451452
10.78 -0.458648
10.79 -0.465732
10.8 -0.472645
10.81 -0.479308
10.82 -0.48567
10.83 -0.491692
10.84 -0.497335
10.85 -0.502566
10.86 -0.507363
10.87 -0.511705
10.88 -0.515551
10.89 -0.518955
10.9 -0.521933
10.91 -0.524508
10.92 -0.526707
10.93 -0.528563
10.94 -0.53009
10.95 -0.53133
10.96 -0.532328
10.97 -0.533107
10.98 -0.533685
10.99 -0.534072
11 -0.534266
11.01 -0.534235
11.02 -0.533979
11.03 -0.533468
11.04 -0.53266
11.05 -0.531508
11.06 -0.529959
11.07 -0.527924
11.08 -0.525332
11.09 -0.522149
11.1 -0.518317
11.11 -0.513782
11.12 -0.508496
11.13 -0.50242
11.14 -0.495433
11.15 -0.487601
11.16 -0.478927
11.17 -0.469421
11.18 -0.459105
11.19 -0.448012
11.2 -0.436157
11.21 -0.423586
11.22 -0.410416
11.23 -0.396716
11.24 -0.382561
11.25 -0.368027
11.26 -0.35319
11.27 -0.338107
11.28 -0.322872
11.29 -0.307551
11.3 -0.292198
11.31 -0.276856
11.32 -0.261563
11.33 -0.246345
11.34 -0.231225
11.35 -0.216199
11.36 -0.201263
11.37 -0.186402
11.38 -0.171599
11.39 -0.156828
11.4 -0.142056
11.41 -0.127249
11.42 -0.112373
11.43 -0.0973947
11.44 -0.0822834
11.45 -0.0670098
11.46 -0.0515431
11.47 -0.035844
11.48 -0.0199134
11.49 -0.00373814
11.5 0.0126909
11.51 0.0293793
11.52 0.0463296
11.53 0.0635615
11.54 0.0810625
11.55 0.0988181
11.56 0.116824
11.57 0.135074
11.58 0.153564
11.59 0.172291
11.6 0.191271
11.61 0.210476
11.62 0.229899
11.63 0.249534
11.64 0.269373
11.65 0.289407
11.66 0.309632
11.67 0.330026
11.68 0.350555
11.69 0.37119
11.7 0.391896
11.71 0.41263
11.72 0.433343
11.73 0.453961
11.74 0.474424
11.75 0.494658
11.76 0.514586
11.77 0.534126
11.78 0.553191
11.79 0.571654
11.8 0.589406
11.81 0.606391
11.82 0.62252
11.83 0.637706
11.84 0.651866
11.85 0.664921
11.86 0.676666
11.87 0.687146
11.88 0.696316
11.89 0.704129
11.9 0.710543
11.91 0.715526
11.92 0.718987
11.93 0.720862
11.94 0.721247
11.95 0.720136
11.96 0.71753
11.97 0.71343
11.98 0.707843
11.99 0.700638
12 0.691942
12.01 0.6818
12.02 0.670231
12.03 0.657255
12.04 0.642897
12.05 0.627141
12.06 0.609957
12.07 0.591499
12.08 0.57181
12.09 0.550946
12.1 0.528967
12.11 0.505943
12.12 0.481879
12.13 0.45693
12.14 0.431228
12.15 0.404885
12.16 0.378022
12.17 0.35077
12.18 0.323264
12.19 0.295657
12.2 0.268121
12.21 0.240805
12.22 0.213861
12.23 0.187437
12.24 0.161676
12.25 0.136787
12.26 0.112887
12.27 0.0900576
