# xPDFsuite Configuration #
[PDF]
wavelength = 0.1
dataformat = QA
inputfile = BiMsol6_insitu_700 C-00501.xy
backgroundfile = Quartz2mm-dist500-00000.xy
mode = xray
bgscale = 0.0042
composition = Bi2Fe4O9
outputtype = gr
qmaxinst = 24.998449118
qmin = 0.1
qmax = 21.4986662415
rmax = 80.0
rmin = 0.0
rstep = 0.01
rpoly = 0.9

[Misc]
inputdir = C:/Data/Seafile/CPH/Beamtime/Desy Oct 20/In situ data/Processed/BiMsol6/PDF
savedir = C:/Data/Seafile/CPH/Beamtime/Desy Oct 20/In situ data/PDF/BiMsol6
backgroundfilefull = C:/Data/Seafile/CPH/Beamtime/Desy Oct 20/In situ data/Processed/Standard_Empty_Cap/Quartz2mm-dist500-00000.xy

#### start data
#S 1
#L r($\AA$)  G($\AA^{-2}$)
0 0
0.01 0.00620454
0.02 0.0120581
0.03 0.0172604
0.04 0.0215417
0.05 0.0246758
0.06 0.0264901
0.07 0.0267956
0.08 0.0255372
0.09 0.0228534
0.1 0.0188581
0.11 0.0137283
0.12 0.00769602
0.13 0.00103841
0.14 -0.00593338
0.15 -0.0128267
0.16 -0.0193104
0.17 -0.0250736
0.18 -0.0298377
0.19 -0.0333697
0.2 -0.0354301
0.21 -0.0358552
0.22 -0.0347392
0.23 -0.0321457
0.24 -0.0282141
0.25 -0.023155
0.26 -0.0172422
0.27 -0.010787
0.28 -0.00423892
0.29 0.00200188
0.3 0.00754693
0.31 0.0120268
0.32 0.0151091
0.33 0.0164573
0.34 0.0157422
0.35 0.0130129
0.36 0.00826576
0.37 0.00159802
0.38 -0.00679087
0.39 -0.016602
0.4 -0.0274893
0.41 -0.0388548
0.42 -0.0501113
0.43 -0.0606618
0.44 -0.0698884
0.45 -0.0771754
0.46 -0.0818716
0.47 -0.0831384
0.48 -0.0807912
0.49 -0.0744887
0.5 -0.0640075
0.51 -0.0492562
0.52 -0.0302844
0.53 -0.00702177
0.54 0.0200023
0.55 0.0500891
0.56 0.0825902
0.57 0.116747
0.58 0.151711
0.59 0.186559
0.6 0.220114
0.61 0.251449
0.62 0.279633
0.63 0.303796
0.64 0.323153
0.65 0.337031
0.66 0.344498
0.67 0.345173
0.68 0.339224
0.69 0.326659
0.7 0.30766
0.71 0.282582
0.72 0.251944
0.73 0.215942
0.74 0.176013
0.75 0.133089
0.76 0.0881545
0.77 0.0422337
0.78 -0.00364387
0.79 -0.048368
0.8 -0.0908229
0.81 -0.130246
0.82 -0.165907
0.83 -0.197208
0.84 -0.223697
0.85 -0.245078
0.86 -0.260679
0.87 -0.27103
0.88 -0.276424
0.89 -0.277221
0.9 -0.273905
0.91 -0.267059
0.92 -0.257265
0.93 -0.245266
0.94 -0.232021
0.95 -0.218271
0.96 -0.204725
0.97 -0.192039
0.98 -0.180793
0.99 -0.17169
1 -0.165009
1.01 -0.160938
1.02 -0.159599
1.03 -0.160996
1.04 -0.165023
1.05 -0.171532
1.06 -0.180307
1.07 -0.190755
1.08 -0.202442
1.09 -0.214911
1.1 -0.227692
1.11 -0.240328
1.12 -0.252312
1.13 -0.263246
1.14 -0.272848
1.15 -0.280886
1.16 -0.287205
1.17 -0.291734
1.18 -0.294454
1.19 -0.295332
1.2 -0.29472
1.21 -0.29285
1.22 -0.289996
1.23 -0.286463
1.24 -0.282569
1.25 -0.278649
1.26 -0.275044
1.27 -0.272013
1.28 -0.26977
1.29 -0.268474
1.3 -0.268223
1.31 -0.269056
1.32 -0.271039
1.33 -0.273939
1.34 -0.277587
1.35 -0.281769
1.36 -0.286233
1.37 -0.290705
1.38 -0.294863
1.39 -0.298385
1.4 -0.30103
1.41 -0.302577
1.42 -0.302845
1.43 -0.301711
1.44 -0.299112
1.45 -0.294894
1.46 -0.289302
1.47 -0.282496
1.48 -0.274686
1.49 -0.266134
1.5 -0.257142
1.51 -0.248053
1.52 -0.23927
1.53 -0.23114
1.54 -0.223988
1.55 -0.218106
1.56 -0.213742
1.57 -0.211087
1.58 -0.210457
1.59 -0.211739
1.6 -0.214859
1.61 -0.219694
1.62 -0.226049
1.63 -0.233662
1.64 -0.242231
1.65 -0.251352
1.66 -0.260547
1.67 -0.269387
1.68 -0.277448
1.69 -0.28432
1.7 -0.289624
1.71 -0.292831
1.72 -0.293764
1.73 -0.292289
1.74 -0.288299
1.75 -0.281769
1.76 -0.272754
1.77 -0.261342
1.78 -0.247646
1.79 -0.232178
1.8 -0.215297
1.81 -0.197399
1.82 -0.17891
1.83 -0.160269
1.84 -0.141964
1.85 -0.124451
1.86 -0.108084
1.87 -0.0931817
1.88 -0.0800029
1.89 -0.0687359
1.9 -0.0595255
1.91 -0.052585
1.92 -0.0476453
1.93 -0.0445751
1.94 -0.0431794
1.95 -0.043208
1.96 -0.044368
1.97 -0.0463664
1.98 -0.048799
1.99 -0.0512902
2 -0.0535198
2.01 -0.0551985
2.02 -0.0560805
2.03 -0.0559695
2.04 -0.0546047
2.05 -0.0520595
2.06 -0.0483618
2.07 -0.0436095
2.08 -0.0379669
2.09 -0.0316581
2.1 -0.0249558
2.11 -0.0182305
2.12 -0.0118531
2.13 -0.0061842
2.14 -0.00158059
2.15 0.0016187
2.16 0.00310588
2.17 0.00237708
2.18 -0.000584079
2.19 -0.0058897
2.2 -0.0135958
2.21 -0.0236846
2.22 -0.0360637
2.23 -0.0506546
2.24 -0.0672325
2.25 -0.0853422
2.26 -0.104632
2.27 -0.124716
2.28 -0.145186
2.29 -0.165625
2.3 -0.185542
2.31 -0.204541
2.32 -0.222284
2.33 -0.238469
2.34 -0.252852
2.35 -0.265248
2.36 -0.275467
2.37 -0.283363
2.38 -0.289154
2.39 -0.292946
2.4 -0.294906
2.41 -0.295254
2.42 -0.294251
2.43 -0.292128
2.44 -0.289299
2.45 -0.28612
2.46 -0.282907
2.47 -0.279957
2.48 -0.277541
2.49 -0.275917
2.5 -0.275357
2.51 -0.275913
2.52 -0.277655
2.53 -0.2806
2.54 -0.284715
2.55 -0.289915
2.56 -0.29613
2.57 -0.303135
2.58 -0.310688
2.59 -0.318569
2.6 -0.32655
2.61 -0.334403
2.62 -0.341902
2.63 -0.348771
2.64 -0.354882
2.65 -0.360099
2.66 -0.36432
2.67 -0.367483
2.68 -0.369565
2.69 -0.370513
2.7 -0.370407
2.71 -0.369391
2.72 -0.367582
2.73 -0.365114
2.74 -0.362136
2.75 -0.358799
2.76 -0.355251
2.77 -0.351668
2.78 -0.348177
2.79 -0.344881
2.8 -0.341862
2.81 -0.339175
2.82 -0.336864
2.83 -0.334928
2.84 -0.333309
2.85 -0.33195
2.86 -0.330773
2.87 -0.329687
2.88 -0.32859
2.89 -0.327352
2.9 -0.325869
2.91 -0.324043
2.92 -0.32179
2.93 -0.319038
2.94 -0.315733
2.95 -0.311816
2.96 -0.307257
2.97 -0.302108
2.98 -0.296399
2.99 -0.290173
3 -0.283482
3.01 -0.276386
3.02 -0.26892
3.03 -0.261173
3.04 -0.253197
3.05 -0.245027
3.06 -0.236675
3.07 -0.228136
3.08 -0.219371
3.09 -0.210301
3.1 -0.200861
3.11 -0.190945
3.12 -0.180427
3.13 -0.169168
3.14 -0.157019
3.15 -0.143723
3.16 -0.129166
3.17 -0.113245
3.18 -0.0958383
3.19 -0.0768508
3.2 -0.0562161
3.21 -0.033869
3.22 -0.00969946
3.23 0.016067
3.24 0.0433223
3.25 0.0719143
3.26 0.101649
3.27 0.132291
3.28 0.163599
3.29 0.195209
3.3 0.22677
3.31 0.257945
3.32 0.288394
3.33 0.31778
3.34 0.345761
3.35 0.371834
3.36 0.39589
3.37 0.417697
3.38 0.437068
3.39 0.453858
3.4 0.467972
3.41 0.479192
3.42 0.487552
3.43 0.493259
3.44 0.496417
3.45 0.497167
3.46 0.495682
3.47 0.492159
3.48 0.486633
3.49 0.479564
3.5 0.471189
3.51 0.46174
3.52 0.451438
3.53 0.44049
3.54 0.429069
3.55 0.417358
3.56 0.405517
3.57 0.393653
3.58 0.381848
3.59 0.37016
3.6 0.358624
3.61 0.347273
3.62 0.336094
3.63 0.325071
3.64 0.31419
3.65 0.303433
3.66 0.292787
3.67 0.282252
3.68 0.271841
3.69 0.261567
3.7 0.251471
3.71 0.241607
3.72 0.232047
3.73 0.222878
3.74 0.214256
3.75 0.206274
3.76 0.199039
3.77 0.192676
3.78 0.187306
3.79 0.183048
3.8 0.180049
3.81 0.178493
3.82 0.178346
3.83 0.179664
3.84 0.182479
3.85 0.186802
3.86 0.19262
3.87 0.200011
3.88 0.208832
3.89 0.218946
3.9 0.230248
3.91 0.242615
3.92 0.255913
3.93 0.270009
3.94 0.284785
3.95 0.300011
3.96 0.315538
3.97 0.331217
3.98 0.346907
3.99 0.362478
4 0.377782
4.01 0.392701
4.02 0.407154
4.03 0.421056
4.04 0.434335
4.05 0.44693
4.06 0.458782
4.07 0.469759
4.08 0.479905
4.09 0.489185
4.1 0.497565
4.11 0.505014
4.12 0.511499
4.13 0.516925
4.14 0.521255
4.15 0.524509
4.16 0.52665
4.17 0.527642
4.18 0.527446
4.19 0.526029
4.2 0.523215
4.21 0.519113
4.22 0.513709
4.23 0.506994
4.24 0.498966
4.25 0.489634
4.26 0.478955
4.27 0.466942
4.28 0.453725
4.29 0.439356
4.3 0.423897
4.31 0.407417
4.32 0.38999
4.33 0.371615
4.34 0.352459
4.35 0.332615
4.36 0.312165
4.37 0.291185
4.38 0.269747
4.39 0.247904
4.4 0.22571
4.41 0.203245
4.42 0.180553
4.43 0.15767
4.44 0.134628
4.45 0.111453
4.46 0.0881618
4.47 0.0647856
4.48 0.04135
4.49 0.0178805
4.5 -0.00559358
4.51 -0.029037
4.52 -0.0524045
4.53 -0.0756311
4.54 -0.0986637
4.55 -0.121434
4.56 -0.143866
4.57 -0.165877
4.58 -0.187378
4.59 -0.208222
4.6 -0.228329
4.61 -0.247629
4.62 -0.266035
4.63 -0.283465
4.64 -0.299847
4.65 -0.315101
4.66 -0.329077
4.67 -0.34186
4.68 -0.353439
4.69 -0.363821
4.7 -0.373028
4.71 -0.381103
4.72 -0.388032
4.73 -0.393924
4.74 -0.398917
4.75 -0.403107
4.76 -0.406601
4.77 -0.409507
4.78 -0.411931
4.79 -0.413955
4.8 -0.41573
4.81 -0.41735
4.82 -0.418895
4.83 -0.420437
4.84 -0.42203
4.85 -0.423724
4.86 -0.425545
4.87 -0.427497
4.88 -0.42957
4.89 -0.431748
4.9 -0.433997
4.91 -0.43628
4.92 -0.438541
4.93 -0.440724
4.94 -0.442774
4.95 -0.444639
4.96 -0.446264
4.97 -0.447602
4.98 -0.448594
4.99 -0.44919
5 -0.449388
5.01 -0.449167
5.02 -0.448517
5.03 -0.447433
5.04 -0.445914
5.05 -0.443925
5.06 -0.441512
5.07 -0.438692
5.08 -0.435478
5.09 -0.431879
5.1 -0.427904
5.11 -0.423542
5.12 -0.418777
5.13 -0.413634
5.14 -0.408102
5.15 -0.402169
5.16 -0.395817
5.17 -0.389027
5.18 -0.381737
5.19 -0.373954
5.2 -0.365676
5.21 -0.356892
5.22 -0.347596
5.23 -0.337793
5.24 -0.327482
5.25 -0.316658
5.26 -0.305402
5.27 -0.29376
5.28 -0.28179
5.29 -0.269556
5.3 -0.257134
5.31 -0.244605
5.32 -0.232072
5.33 -0.219627
5.34 -0.207363
5.35 -0.195364
5.36 -0.183715
5.37 -0.172498
5.38 -0.161829
5.39 -0.151716
5.4 -0.142199
5.41 -0.133302
5.42 -0.125039
5.43 -0.117409
5.44 -0.110437
5.45 -0.104083
5.46 -0.0982764
5.47 -0.0929714
5.48 -0.0881165
5.49 -0.083657
5.5 -0.0795381
5.51 -0.0757319
5.52 -0.072152
5.53 -0.068756
5.54 -0.0655092
5.55 -0.0623858
5.56 -0.0593693
5.57 -0.0564583
5.58 -0.0536574
5.59 -0.0509729
5.6 -0.0484233
5.61 -0.0460319
5.62 -0.0438241
5.63 -0.0418251
5.64 -0.0400848
5.65 -0.0385985
5.66 -0.037372
5.67 -0.0364033
5.68 -0.0356792
5.69 -0.0351736
5.7 -0.0348526
5.71 -0.0346579
5.72 -0.0345085
5.73 -0.0343251
5.74 -0.0340194
5.75 -0.0334964
5.76 -0.0326575
5.77 -0.0313539
5.78 -0.0295118
5.79 -0.0270524
5.8 -0.0238995
5.81 -0.0199909
5.82 -0.0152813
5.83 -0.00971704
5.84 -0.00325298
5.85 0.00401792
5.86 0.0120501
5.87 0.0207763
5.88 0.030109
5.89 0.0399424
5.9 0.0501761
5.91 0.0606379
5.92 0.0711737
5.93 0.0816383
5.94 0.0918883
5.95 0.101787
5.96 0.111194
5.97 0.119942
5.98 0.127991
5.99 0.135276
6 0.141753
6.01 0.147405
6.02 0.152241
6.03 0.156239
6.04 0.159492
6.05 0.162118
6.06 0.164216
6.07 0.165899
6.08 0.167291
6.09 0.168519
6.1 0.169722
6.11 0.171033
6.12 0.172561
6.13 0.174398
6.14 0.17662
6.15 0.179277
6.16 0.182425
6.17 0.186058
6.18 0.190117
6.19 0.194544
6.2 0.199256
6.21 0.204148
6.22 0.209096
6.23 0.213933
6.24 0.218504
6.25 0.222651
6.26 0.226217
6.27 0.229051
6.28 0.231011
6.29 0.231908
6.3 0.231607
6.31 0.230092
6.32 0.227306
6.33 0.223218
6.34 0.217826
6.35 0.211154
6.36 0.203132
6.37 0.193963
6.38 0.183766
6.39 0.172663
6.4 0.160791
6.41 0.148299
6.42 0.135328
6.43 0.122047
6.44 0.108644
6.45 0.0952625
6.46 0.0820389
6.47 0.069094
6.48 0.0565323
6.49 0.0444905
6.5 0.0330049
6.51 0.0221047
6.52 0.0118101
6.53 0.00212191
6.54 -0.00697673
6.55 -0.0155028
6.56 -0.0234814
6.57 -0.0310187
6.58 -0.0381803
6.59 -0.0450351
6.6 -0.051653
6.61 -0.0581015
6.62 -0.0644393
6.63 -0.0707328
6.64 -0.077029
6.65 -0.0833604
6.66 -0.0897479
6.67 -0.0961995
6.68 -0.102712
6.69 -0.109269
6.7 -0.115833
6.71 -0.122365
6.72 -0.128815
6.73 -0.135127
6.74 -0.141239
6.75 -0.147063
6.76 -0.152529
6.77 -0.157584
6.78 -0.162162
6.79 -0.166202
6.8 -0.169646
6.81 -0.172436
6.82 -0.174448
6.83 -0.175714
6.84 -0.176201
6.85 -0.17588
6.86 -0.174729
6.87 -0.17273
6.88 -0.169818
6.89 -0.165991
6.9 -0.161291
6.91 -0.155722
6.92 -0.149285
6.93 -0.141987
6.94 -0.133839
6.95 -0.124757
6.96 -0.114851
6.97 -0.104143
6.98 -0.0926527
6.99 -0.0804055
7 -0.0674293
7.01 -0.0537228
7.02 -0.039317
7.03 -0.0242992
7.04 -0.00871499
7.05 0.00738631
7.06 0.0239513
7.07 0.0409231
7.08 0.058271
7.09 0.0758942
7.1 0.0937233
7.11 0.111692
7.12 0.129735
7.13 0.147787
7.14 0.165778
7.15 0.183634
7.16 0.201301
7.17 0.218723
7.18 0.235848
7.19 0.252629
7.2 0.269018
7.21 0.284933
7.22 0.300358
7.23 0.315268
7.24 0.329628
7.25 0.343406
7.26 0.356566
7.27 0.369055
7.28 0.380789
7.29 0.391786
7.3 0.402004
7.31 0.411396
7.32 0.419912
7.33 0.427499
7.34 0.434013
7.35 0.439433
7.36 0.443731
7.37 0.446845
7.38 0.448711
7.39 0.44927
7.4 0.448441
7.41 0.446048
7.42 0.442187
7.43 0.436824
7.44 0.429936
7.45 0.421511
7.46 0.41155
7.47 0.399965
7.48 0.386826
7.49 0.372256
7.5 0.356316
7.51 0.339087
7.52 0.32066
7.53 0.301134
7.54 0.28054
7.55 0.259126
7.56 0.23703
7.57 0.214395
7.58 0.191368
7.59 0.168101
7.6 0.144744
7.61 0.12147
7.62 0.0984226
7.63 0.075739
7.64 0.0535469
7.65 0.0319652
7.66 0.011103
7.67 -0.00884096
7.68 -0.0278614
7.69 -0.0458916
7.7 -0.062873
7.71 -0.0787586
7.72 -0.0935133
7.73 -0.107057
7.74 -0.119352
7.75 -0.130477
7.76 -0.14044
7.77 -0.149258
7.78 -0.156954
7.79 -0.163558
7.8 -0.169003
7.81 -0.173425
7.82 -0.176885
7.83 -0.179432
7.84 -0.181117
7.85 -0.181993
7.86 -0.182089
7.87 -0.181437
7.88 -0.180153
7.89 -0.178292
7.9 -0.175909
7.91 -0.173058
7.92 -0.169792
7.93 -0.166133
7.94 -0.162158
7.95 -0.157924
7.96 -0.153473
7.97 -0.148846
7.98 -0.144081
7.99 -0.139209
8 -0.134263
8.01 -0.129278
8.02 -0.124278
8.03 -0.119286
8.04 -0.114322
8.05 -0.109402
8.06 -0.104548
8.07 -0.0997746
8.08 -0.0950918
8.09 -0.0905128
8.1 -0.0860503
8.11 -0.0817176
8.12 -0.0775306
8.13 -0.0735193
8.14 -0.0696839
8.15 -0.0660404
8.16 -0.0626048
8.17 -0.0593934
8.18 -0.0564217
8.19 -0.0537226
8.2 -0.051306
8.21 -0.0491689
8.22 -0.0473176
8.23 -0.0457543
8.24 -0.0444766
8.25 -0.0434772
8.26 -0.0427691
8.27 -0.042299
8.28 -0.0420387
8.29 -0.0419538
8.3 -0.0420037
8.31 -0.0421429
8.32 -0.0423201
8.33 -0.0424727
8.34 -0.0425427
8.35 -0.0424732
8.36 -0.0422087
8.37 -0.0416964
8.38 -0.040888
8.39 -0.0397
8.4 -0.0381305
8.41 -0.0361588
8.42 -0.033772
8.43 -0.0309687
8.44 -0.0277588
8.45 -0.0241485
8.46 -0.0201688
8.47 -0.0158948
8.48 -0.0113843
8.49 -0.00670377
8.5 -0.00192664
8.51 0.0028684
8.52 0.00758494
8.53 0.0121362
8.54 0.0164428
8.55 0.0204283
8.56 0.0240223
8.57 0.0271629
8.58 0.0297788
8.59 0.0317985
8.6 0.0332392
8.61 0.0340888
8.62 0.0343479
8.63 0.03403
8.64 0.0331605
8.65 0.0317349
8.66 0.0298354
8.67 0.0275323
8.68 0.0248856
8.69 0.0219581
8.7 0.0188129
8.71 0.0155098
8.72 0.0121064
8.73 0.0086664
8.74 0.00523213
8.75 0.00183665
8.76 -0.00149706
8.77 -0.00475659
8.78 -0.00793517
8.79 -0.0110471
8.8 -0.0141163
8.81 -0.0171719
8.82 -0.0202496
8.83 -0.0233901
8.84 -0.0266388
8.85 -0.0300598
8.86 -0.0336839
8.87 -0.0375501
8.88 -0.041692
8.89 -0.0461358
8.9 -0.0508997
8.91 -0.0560135
8.92 -0.0614696
8.93 -0.0672365
8.94 -0.0732901
8.95 -0.079597
8.96 -0.0861159
8.97 -0.092799
8.98 -0.0995995
8.99 -0.106443
9 -0.113272
9.01 -0.120031
9.02 -0.126667
9.03 -0.133133
9.04 -0.139375
9.05 -0.145354
9.06 -0.151063
9.07 -0.156488
9.08 -0.161629
9.09 -0.166492
9.1 -0.171093
9.11 -0.175433
9.12 -0.179569
9.13 -0.183537
9.14 -0.187375
9.15 -0.19112
9.16 -0.194807
9.17 -0.198468
9.18 -0.202132
9.19 -0.205818
9.2 -0.209534
9.21 -0.213279
9.22 -0.217041
9.23 -0.220802
9.24 -0.224522
9.25 -0.22816
9.26 -0.231669
9.27 -0.234994
9.28 -0.238079
9.29 -0.240864
9.3 -0.243277
9.31 -0.245232
9.32 -0.246711
9.33 -0.247671
9.34 -0.248077
9.35 -0.247904
9.36 -0.24714
9.37 -0.245733
9.38 -0.243725
9.39 -0.24116
9.4 -0.23807
9.41 -0.234498
9.42 -0.230493
9.43 -0.226103
9.44 -0.221368
9.45 -0.216381
9.46 -0.211199
9.47 -0.205872
9.48 -0.200445
9.49 -0.194954
9.5 -0.189423
9.51 -0.183869
9.52 -0.178292
9.53 -0.17268
9.54 -0.167007
9.55 -0.161237
9.56 -0.155322
9.57 -0.14918
9.58 -0.142765
9.59 -0.13601
9.6 -0.128848
9.61 -0.121211
9.62 -0.113037
9.63 -0.104229
9.64 -0.0947371
9.65 -0.0845603
9.66 -0.0736759
9.67 -0.0620754
9.68 -0.0497643
9.69 -0.0367625
9.7 -0.0230342
9.71 -0.00870893
9.72 0.00614881
9.73 0.0214652
9.74 0.037158
9.75 0.0531386
9.76 0.0693192
9.77 0.0855927
9.78 0.101855
9.79 0.118015
9.8 0.133992
9.81 0.149708
9.82 0.165096
9.83 0.180054
9.84 0.194568
9.85 0.20861
9.86 0.222159
9.87 0.235202
9.88 0.247737
9.89 0.259748
9.9 0.27123
9.91 0.282239
9.92 0.292793
9.93 0.302911
9.94 0.312609
9.95 0.321903
9.96 0.330766
9.97 0.339229
9.98 0.347298
9.99 0.354962
10 0.362204
10.01 0.369001
10.02 0.375309
10.03 0.381059
10.04 0.386257
10.05 0.390862
10.06 0.394838
10.07 0.398149
10.08 0.400763
10.09 0.402594
10.1 0.403658
10.11 0.403973
10.12 0.403544
10.13 0.402386
10.14 0.400526
10.15 0.39799
10.16 0.394785
10.17 0.391038
10.18 0.38682
10.19 0.382209
10.2 0.377286
10.21 0.37214
10.22 0.366855
10.23 0.361532
10.24 0.356262
10.25 0.35112
10.26 0.346176
10.27 0.341491
10.28 0.337115
10.29 0.333125
10.3 0.329507
10.31 0.326268
10.32 0.323403
10.33 0.320893
10.34 0.318708
10.35 0.316819
10.36 0.315164
10.37 0.313664
10.38 0.312251
10.39 0.310852
10.4 0.30939
10.41 0.307789
10.42 0.30594
10.43 0.303786
10.44 0.30126
10.45 0.2983
10.46 0.294849
10.47 0.290859
10.48 0.286258
10.49 0.281001
10.5 0.275104
10.51 0.268554
10.52 0.261345
10.53 0.253479
10.54 0.244964
10.55 0.235751
10.56 0.225917
10.57 0.215497
10.58 0.204518
10.59 0.19301
10.6 0.181007
10.61 0.168525
10.62 0.155587
10.63 0.142263
10.64 0.12859
10.65 0.114603
10.66 0.100336
10.67 0.0858242
10.68 0.0710858
10.69 0.0561727
10.7 0.041124
10.71 0.025973
10.72 0.0107529
10.73 -0.00450351
10.74 -0.019763
10.75 -0.0349881
10.76 -0.0501483
10.77 -0.065214
10.78 -0.0801574
10.79 -0.0949521
10.8 -0.109574
10.81 -0.123984
10.82 -0.13817
10.83 -0.152125
10.84 -0.165835
10.85 -0.179294
10.86 -0.192495
10.87 -0.205435
10.88 -0.218092
10.89 -0.230498
10.9 -0.242662
10.91 -0.254592
10.92 -0.2663
10.93 -0.277798
10.94 -0.289084
10.95 -0.300174
10.96 -0.311087
10.97 -0.32183
10.98 -0.332405
10.99 -0.342814
11 -0.353052
11.01 -0.363088
11.02 -0.372929
11.03 -0.382556
11.04 -0.391944
11.05 -0.401066
11.06 -0.409891
11.07 -0.418361
11.08 -0.426431
11.09 -0.43408
11.1 -0.441266
11.11 -0.447946
11.12 -0.454079
11.13 -0.459623
11.14 -0.464466
11.15 -0.468635
11.16 -0.472102
11.17 -0.474841
11.18 -0.47683
11.19 -0.47805
11.2 -0.478453
11.21 -0.478013
11.22 -0.476784
11.23 -0.474772
11.24 -0.471984
11.25 -0.468434
11.26 -0.464138
11.27 -0.459046
11.28 -0.453242
11.29 -0.446761
11.3 -0.439629
11.31 -0.431871
11.32 -0.423512
11.33 -0.414556
11.34 -0.405005
11.35 -0.394925
11.36 -0.384338
11.37 -0.373261
11.38 -0.361712
11.39 -0.349706
11.4 -0.337219
11.41 -0.324294
11.42 -0.310956
11.43 -0.297219
11.44 -0.283097
11.45 -0.268604
11.46 -0.25375
11.47 -0.238535
11.48 -0.223011
11.49 -0.207206
11.5 -0.191147
11.51 -0.174867
11.52 -0.158401
11.53 -0.141779
11.54 -0.125055
11.55 -0.108282
11.56 -0.0915077
11.57 -0.0747832
11.58 -0.0581608
11.59 -0.0416969
11.6 -0.0254711
11.61 -0.00951933
11.62 0.0061064
11.63 0.0213561
11.64 0.0361825
11.65 0.0505417
11.66 0.0643579
11.67 0.0775991
11.68 0.0902626
11.69 0.102325
11.7 0.113769
11.71 0.124583
11.72 0.134759
11.73 0.144227
11.74 0.153066
11.75 0.161289
11.76 0.168912
11.77 0.175957
11.78 0.182446
11.79 0.18838
11.8 0.193788
11.81 0.198733
11.82 0.203246
11.83 0.207355
11.84 0.211089
11.85 0.214475
11.86 0.217502
11.87 0.220223
11.88 0.222656
11.89 0.224811
11.9 0.226694
11.91 0.228304
11.92 0.229625
11.93 0.230637
11.94 0.231342
11.95 0.231722
11.96 0.23175
11.97 0.231398
11.98 0.230633
11.99 0.229374
12 0.227612
12.01 0.225317
12.02 0.222448
12.03 0.218967
12.04 0.214832
12.05 0.209982
12.06 0.204339
12.07 0.197928
12.08 0.190722
12.09 0.182695
12.1 0.173827
12.11 0.164105
12.12 0.153446
12.13 0.141897
12.14 0.129492
12.15 0.116247
