# xPDFsuite Configuration #
[PDF]
wavelength = 0.1
dataformat = QA
inputfile = BiMsol6_insitu_700 C-00420.xy
backgroundfile = Quartz2mm-dist500-00000.xy
mode = xray
bgscale = 0.0042
composition = Bi2Fe4O9
outputtype = gr
qmaxinst = 24.998449118
qmin = 0.1
qmax = 21.4986662415
rmax = 80.0
rmin = 0.0
rstep = 0.01
rpoly = 0.9

[Misc]
inputdir = C:/Data/Seafile/CPH/Beamtime/Desy Oct 20/In situ data/Processed/BiMsol6/PDF
savedir = C:/Data/Seafile/CPH/Beamtime/Desy Oct 20/In situ data/PDF/BiMsol6
backgroundfilefull = C:/Data/Seafile/CPH/Beamtime/Desy Oct 20/In situ data/Processed/Standard_Empty_Cap/Quartz2mm-dist500-00000.xy

#### start data
#S 1
#L r($\AA$)  G($\AA^{-2}$)
0 0
0.01 0.00709005
0.02 0.0137845
0.03 0.0197445
0.04 0.0246659
0.05 0.0282932
0.06 0.0304308
0.07 0.0308646
0.08 0.0295306
0.09 0.0265835
0.1 0.0221498
0.11 0.0164271
0.12 0.00967505
0.13 0.00220429
0.14 -0.00563757
0.15 -0.0134074
0.16 -0.0207319
0.17 -0.0272603
0.18 -0.0326769
0.19 -0.0367169
0.2 -0.0391075
0.21 -0.0396594
0.22 -0.0384733
0.23 -0.0356151
0.24 -0.0312359
0.25 -0.0255666
0.26 -0.0189097
0.27 -0.0116064
0.28 -0.00415987
0.29 0.00298246
0.3 0.00938563
0.31 0.0146346
0.32 0.0183545
0.33 0.0201648
0.34 0.0196912
0.35 0.0169783
0.36 0.0120128
0.37 0.00489288
0.38 -0.00416957
0.39 -0.0148522
0.4 -0.0267848
0.41 -0.0393104
0.42 -0.0517825
0.43 -0.0635448
0.44 -0.073916
0.45 -0.082216
0.46 -0.0877254
0.47 -0.0895196
0.48 -0.0873832
0.49 -0.0809336
0.5 -0.0699169
0.51 -0.0542241
0.52 -0.0339011
0.53 -0.00886158
0.54 0.0203222
0.55 0.0528902
0.56 0.0881371
0.57 0.125236
0.58 0.163262
0.59 0.201205
0.6 0.237785
0.61 0.271981
0.62 0.302776
0.63 0.329218
0.64 0.350448
0.65 0.365732
0.66 0.374054
0.67 0.374999
0.68 0.368752
0.69 0.355323
0.7 0.334916
0.71 0.307924
0.72 0.274918
0.73 0.236126
0.74 0.193115
0.75 0.146907
0.76 0.0985804
0.77 0.0492553
0.78 5.57884e-05
0.79 -0.0478045
0.8 -0.0931116
0.81 -0.135046
0.82 -0.172821
0.83 -0.205796
0.84 -0.233494
0.85 -0.255609
0.86 -0.271431
0.87 -0.28156
0.88 -0.286339
0.89 -0.286183
0.9 -0.281641
0.91 -0.273372
0.92 -0.262033
0.93 -0.24846
0.94 -0.2337
0.95 -0.21857
0.96 -0.203846
0.97 -0.190244
0.98 -0.178389
0.99 -0.169053
1 -0.16251
1.01 -0.158941
1.02 -0.158453
1.03 -0.161024
1.04 -0.166508
1.05 -0.174712
1.06 -0.185363
1.07 -0.19778
1.08 -0.211464
1.09 -0.225887
1.1 -0.240516
1.11 -0.254832
1.12 -0.268255
1.13 -0.28035
1.14 -0.290817
1.15 -0.299408
1.16 -0.305966
1.17 -0.310432
1.18 -0.312807
1.19 -0.313079
1.2 -0.311675
1.21 -0.308882
1.22 -0.305037
1.23 -0.300506
1.24 -0.295672
1.25 -0.290944
1.26 -0.286723
1.27 -0.28331
1.28 -0.280955
1.29 -0.279844
1.3 -0.280089
1.31 -0.281732
1.32 -0.284856
1.33 -0.289165
1.34 -0.294454
1.35 -0.30046
1.36 -0.306875
1.37 -0.313363
1.38 -0.319536
1.39 -0.324995
1.4 -0.329439
1.41 -0.332588
1.42 -0.334215
1.43 -0.334154
1.44 -0.332314
1.45 -0.328486
1.46 -0.322949
1.47 -0.315877
1.48 -0.307505
1.49 -0.298131
1.5 -0.288104
1.51 -0.277817
1.52 -0.267744
1.53 -0.258306
1.54 -0.249896
1.55 -0.24287
1.56 -0.237537
1.57 -0.234139
1.58 -0.233068
1.59 -0.234223
1.6 -0.237542
1.61 -0.242908
1.62 -0.250117
1.63 -0.258882
1.64 -0.268877
1.65 -0.279655
1.66 -0.290658
1.67 -0.301396
1.68 -0.311376
1.69 -0.320121
1.7 -0.327183
1.71 -0.331951
1.72 -0.334197
1.73 -0.33375
1.74 -0.330469
1.75 -0.324311
1.76 -0.315329
1.77 -0.303613
1.78 -0.289288
1.79 -0.272941
1.8 -0.254986
1.81 -0.23589
1.82 -0.216156
1.83 -0.196303
1.84 -0.176925
1.85 -0.158568
1.86 -0.141665
1.87 -0.126609
1.88 -0.113721
1.89 -0.103243
1.9 -0.0953636
1.91 -0.0903641
1.92 -0.0879159
1.93 -0.0878645
1.94 -0.0899721
1.95 -0.0939277
1.96 -0.0993599
1.97 -0.105892
1.98 -0.11299
1.99 -0.120149
2 -0.126923
2.01 -0.132894
2.02 -0.13769
2.03 -0.140992
2.04 -0.142343
2.05 -0.141778
2.06 -0.139242
2.07 -0.134767
2.08 -0.12847
2.09 -0.120551
2.1 -0.111226
2.11 -0.100886
2.12 -0.0900062
2.13 -0.079012
2.14 -0.068344
2.15 -0.0584407
2.16 -0.0497224
2.17 -0.0427854
2.18 -0.0378303
2.19 -0.0351049
2.2 -0.0347969
2.21 -0.0370155
2.22 -0.0417882
2.23 -0.0491672
2.24 -0.0590482
2.25 -0.0710249
2.26 -0.084806
2.27 -0.100048
2.28 -0.116366
2.29 -0.133353
2.3 -0.150569
2.31 -0.167534
2.32 -0.183852
2.33 -0.199167
2.34 -0.213167
2.35 -0.225598
2.36 -0.236204
2.37 -0.244761
2.38 -0.251386
2.39 -0.256113
2.4 -0.259045
2.41 -0.260342
2.42 -0.260218
2.43 -0.258854
2.44 -0.256644
2.45 -0.253933
2.46 -0.251036
2.47 -0.24826
2.48 -0.245895
2.49 -0.244222
2.5 -0.24355
2.51 -0.243976
2.52 -0.245614
2.53 -0.248524
2.54 -0.252713
2.55 -0.258135
2.56 -0.264774
2.57 -0.272425
2.58 -0.280863
2.59 -0.289879
2.6 -0.299248
2.61 -0.308737
2.62 -0.318109
2.63 -0.327083
2.64 -0.335476
2.65 -0.343114
2.66 -0.349852
2.67 -0.355582
2.68 -0.360228
2.69 -0.363682
2.7 -0.365962
2.71 -0.367167
2.72 -0.367364
2.73 -0.366643
2.74 -0.365111
2.75 -0.362885
2.76 -0.360031
2.77 -0.356745
2.78 -0.353132
2.79 -0.349282
2.8 -0.345267
2.81 -0.341133
2.82 -0.336902
2.83 -0.332567
2.84 -0.328102
2.85 -0.323455
2.86 -0.318555
2.87 -0.313317
2.88 -0.307644
2.89 -0.30137
2.9 -0.294439
2.91 -0.286765
2.92 -0.278271
2.93 -0.268896
2.94 -0.258599
2.95 -0.247319
2.96 -0.235038
2.97 -0.221863
2.98 -0.207851
2.99 -0.193085
3 -0.177663
3.01 -0.1617
3.02 -0.145292
3.03 -0.128615
3.04 -0.111807
3.05 -0.0949921
3.06 -0.0782822
3.07 -0.0617762
3.08 -0.0455655
3.09 -0.0297332
3.1 -0.0142851
3.11 0.000770812
3.12 0.0154485
3.13 0.0297824
3.14 0.043825
3.15 0.0576306
3.16 0.0712991
3.17 0.0849208
3.18 0.0985781
3.19 0.112348
3.2 0.126297
3.21 0.140482
3.22 0.154958
3.23 0.169708
3.24 0.184712
3.25 0.199927
3.26 0.215284
3.27 0.230693
3.28 0.246026
3.29 0.261134
3.3 0.275872
3.31 0.290087
3.32 0.30362
3.33 0.316316
3.34 0.328019
3.35 0.338471
3.36 0.347674
3.37 0.355541
3.38 0.362014
3.39 0.367064
3.4 0.370693
3.41 0.37285
3.42 0.373624
3.43 0.373188
3.44 0.371668
3.45 0.369207
3.46 0.365969
3.47 0.36213
3.48 0.357845
3.49 0.353365
3.5 0.348873
3.51 0.344541
3.52 0.34053
3.53 0.336983
3.54 0.334063
3.55 0.331895
3.56 0.330515
3.57 0.329973
3.58 0.330301
3.59 0.331508
3.6 0.333582
3.61 0.33658
3.62 0.340378
3.63 0.34491
3.64 0.350117
3.65 0.355933
3.66 0.362292
3.67 0.369149
3.68 0.37645
3.69 0.384107
3.7 0.392073
3.71 0.400309
3.72 0.408783
3.73 0.417466
3.74 0.426352
3.75 0.435407
3.76 0.444607
3.77 0.453933
3.78 0.463361
3.79 0.472861
3.8 0.482397
3.81 0.491914
3.82 0.501353
3.83 0.510644
3.84 0.519708
3.85 0.528458
3.86 0.536794
3.87 0.54456
3.88 0.551656
3.89 0.557985
3.9 0.563433
3.91 0.56789
3.92 0.571248
3.93 0.573386
3.94 0.574103
3.95 0.573444
3.96 0.571352
3.97 0.567783
3.98 0.562709
3.99 0.556119
4 0.54791
4.01 0.538144
4.02 0.526926
4.03 0.514305
4.04 0.500337
4.05 0.485088
4.06 0.468622
4.07 0.450909
4.08 0.432157
4.09 0.412447
4.1 0.391856
4.11 0.370461
4.12 0.348337
4.13 0.325521
4.14 0.302096
4.15 0.278167
4.16 0.2538
4.17 0.229063
4.18 0.204025
4.19 0.178756
4.2 0.153323
4.21 0.127829
4.22 0.10236
4.23 0.0770038
4.24 0.0518557
4.25 0.0270136
4.26 0.00260425
4.27 -0.0212443
4.28 -0.0444583
4.29 -0.0669379
4.3 -0.0885884
4.31 -0.109323
4.32 -0.129064
4.33 -0.147635
4.34 -0.165075
4.35 -0.181372
4.36 -0.196516
4.37 -0.210516
4.38 -0.223402
4.39 -0.235183
4.4 -0.245897
4.41 -0.255715
4.42 -0.264737
4.43 -0.273075
4.44 -0.280848
4.45 -0.28818
4.46 -0.295175
4.47 -0.301988
4.48 -0.308734
4.49 -0.315511
4.5 -0.3224
4.51 -0.329466
4.52 -0.336756
4.53 -0.344311
4.54 -0.352101
4.55 -0.360101
4.56 -0.368262
4.57 -0.376518
4.58 -0.384785
4.59 -0.392953
4.6 -0.400907
4.61 -0.408538
4.62 -0.415736
4.63 -0.422396
4.64 -0.42842
4.65 -0.433709
4.66 -0.43812
4.67 -0.441682
4.68 -0.444369
4.69 -0.446178
4.7 -0.447131
4.71 -0.447268
4.72 -0.446608
4.73 -0.445264
4.74 -0.443376
4.75 -0.441058
4.76 -0.438438
4.77 -0.435646
4.78 -0.432814
4.79 -0.430095
4.8 -0.42761
4.81 -0.42547
4.82 -0.423767
4.83 -0.42258
4.84 -0.421969
4.85 -0.422009
4.86 -0.422721
4.87 -0.424063
4.88 -0.426009
4.89 -0.428517
4.9 -0.43153
4.91 -0.434978
4.92 -0.438809
4.93 -0.442891
4.94 -0.447128
4.95 -0.451427
4.96 -0.455697
4.97 -0.459852
4.98 -0.463797
4.99 -0.467443
5 -0.470742
5.01 -0.473641
5.02 -0.476094
5.03 -0.478064
5.04 -0.47952
5.05 -0.480381
5.06 -0.480669
5.07 -0.480373
5.08 -0.479475
5.09 -0.477953
5.1 -0.475782
5.11 -0.472908
5.12 -0.469257
5.13 -0.464841
5.14 -0.459611
5.15 -0.453511
5.16 -0.446481
5.17 -0.438458
5.18 -0.429274
5.19 -0.41892
5.2 -0.407362
5.21 -0.394541
5.22 -0.380405
5.23 -0.36491
5.24 -0.347989
5.25 -0.329526
5.26 -0.309647
5.27 -0.288364
5.28 -0.265705
5.29 -0.241712
5.3 -0.216442
5.31 -0.189879
5.32 -0.162163
5.33 -0.133439
5.34 -0.10381
5.35 -0.073387
5.36 -0.0422846
5.37 -0.0106143
5.38 0.0215318
5.39 0.0539813
5.4 0.0866208
5.41 0.11934
5.42 0.152032
5.43 0.184595
5.44 0.216908
5.45 0.248866
5.46 0.280386
5.47 0.311377
5.48 0.341745
5.49 0.371394
5.5 0.400222
5.51 0.42801
5.52 0.454743
5.53 0.480303
5.54 0.504569
5.55 0.52741
5.56 0.548692
5.57 0.568177
5.58 0.585692
5.59 0.601204
5.6 0.61458
5.61 0.625693
5.62 0.634426
5.63 0.640676
5.64 0.644072
5.65 0.644798
5.66 0.642841
5.67 0.638186
5.68 0.630848
5.69 0.620869
5.7 0.608208
5.71 0.592909
5.72 0.575289
5.73 0.555501
5.74 0.533721
5.75 0.510141
5.76 0.484967
5.77 0.458305
5.78 0.430509
5.79 0.401831
5.8 0.372489
5.81 0.342696
5.82 0.312651
5.83 0.282545
5.84 0.252572
5.85 0.222879
5.86 0.193591
5.87 0.164811
5.88 0.136625
5.89 0.109097
5.9 0.0823427
5.91 0.0563604
5.92 0.0311501
5.93 0.00672703
5.94 -0.0168975
5.95 -0.0397127
5.96 -0.0616866
5.97 -0.0827356
5.98 -0.102909
5.99 -0.12217
6 -0.140467
6.01 -0.15774
6.02 -0.17392
6.03 -0.188831
6.04 -0.202411
6.05 -0.214616
6.06 -0.225351
6.07 -0.234523
6.08 -0.242045
6.09 -0.247818
6.1 -0.251602
6.11 -0.253537
6.12 -0.2536
6.13 -0.25179
6.14 -0.24813
6.15 -0.242667
6.16 -0.235373
6.17 -0.226382
6.18 -0.215915
6.19 -0.204121
6.2 -0.191166
6.21 -0.177232
6.22 -0.162511
6.23 -0.147152
6.24 -0.131441
6.25 -0.115572
6.26 -0.0997268
6.27 -0.0840764
6.28 -0.0687736
6.29 -0.0539824
6.3 -0.0398324
6.31 -0.0263691
6.32 -0.0136446
6.33 -0.0016849
6.34 0.0095093
6.35 0.0199609
6.36 0.0296475
6.37 0.0387086
6.38 0.0472352
6.39 0.0553215
6.4 0.0630696
6.41 0.0705851
6.42 0.0779731
6.43 0.0853492
6.44 0.0928154
6.45 0.100456
6.46 0.108342
6.47 0.116532
6.48 0.125072
6.49 0.13403
6.5 0.143392
6.51 0.15315
6.52 0.163292
6.53 0.173796
6.54 0.184632
6.55 0.195771
6.56 0.207185
6.57 0.218806
6.58 0.230596
6.59 0.242519
6.6 0.254541
6.61 0.266635
6.62 0.27878
6.63 0.290957
6.64 0.303154
6.65 0.315363
6.66 0.327582
6.67 0.339807
6.68 0.352036
6.69 0.364263
6.7 0.376477
6.71 0.388661
6.72 0.40079
6.73 0.412832
6.74 0.424742
6.75 0.436447
6.76 0.447875
6.77 0.458956
6.78 0.469601
6.79 0.479711
6.8 0.489182
6.81 0.497894
6.82 0.505634
6.83 0.51237
6.84 0.517988
6.85 0.522381
6.86 0.525446
6.87 0.527089
6.88 0.527131
6.89 0.525501
6.9 0.522231
6.91 0.517283
6.92 0.510632
6.93 0.502272
6.94 0.492209
6.95 0.480276
6.96 0.466702
6.97 0.45154
6.98 0.434852
6.99 0.416705
7 0.397179
7.01 0.376294
7.02 0.354131
7.03 0.330868
7.04 0.306598
7.05 0.281415
7.06 0.255413
7.07 0.228685
7.08 0.201272
7.09 0.17333
7.1 0.144962
7.11 0.116259
7.12 0.0873139
7.13 0.058218
7.14 0.0290658
7.15 -3.50307e-05
7.16 -0.0289874
7.17 -0.0576973
7.18 -0.0860707
7.19 -0.114014
7.2 -0.141435
7.21 -0.168179
7.22 -0.194191
7.23 -0.219405
7.24 -0.243745
7.25 -0.267144
7.26 -0.289541
7.27 -0.310855
7.28 -0.330974
7.29 -0.349966
7.3 -0.367817
7.31 -0.384522
7.32 -0.400091
7.33 -0.414541
7.34 -0.427818
7.35 -0.440015
7.36 -0.451219
7.37 -0.461485
7.38 -0.470871
7.39 -0.479438
7.4 -0.487236
7.41 -0.494274
7.42 -0.500683
7.43 -0.506514
7.44 -0.511812
7.45 -0.516615
7.46 -0.520953
7.47 -0.524818
7.48 -0.528233
7.49 -0.531222
7.5 -0.533781
7.51 -0.535899
7.52 -0.537559
7.53 -0.538737
7.54 -0.539356
7.55 -0.539442
7.56 -0.538972
7.57 -0.537924
7.58 -0.536276
7.59 -0.534014
7.6 -0.531089
7.61 -0.527496
7.62 -0.523274
7.63 -0.518428
7.64 -0.512972
7.65 -0.506923
7.66 -0.500304
7.67 -0.493081
7.68 -0.485345
7.69 -0.477128
7.7 -0.468462
7.71 -0.459379
7.72 -0.449909
7.73 -0.440066
7.74 -0.429876
7.75 -0.41939
7.76 -0.408634
7.77 -0.397632
7.78 -0.386411
7.79 -0.374996
7.8 -0.3634
7.81 -0.351671
7.82 -0.339846
7.83 -0.327964
7.84 -0.316069
7.85 -0.304209
7.86 -0.292447
7.87 -0.280857
7.88 -0.269502
7.89 -0.258452
7.9 -0.247783
7.91 -0.237574
7.92 -0.227904
7.93 -0.218912
7.94 -0.210643
7.95 -0.203147
7.96 -0.196483
7.97 -0.190703
7.98 -0.185844
7.99 -0.181958
8 -0.17912
8.01 -0.177235
8.02 -0.176281
8.03 -0.176221
8.04 -0.177003
8.05 -0.178562
8.06 -0.18087
8.07 -0.1838
8.08 -0.187229
8.09 -0.191058
8.1 -0.195185
8.11 -0.19951
8.12 -0.203935
8.13 -0.208359
8.14 -0.212693
8.15 -0.216868
8.16 -0.220824
8.17 -0.224514
8.18 -0.227904
8.19 -0.23095
8.2 -0.233646
8.21 -0.23601
8.22 -0.23805
8.23 -0.239781
8.24 -0.24122
8.25 -0.242381
8.26 -0.243253
8.27 -0.243872
8.28 -0.244238
8.29 -0.244339
8.3 -0.24415
8.31 -0.243637
8.32 -0.242722
8.33 -0.241328
8.34 -0.239399
8.35 -0.236843
8.36 -0.233559
8.37 -0.22944
8.38 -0.224374
8.39 -0.218124
8.4 -0.210677
8.41 -0.201943
8.42 -0.191831
8.43 -0.180267
8.44 -0.167191
8.45 -0.152494
8.46 -0.136114
8.47 -0.118172
8.48 -0.0987011
8.49 -0.0777534
8.5 -0.0554034
8.51 -0.0317442
8.52 -0.00678028
8.53 0.0192536
8.54 0.0461991
8.55 0.0739144
8.56 0.102255
8.57 0.13108
8.58 0.160259
8.59 0.189657
8.6 0.219133
8.61 0.248589
8.62 0.277939
8.63 0.307115
8.64 0.336063
8.65 0.364721
8.66 0.39308
8.67 0.421138
8.68 0.448892
8.69 0.476347
8.7 0.503505
8.71 0.530361
8.72 0.556888
8.73 0.583096
8.74 0.608953
8.75 0.634412
8.76 0.659408
8.77 0.683855
8.78 0.707589
8.79 0.730488
8.8 0.752432
8.81 0.773257
8.82 0.792787
8.83 0.810835
8.84 0.827187
8.85 0.841455
8.86 0.853629
8.87 0.863533
8.88 0.871003
8.89 0.875894
8.9 0.878083
8.91 0.877286
8.92 0.873465
8.93 0.866734
8.94 0.857095
8.95 0.844577
8.96 0.829241
8.97 0.811174
8.98 0.790204
8.99 0.766789
9 0.741088
9.01 0.713274
9.02 0.683532
9.03 0.652049
9.04 0.61894
9.05 0.584408
9.06 0.548727
9.07 0.512065
9.08 0.474578
9.09 0.436411
9.1 0.397692
9.11 0.358504
9.12 0.319001
9.13 0.279279
9.14 0.239419
9.15 0.199498
9.16 0.159591
9.17 0.11978
9.18 0.0801609
9.19 0.0408125
9.2 0.00183155
9.21 -0.0366739
9.22 -0.0745827
9.23 -0.11176
9.24 -0.147958
9.25 -0.183059
9.26 -0.216907
9.27 -0.249316
9.28 -0.280096
9.29 -0.309055
9.3 -0.335932
9.31 -0.360398
9.32 -0.382457
9.33 -0.401953
9.34 -0.418749
9.35 -0.43273
9.36 -0.443811
9.37 -0.451677
9.38 -0.456457
9.39 -0.458257
9.4 -0.457121
9.41 -0.45312
9.42 -0.446354
9.43 -0.436899
9.44 -0.424738
9.45 -0.410295
9.46 -0.393757
9.47 -0.375318
9.48 -0.35518
9.49 -0.333543
9.5 -0.310523
9.51 -0.286371
9.52 -0.261319
9.53 -0.235526
9.54 -0.209137
9.55 -0.182278
9.56 -0.155058
9.57 -0.12755
9.58 -0.0998662
9.59 -0.072064
9.6 -0.0441922
9.61 -0.0162911
9.62 0.0116041
9.63 0.0394552
9.64 0.0672218
9.65 0.0948651
9.66 0.122336
9.67 0.149577
9.68 0.176515
9.69 0.20307
9.7 0.229076
9.71 0.254468
9.72 0.279123
9.73 0.302911
9.74 0.325693
9.75 0.347327
9.76 0.367598
9.77 0.386327
9.78 0.40347
9.79 0.41891
9.8 0.432543
9.81 0.444286
9.82 0.454073
9.83 0.461651
9.84 0.46719
9.85 0.470727
9.86 0.4723
9.87 0.471969
9.88 0.469819
9.89 0.465885
9.9 0.460249
9.91 0.453176
9.92 0.44481
9.93 0.4353
9.94 0.424796
9.95 0.413445
9.96 0.401336
9.97 0.388661
9.98 0.375553
9.99 0.362112
10 0.348423
10.01 0.334553
10.02 0.320549
10.03 0.30644
10.04 0.292251
10.05 0.277981
10.06 0.26362
10.07 0.249148
10.08 0.234539
10.09 0.219749
10.1 0.204756
10.11 0.189541
10.12 0.174087
10.13 0.158385
10.14 0.142436
10.15 0.12625
10.16 0.109839
10.17 0.0932657
10.18 0.0765827
10.19 0.0598526
10.2 0.043147
10.21 0.0265448
10.22 0.0101497
10.23 -0.00594452
10.24 -0.0216613
10.25 -0.0369185
10.26 -0.0516399
10.27 -0.0657575
10.28 -0.0792089
10.29 -0.0918715
10.3 -0.103791
10.31 -0.114953
10.32 -0.125357
10.33 -0.135018
10.34 -0.143964
10.35 -0.152198
10.36 -0.159783
10.37 -0.166818
10.38 -0.173372
10.39 -0.179519
10.4 -0.185335
10.41 -0.190893
10.42 -0.196253
10.43 -0.201511
10.44 -0.206728
10.45 -0.211959
10.46 -0.217248
10.47 -0.222633
10.48 -0.228149
10.49 -0.23382
10.5 -0.239647
10.51 -0.245631
10.52 -0.251768
10.53 -0.258049
10.54 -0.264463
10.55 -0.271004
10.56 -0.277645
10.57 -0.28437
10.58 -0.291166
10.59 -0.298022
10.6 -0.304929
10.61 -0.311887
10.62 -0.318896
10.63 -0.325955
10.64 -0.333071
10.65 -0.340251
10.66 -0.347505
10.67 -0.354841
10.68 -0.362276
10.69 -0.369811
10.7 -0.377446
10.71 -0.385179
10.72 -0.393005
10.73 -0.400911
10.74 -0.408883
10.75 -0.416897
10.76 -0.424919
10.77 -0.432917
10.78 -0.440854
10.79 -0.448691
10.8 -0.456386
10.81 -0.463882
10.82 -0.471139
10.83 -0.478127
10.84 -0.484813
10.85 -0.491167
10.86 -0.497165
10.87 -0.502782
10.88 -0.507973
10.89 -0.512774
10.9 -0.517187
10.91 -0.521221
10.92 -0.524889
10.93 -0.528209
10.94 -0.531179
10.95 -0.533831
10.96 -0.536199
10.97 -0.538303
10.98 -0.540157
10.99 -0.54177
11 -0.543144
11.01 -0.544247
11.02 -0.545092
11.03 -0.545657
11.04 -0.545909
11.05 -0.54581
11.06 -0.545314
11.07 -0.544338
11.08 -0.542815
11.09 -0.54071
11.1 -0.537962
11.11 -0.534509
11.12 -0.530293
11.13 -0.525261
11.14 -0.519268
11.15 -0.512364
11.16 -0.504532
11.17 -0.495761
11.18 -0.48605
11.19 -0.475417
11.2 -0.463849
11.21 -0.451375
11.22 -0.438116
11.23 -0.424141
11.24 -0.409527
11.25 -0.39436
11.26 -0.378732
11.27 -0.36271
11.28 -0.34643
11.29 -0.329993
11.3 -0.313487
11.31 -0.296995
11.32 -0.28059
11.33 -0.264342
11.34 -0.248319
11.35 -0.232541
11.36 -0.21703
11.37 -0.201792
11.38 -0.18682
11.39 -0.172096
11.4 -0.157601
11.41 -0.143274
11.42 -0.129053
11.43 -0.114878
11.44 -0.100683
11.45 -0.0863985
11.46 -0.0719499
11.47 -0.057245
11.48 -0.0422367
11.49 -0.0268677
11.5 -0.0110879
11.51 0.00514422
11.52 0.0218605
11.53 0.0391226
11.54 0.0569225
11.55 0.0752375
11.56 0.0940552
11.57 0.113353
11.58 0.133102
11.59 0.153266
11.6 0.173829
11.61 0.194696
11.62 0.215815
11.63 0.237127
11.64 0.258575
11.65 0.280102
11.66 0.301649
11.67 0.323154
11.68 0.344565
11.69 0.365834
11.7 0.386917
11.71 0.407772
11.72 0.428358
11.73 0.448601
11.74 0.468497
11.75 0.488012
11.76 0.50711
11.77 0.525755
11.78 0.54391
11.79 0.561501
11.8 0.578472
11.81 0.594808
11.82 0.610455
11.83 0.625354
11.84 0.639443
11.85 0.652655
11.86 0.664809
11.87 0.675918
11.88 0.685916
11.89 0.694726
11.9 0.702274
11.91 0.708488
11.92 0.713233
11.93 0.716394
11.94 0.718019
11.95 0.71806
11.96 0.716477
11.97 0.713242
11.98 0.708337
11.99 0.701594
12 0.693149
12.01 0.683057
12.02 0.67135
12.03 0.658071
12.04 0.643276
12.05 0.626983
12.06 0.609206
12.07 0.590151
12.08 0.569908
12.09 0.548572
12.1 0.526245
12.11 0.503029
12.12 0.478971
12.13 0.454233
12.14 0.428946
12.15 0.403214
12.16 0.37714
12.17 0.350827
12.18 0.324372
12.19 0.297882
12.2 0.271461
12.21 0.245201
12.22 0.219191
12.23 0.193518
12.24 0.168269
12.25 0.14357
12.26 0.119501
12.27 0.0961191
