# xPDFsuite Configuration #
[PDF]
wavelength = 0.1
dataformat = QA
inputfile = BiMsol6_insitu_700 C-00399.xy
backgroundfile = Quartz2mm-dist500-00000.xy
mode = xray
bgscale = 0.0042
composition = Bi2Fe4O9
outputtype = gr
qmaxinst = 24.998449118
qmin = 0.1
qmax = 21.4986662415
rmax = 80.0
rmin = 0.0
rstep = 0.01
rpoly = 0.9

[Misc]
inputdir = C:/Data/Seafile/CPH/Beamtime/Desy Oct 20/In situ data/Processed/BiMsol6/PDF
savedir = C:/Data/Seafile/CPH/Beamtime/Desy Oct 20/In situ data/PDF/BiMsol6
backgroundfilefull = C:/Data/Seafile/CPH/Beamtime/Desy Oct 20/In situ data/Processed/Standard_Empty_Cap/Quartz2mm-dist500-00000.xy

#### start data
#S 1
#L r($\AA$)  G($\AA^{-2}$)
0 0
0.01 0.0068018
0.02 0.0132205
0.03 0.0189282
0.04 0.0236308
0.05 0.0270812
0.06 0.0290911
0.07 0.0294547
0.08 0.0281118
0.09 0.025214
0.1 0.020886
0.11 0.0153213
0.12 0.00877357
0.13 0.00154561
0.14 -0.00602232
0.15 -0.0135016
0.16 -0.0205307
0.17 -0.0267705
0.18 -0.0319167
0.19 -0.0357155
0.2 -0.0379059
0.21 -0.03831
0.22 -0.0370315
0.23 -0.0341411
0.24 -0.0297918
0.25 -0.024215
0.26 -0.0177106
0.27 -0.0106206
0.28 -0.0034364
0.29 0.00340429
0.3 0.00947663
0.31 0.0143768
0.32 0.0177418
0.33 0.0192043
0.34 0.018405
0.35 0.0153995
0.36 0.0101855
0.37 0.0028711
0.38 -0.00632364
0.39 -0.0170697
0.4 -0.0289858
0.41 -0.0414159
0.42 -0.0537161
0.43 -0.0652319
0.44 -0.0752862
0.45 -0.0832047
0.46 -0.0882746
0.47 -0.0895781
0.48 -0.0869159
0.49 -0.0799168
0.5 -0.0683392
0.51 -0.0520865
0.52 -0.0312174
0.53 -0.00566065
0.54 0.0239987
0.55 0.0569906
0.56 0.0926
0.57 0.129991
0.58 0.168231
0.59 0.206303
0.6 0.242912
0.61 0.277045
0.62 0.307684
0.63 0.333877
0.64 0.35477
0.65 0.369631
0.66 0.377446
0.67 0.37781
0.68 0.370923
0.69 0.356805
0.7 0.335674
0.71 0.307936
0.72 0.274178
0.73 0.234645
0.74 0.190923
0.75 0.144049
0.76 0.0951199
0.77 0.0452697
0.78 -0.00436157
0.79 -0.0525405
0.8 -0.0980374
0.81 -0.140031
0.82 -0.177727
0.83 -0.210481
0.84 -0.237816
0.85 -0.259429
0.86 -0.274602
0.87 -0.283962
0.88 -0.287865
0.89 -0.286748
0.9 -0.281179
0.91 -0.271843
0.92 -0.259425
0.93 -0.244794
0.94 -0.229029
0.95 -0.212977
0.96 -0.197446
0.97 -0.183176
0.98 -0.170823
0.99 -0.161198
1 -0.154584
1.01 -0.15117
1.02 -0.151071
1.03 -0.154264
1.04 -0.1606
1.05 -0.16988
1.06 -0.181823
1.07 -0.195702
1.08 -0.210989
1.09 -0.227119
1.1 -0.24352
1.11 -0.25963
1.12 -0.274819
1.13 -0.288604
1.14 -0.30064
1.15 -0.310637
1.16 -0.318402
1.17 -0.32384
1.18 -0.326921
1.19 -0.327587
1.2 -0.326281
1.21 -0.323285
1.22 -0.318941
1.23 -0.313631
1.24 -0.307756
1.25 -0.301743
1.26 -0.296039
1.27 -0.290997
1.28 -0.286916
1.29 -0.28403
1.3 -0.282501
1.31 -0.282425
1.32 -0.283947
1.33 -0.286811
1.34 -0.29085
1.35 -0.295835
1.36 -0.301483
1.37 -0.307477
1.38 -0.313454
1.39 -0.319014
1.4 -0.32383
1.41 -0.327602
1.42 -0.330076
1.43 -0.331053
1.44 -0.330402
1.45 -0.327877
1.46 -0.323696
1.47 -0.317983
1.48 -0.310926
1.49 -0.302779
1.5 -0.29385
1.51 -0.284488
1.52 -0.275127
1.53 -0.266182
1.54 -0.258034
1.55 -0.251037
1.56 -0.245502
1.57 -0.241687
1.58 -0.239989
1.59 -0.240354
1.6 -0.242761
1.61 -0.247133
1.62 -0.253308
1.63 -0.261045
1.64 -0.270066
1.65 -0.279977
1.66 -0.290254
1.67 -0.300442
1.68 -0.310075
1.69 -0.318697
1.7 -0.325877
1.71 -0.331029
1.72 -0.333905
1.73 -0.334317
1.74 -0.332103
1.75 -0.327195
1.76 -0.319614
1.77 -0.309413
1.78 -0.296679
1.79 -0.281946
1.8 -0.265587
1.81 -0.248026
1.82 -0.229729
1.83 -0.211183
1.84 -0.192936
1.85 -0.175515
1.86 -0.159345
1.87 -0.14481
1.88 -0.132233
1.89 -0.121859
1.9 -0.113886
1.91 -0.108603
1.92 -0.105725
1.93 -0.105125
1.94 -0.106595
1.95 -0.109858
1.96 -0.114574
1.97 -0.120399
1.98 -0.126834
1.99 -0.133396
2 -0.139661
2.01 -0.145227
2.02 -0.149732
2.03 -0.152861
2.04 -0.154171
2.05 -0.153674
2.06 -0.151302
2.07 -0.147072
2.08 -0.141082
2.09 -0.133507
2.1 -0.124539
2.11 -0.114542
2.12 -0.103966
2.13 -0.0932149
2.14 -0.0827094
2.15 -0.072872
2.16 -0.0641106
2.17 -0.0570005
2.18 -0.0517515
2.19 -0.0486146
2.2 -0.0477846
2.21 -0.0493817
2.22 -0.053448
2.23 -0.0600512
2.24 -0.0691088
2.25 -0.080241
2.26 -0.0931781
2.27 -0.107598
2.28 -0.123138
2.29 -0.139407
2.3 -0.155991
2.31 -0.172417
2.32 -0.188296
2.33 -0.203277
2.34 -0.217049
2.35 -0.229356
2.36 -0.239937
2.37 -0.248565
2.38 -0.255335
2.39 -0.260269
2.4 -0.263455
2.41 -0.265039
2.42 -0.265222
2.43 -0.264169
2.44 -0.262263
2.45 -0.25984
2.46 -0.257207
2.47 -0.254668
2.48 -0.252513
2.49 -0.251022
2.5 -0.250508
2.51 -0.251077
2.52 -0.25285
2.53 -0.255897
2.54 -0.260234
2.55 -0.265825
2.56 -0.272664
2.57 -0.280554
2.58 -0.289271
2.59 -0.29861
2.6 -0.308345
2.61 -0.31824
2.62 -0.32805
2.63 -0.337488
2.64 -0.346352
2.65 -0.354452
2.66 -0.361629
2.67 -0.367752
2.68 -0.372728
2.69 -0.376422
2.7 -0.37883
2.71 -0.380036
2.72 -0.380093
2.73 -0.379075
2.74 -0.377078
2.75 -0.374209
2.76 -0.370511
2.77 -0.366195
2.78 -0.36137
2.79 -0.356132
2.8 -0.350558
2.81 -0.344708
2.82 -0.338606
2.83 -0.332261
2.84 -0.325673
2.85 -0.318803
2.86 -0.311596
2.87 -0.303983
2.88 -0.295881
2.89 -0.287134
2.9 -0.277704
2.91 -0.267516
2.92 -0.256503
2.93 -0.244612
2.94 -0.231811
2.95 -0.218051
2.96 -0.203322
2.97 -0.187739
2.98 -0.171372
2.99 -0.154314
3 -0.136679
3.01 -0.118596
3.02 -0.100195
3.03 -0.081667
3.04 -0.0631701
3.05 -0.0448535
3.06 -0.0268566
3.07 -0.0093049
3.08 0.0076736
3.09 0.0239508
3.1 0.0395207
3.11 0.054355
3.12 0.0684515
3.13 0.0818337
3.14 0.0945487
3.15 0.106621
3.16 0.118183
3.17 0.129354
3.18 0.140244
3.19 0.150964
3.2 0.161622
3.21 0.172324
3.22 0.183175
3.23 0.194238
3.24 0.20556
3.25 0.217164
3.26 0.22905
3.27 0.241194
3.28 0.253559
3.29 0.266055
3.3 0.278578
3.31 0.291018
3.32 0.303254
3.33 0.315158
3.34 0.326592
3.35 0.337355
3.36 0.347381
3.37 0.356564
3.38 0.364814
3.39 0.37206
3.4 0.378255
3.41 0.383304
3.42 0.387221
3.43 0.390095
3.44 0.391978
3.45 0.392945
3.46 0.393089
3.47 0.392521
3.48 0.391307
3.49 0.389659
3.5 0.387715
3.51 0.38561
3.52 0.383476
3.53 0.38144
3.54 0.379634
3.55 0.378182
3.56 0.377155
3.57 0.376626
3.58 0.37665
3.59 0.377269
3.6 0.37851
3.61 0.380453
3.62 0.383037
3.63 0.386243
3.64 0.390051
3.65 0.394435
3.66 0.399363
3.67 0.404822
3.68 0.410789
3.69 0.41719
3.7 0.423991
3.71 0.431157
3.72 0.438657
3.73 0.446457
3.74 0.454545
3.75 0.462864
3.76 0.47137
3.77 0.480019
3.78 0.488763
3.79 0.497548
3.8 0.506309
3.81 0.51496
3.82 0.523422
3.83 0.531604
3.84 0.53941
3.85 0.546734
3.86 0.553465
3.87 0.559421
3.88 0.564501
3.89 0.568615
3.9 0.571647
3.91 0.573489
3.92 0.574038
3.93 0.573176
3.94 0.570695
3.95 0.566673
3.96 0.56106
3.97 0.553826
3.98 0.544955
3.99 0.53445
4 0.522217
4.01 0.508336
4.02 0.492934
4.03 0.476075
4.04 0.457835
4.05 0.438296
4.06 0.417543
4.07 0.39557
4.08 0.372607
4.09 0.348757
4.1 0.324119
4.11 0.298795
4.12 0.272883
4.13 0.246454
4.14 0.219617
4.15 0.192489
4.16 0.165157
4.17 0.137708
4.18 0.110225
4.19 0.0827922
4.2 0.0555203
4.21 0.0284878
4.22 0.00178121
4.23 -0.0245111
4.24 -0.0502996
4.25 -0.0754935
4.26 -0.0999642
4.27 -0.123594
4.28 -0.146344
4.29 -0.168133
4.3 -0.188883
4.31 -0.208527
4.32 -0.227005
4.33 -0.244144
4.34 -0.260013
4.35 -0.274617
4.36 -0.287955
4.37 -0.300044
4.38 -0.310917
4.39 -0.320583
4.4 -0.329072
4.41 -0.336559
4.42 -0.343136
4.43 -0.348906
4.44 -0.35398
4.45 -0.358469
4.46 -0.362455
4.47 -0.366092
4.48 -0.369493
4.49 -0.372751
4.5 -0.375949
4.51 -0.379151
4.52 -0.382412
4.53 -0.385772
4.54 -0.389238
4.55 -0.392803
4.56 -0.396443
4.57 -0.400122
4.58 -0.403787
4.59 -0.407367
4.6 -0.410783
4.61 -0.413966
4.62 -0.416839
4.63 -0.41933
4.64 -0.421374
4.65 -0.422904
4.66 -0.423824
4.67 -0.42416
4.68 -0.4239
4.69 -0.423051
4.7 -0.421636
4.71 -0.419696
4.72 -0.417261
4.73 -0.414425
4.74 -0.411298
4.75 -0.407977
4.76 -0.404566
4.77 -0.401171
4.78 -0.397904
4.79 -0.394904
4.8 -0.392252
4.81 -0.390036
4.82 -0.388332
4.83 -0.387199
4.84 -0.386683
4.85 -0.386852
4.86 -0.387716
4.87 -0.389228
4.88 -0.391361
4.89 -0.394072
4.9 -0.397307
4.91 -0.400999
4.92 -0.405103
4.93 -0.409486
4.94 -0.414058
4.95 -0.418725
4.96 -0.423398
4.97 -0.427986
4.98 -0.432395
4.99 -0.436526
5 -0.440321
5.01 -0.443717
5.02 -0.446656
5.03 -0.449089
5.04 -0.450972
5.05 -0.452207
5.06 -0.452806
5.07 -0.452751
5.08 -0.452017
5.09 -0.45058
5.1 -0.448413
5.11 -0.445464
5.12 -0.441664
5.13 -0.437043
5.14 -0.431568
5.15 -0.4252
5.16 -0.4179
5.17 -0.409626
5.18 -0.400238
5.19 -0.38975
5.2 -0.378146
5.21 -0.365385
5.22 -0.351429
5.23 -0.336243
5.24 -0.319767
5.25 -0.30189
5.26 -0.282717
5.27 -0.262243
5.28 -0.240472
5.29 -0.217417
5.3 -0.193101
5.31 -0.167462
5.32 -0.140593
5.33 -0.112594
5.34 -0.0835214
5.35 -0.0534419
5.36 -0.0224276
5.37 0.00945243
5.38 0.0421707
5.39 0.0755466
5.4 0.109481
5.41 0.143866
5.42 0.178591
5.43 0.213537
5.44 0.248572
5.45 0.283541
5.46 0.318295
5.47 0.352684
5.48 0.386545
5.49 0.419711
5.5 0.452005
5.51 0.483103
5.52 0.512922
5.53 0.541268
5.54 0.56795
5.55 0.592775
5.56 0.615555
5.57 0.635974
5.58 0.653819
5.59 0.669074
5.6 0.681602
5.61 0.691284
5.62 0.698024
5.63 0.701753
5.64 0.702095
5.65 0.699348
5.66 0.693562
5.67 0.684796
5.68 0.673135
5.69 0.658697
5.7 0.641514
5.71 0.621714
5.72 0.59968
5.73 0.575625
5.74 0.549772
5.75 0.522355
5.76 0.493611
5.77 0.463692
5.78 0.432937
5.79 0.401588
5.8 0.369847
5.81 0.337903
5.82 0.305926
5.83 0.274073
5.84 0.242496
5.85 0.211286
5.86 0.180521
5.87 0.150263
5.88 0.120557
5.89 0.0914356
5.9 0.0629732
5.91 0.0351531
5.92 0.00796835
5.93 -0.0185672
5.94 -0.0444345
5.95 -0.0696066
5.96 -0.0940286
5.97 -0.117585
5.98 -0.140277
5.99 -0.162025
6 -0.18273
6.01 -0.202287
6.02 -0.220577
6.03 -0.237359
6.04 -0.252532
6.05 -0.266026
6.06 -0.277716
6.07 -0.28749
6.08 -0.295246
6.09 -0.300877
6.1 -0.304114
6.11 -0.305151
6.12 -0.303989
6.13 -0.300657
6.14 -0.295216
6.15 -0.287755
6.16 -0.278284
6.17 -0.266996
6.18 -0.25417
6.19 -0.240004
6.2 -0.224712
6.21 -0.208517
6.22 -0.19165
6.23 -0.174317
6.24 -0.156811
6.25 -0.139343
6.26 -0.122107
6.27 -0.105277
6.28 -0.0889999
6.29 -0.0734392
6.3 -0.0587055
6.31 -0.0448079
6.32 -0.0317704
6.33 -0.0195875
6.34 -0.00822685
6.35 0.0023691
6.36 0.0122172
6.37 0.0214922
6.38 0.0303156
6.39 0.0388094
6.4 0.0470998
6.41 0.0553126
6.42 0.0635762
6.43 0.0720248
6.44 0.0807527
6.45 0.0898453
6.46 0.0993721
6.47 0.109386
6.48 0.119923
6.49 0.131053
6.5 0.142738
6.51 0.154951
6.52 0.167665
6.53 0.180843
6.54 0.194441
6.55 0.208421
6.56 0.222741
6.57 0.237322
6.58 0.252113
6.59 0.267073
6.6 0.282163
6.61 0.297351
6.62 0.312614
6.63 0.327928
6.64 0.343279
6.65 0.358655
6.66 0.37405
6.67 0.389457
6.68 0.404867
6.69 0.420265
6.7 0.435632
6.71 0.45094
6.72 0.466151
6.73 0.481218
6.74 0.496081
6.75 0.510642
6.76 0.52481
6.77 0.538501
6.78 0.551605
6.79 0.564005
6.8 0.575576
6.81 0.586179
6.82 0.595556
6.83 0.603684
6.84 0.610434
6.85 0.615683
6.86 0.619317
6.87 0.621233
6.88 0.621223
6.89 0.61921
6.9 0.615238
6.91 0.609263
6.92 0.601259
6.93 0.591218
6.94 0.579144
6.95 0.564832
6.96 0.548549
6.97 0.53035
6.98 0.510297
6.99 0.488463
7 0.464926
7.01 0.439697
7.02 0.412858
7.03 0.384614
7.04 0.355064
7.05 0.324314
7.06 0.292468
7.07 0.259634
7.08 0.225843
7.09 0.191297
7.1 0.156122
7.11 0.120436
7.12 0.0843567
7.13 0.0480066
7.14 0.0115099
7.15 -0.0249883
7.16 -0.0613483
7.17 -0.0974382
7.18 -0.133125
7.19 -0.168278
7.2 -0.202764
7.21 -0.236372
7.22 -0.269017
7.23 -0.300605
7.24 -0.331027
7.25 -0.360187
7.26 -0.387998
7.27 -0.414346
7.28 -0.439074
7.29 -0.462271
7.3 -0.48391
7.31 -0.503983
7.32 -0.522495
7.33 -0.539466
7.34 -0.554812
7.35 -0.568653
7.36 -0.581104
7.37 -0.592229
7.38 -0.602102
7.39 -0.610799
7.4 -0.61838
7.41 -0.624846
7.42 -0.630379
7.43 -0.635045
7.44 -0.638905
7.45 -0.642014
7.46 -0.644414
7.47 -0.646097
7.48 -0.647105
7.49 -0.647484
7.5 -0.647243
7.51 -0.646379
7.52 -0.644887
7.53 -0.642753
7.54 -0.639892
7.55 -0.636361
7.56 -0.632147
7.57 -0.627237
7.58 -0.621624
7.59 -0.615304
7.6 -0.608238
7.61 -0.600436
7.62 -0.591955
7.63 -0.582816
7.64 -0.573046
7.65 -0.562679
7.66 -0.551751
7.67 -0.540247
7.68 -0.528271
7.69 -0.515868
7.7 -0.50308
7.71 -0.489952
7.72 -0.476521
7.73 -0.462816
7.74 -0.448872
7.75 -0.434738
7.76 -0.420442
7.77 -0.406011
7.78 -0.391472
7.79 -0.376848
7.8 -0.362163
7.81 -0.34745
7.82 -0.332742
7.83 -0.318074
7.84 -0.303484
7.85 -0.289017
7.86 -0.274733
7.87 -0.260707
7.88 -0.246991
7.89 -0.233654
7.9 -0.22077
7.91 -0.208417
7.92 -0.196673
7.93 -0.185688
7.94 -0.175505
7.95 -0.166174
7.96 -0.157761
7.97 -0.150323
7.98 -0.143904
7.99 -0.138566
8 -0.134399
8.01 -0.131309
8.02 -0.129281
8.03 -0.128287
8.04 -0.128285
8.05 -0.129219
8.06 -0.131081
8.07 -0.133748
8.08 -0.137096
8.09 -0.141034
8.1 -0.145465
8.11 -0.150292
8.12 -0.155424
8.13 -0.160782
8.14 -0.166254
8.15 -0.17177
8.16 -0.177267
8.17 -0.182695
8.18 -0.188012
8.19 -0.193178
8.2 -0.198172
8.21 -0.20299
8.22 -0.207629
8.23 -0.212086
8.24 -0.216361
8.25 -0.220452
8.26 -0.224331
8.27 -0.228006
8.28 -0.231454
8.29 -0.234641
8.3 -0.237521
8.31 -0.240035
8.32 -0.242081
8.33 -0.243557
8.34 -0.244389
8.35 -0.244467
8.36 -0.243673
8.37 -0.241885
8.38 -0.238978
8.39 -0.234679
8.4 -0.228987
8.41 -0.221804
8.42 -0.213036
8.43 -0.202608
8.44 -0.190458
8.45 -0.17647
8.46 -0.160582
8.47 -0.142935
8.48 -0.123569
8.49 -0.102543
8.5 -0.0799426
8.51 -0.0558687
8.52 -0.0303215
8.53 -0.00355862
8.54 0.0242492
8.55 0.0529512
8.56 0.0823953
8.57 0.112432
8.58 0.142927
8.59 0.173746
8.6 0.204734
8.61 0.235787
8.62 0.266818
8.63 0.297756
8.64 0.328546
8.65 0.359131
8.66 0.389496
8.67 0.419635
8.68 0.449546
8.69 0.47923
8.7 0.50869
8.71 0.53792
8.72 0.566893
8.73 0.59561
8.74 0.624034
8.75 0.652115
8.76 0.679779
8.77 0.706936
8.78 0.733415
8.79 0.759084
8.8 0.783813
8.81 0.807427
8.82 0.829741
8.83 0.850558
8.84 0.869651
8.85 0.886614
8.86 0.901431
8.87 0.913911
8.88 0.923879
8.89 0.931175
8.9 0.935664
8.91 0.937039
8.92 0.935248
8.93 0.930397
8.94 0.922473
8.95 0.911493
8.96 0.897504
8.97 0.880578
8.98 0.860505
8.99 0.837754
9 0.812475
9.01 0.784832
9.02 0.755
9.03 0.723161
9.04 0.689412
9.05 0.653953
9.06 0.617074
9.07 0.57895
9.08 0.539743
9.09 0.499608
9.1 0.458688
9.11 0.41706
9.12 0.37492
9.13 0.332386
9.14 0.289566
9.15 0.246563
9.16 0.203477
9.17 0.160416
9.18 0.117508
9.19 0.0748641
9.2 0.0326075
9.21 -0.00912852
9.22 -0.0501997
9.23 -0.0904506
9.24 -0.129603
9.25 -0.167533
9.26 -0.204075
9.27 -0.239038
9.28 -0.272228
9.29 -0.303453
9.3 -0.332451
9.31 -0.358895
9.32 -0.382807
9.33 -0.404043
9.34 -0.422478
9.35 -0.43801
9.36 -0.450562
9.37 -0.459828
9.38 -0.465949
9.39 -0.469039
9.4 -0.469144
9.41 -0.466336
9.42 -0.46071
9.43 -0.452334
9.44 -0.44117
9.45 -0.427634
9.46 -0.411893
9.47 -0.394122
9.48 -0.374496
9.49 -0.353192
9.5 -0.330285
9.51 -0.306007
9.52 -0.280576
9.53 -0.254133
9.54 -0.226809
9.55 -0.198721
9.56 -0.16997
9.57 -0.140608
9.58 -0.110787
9.59 -0.0805858
9.6 -0.0500797
9.61 -0.0193423
9.62 0.0115503
9.63 0.0425169
9.64 0.073455
9.65 0.104262
9.66 0.134829
9.67 0.165033
9.68 0.194742
9.69 0.223811
9.7 0.251975
9.71 0.279144
9.72 0.305152
9.73 0.329825
9.74 0.352995
9.75 0.374497
9.76 0.394075
9.77 0.411543
9.78 0.426902
9.79 0.440058
9.8 0.450937
9.81 0.459497
9.82 0.465722
9.83 0.469386
9.84 0.470758
9.85 0.469947
9.86 0.467058
9.87 0.462224
9.88 0.455594
9.89 0.447279
9.9 0.437435
9.91 0.426373
9.92 0.414285
9.93 0.401359
9.94 0.387776
9.95 0.373704
9.96 0.359277
9.97 0.344665
9.98 0.329982
9.99 0.315311
10 0.30071
10.01 0.286217
10.02 0.271846
10.03 0.257594
10.04 0.243419
10.05 0.229276
10.06 0.215109
10.07 0.200857
10.08 0.186453
10.09 0.171812
10.1 0.156878
10.11 0.141614
10.12 0.125984
10.13 0.109969
10.14 0.0935682
10.15 0.0767903
10.16 0.0596492
10.17 0.042238
10.18 0.0246302
10.19 0.00691363
10.2 -0.0108118
10.21 -0.0284371
10.22 -0.0458232
10.23 -0.0628417
10.24 -0.0793879
10.25 -0.0953528
10.26 -0.110636
10.27 -0.125149
10.28 -0.138813
10.29 -0.151473
10.3 -0.16319
10.31 -0.17395
10.32 -0.183759
10.33 -0.192642
10.34 -0.200639
10.35 -0.207766
10.36 -0.21411
10.37 -0.219804
10.38 -0.224944
10.39 -0.229629
10.4 -0.233961
10.41 -0.238041
10.42 -0.241961
10.43 -0.245835
10.44 -0.249745
10.45 -0.253761
10.46 -0.25794
10.47 -0.262328
10.48 -0.266971
10.49 -0.271895
10.5 -0.277088
10.51 -0.282542
10.52 -0.288243
10.53 -0.294167
10.54 -0.300283
10.55 -0.306569
10.56 -0.31297
10.57 -0.319445
10.58 -0.325956
10.59 -0.33247
10.6 -0.338953
10.61 -0.345376
10.62 -0.351709
10.63 -0.357942
10.64 -0.364061
10.65 -0.370059
10.66 -0.375931
10.67 -0.381677
10.68 -0.387287
10.69 -0.39277
10.7 -0.398131
10.71 -0.403373
10.72 -0.408495
10.73 -0.413494
10.74 -0.418361
10.75 -0.42308
10.76 -0.42765
10.77 -0.432059
10.78 -0.436292
10.79 -0.440334
10.8 -0.444167
10.81 -0.447757
10.82 -0.451099
10.83 -0.45419
10.84 -0.457023
10.85 -0.459594
10.86 -0.461905
10.87 -0.463958
10.88 -0.465746
10.89 -0.467311
10.9 -0.468674
10.91 -0.46986
10.92 -0.470895
10.93 -0.471808
10.94 -0.47262
10.95 -0.473364
10.96 -0.474066
10.97 -0.474743
10.98 -0.475405
10.99 -0.476055
11 -0.476689
11.01 -0.477286
11.02 -0.477822
11.03 -0.47826
11.04 -0.478556
11.05 -0.478654
11.06 -0.478494
11.07 -0.477985
11.08 -0.47704
11.09 -0.475606
11.1 -0.473604
11.11 -0.470961
11.12 -0.467606
11.13 -0.463475
11.14 -0.458415
11.15 -0.452462
11.16 -0.445591
11.17 -0.437783
11.18 -0.429032
11.19 -0.419348
11.2 -0.408714
11.21 -0.397153
11.22 -0.384784
11.23 -0.371671
11.24 -0.357891
11.25 -0.343528
11.26 -0.328673
11.27 -0.313389
11.28 -0.297818
11.29 -0.282061
11.3 -0.26621
11.31 -0.250352
11.32 -0.234567
11.33 -0.218932
11.34 -0.203523
11.35 -0.188371
11.36 -0.173509
11.37 -0.158956
11.38 -0.144718
11.39 -0.130787
11.4 -0.117168
11.41 -0.103808
11.42 -0.0906576
11.43 -0.0776657
11.44 -0.0647759
11.45 -0.0519266
11.46 -0.0390509
11.47 -0.0260679
11.48 -0.0129157
11.49 0.000468532
11.5 0.0141439
11.51 0.0281645
11.52 0.0425782
11.53 0.0574623
11.54 0.0728368
11.55 0.0887071
11.56 0.105087
11.57 0.121984
11.58 0.139393
11.59 0.157311
11.6 0.175761
11.61 0.194661
11.62 0.213979
11.63 0.233674
11.64 0.2537
11.65 0.274007
11.66 0.294553
11.67 0.315266
11.68 0.336074
11.69 0.356913
11.7 0.377717
11.71 0.398419
11.72 0.418951
11.73 0.439207
11.74 0.459139
11.75 0.478676
11.76 0.497749
11.77 0.516288
11.78 0.534223
11.79 0.551444
11.8 0.567868
11.81 0.583473
11.82 0.598192
11.83 0.611965
11.84 0.62473
11.85 0.63643
11.86 0.646884
11.87 0.656146
11.88 0.664181
11.89 0.670944
11.9 0.676398
11.91 0.680507
11.92 0.68318
11.93 0.684349
11.94 0.684095
11.95 0.682404
11.96 0.679269
11.97 0.674686
11.98 0.668657
11.99 0.661051
12 0.651995
12.01 0.641537
12.02 0.629702
12.03 0.616521
12.04 0.602031
12.05 0.586235
12.06 0.569125
12.07 0.550862
12.08 0.531509
12.09 0.511132
12.1 0.489806
12.11 0.467609
12.12 0.444567
12.13 0.420828
12.14 0.396513
12.15 0.371726
12.16 0.346575
12.17 0.321174
12.18 0.295639
12.19 0.270105
12.2 0.244704
12.21 0.21956
12.22 0.194798
12.23 0.17054
12.24 0.146907
12.25 0.12408
12.26 0.102163
12.27 0.0812299
