# xPDFsuite Configuration #
[PDF]
wavelength = 0.1
dataformat = QA
inputfile = BiMsol6_insitu_700 C-00413.xy
backgroundfile = Quartz2mm-dist500-00000.xy
mode = xray
bgscale = 0.0042
composition = Bi2Fe4O9
outputtype = gr
qmaxinst = 24.998449118
qmin = 0.1
qmax = 21.4986662415
rmax = 80.0
rmin = 0.0
rstep = 0.01
rpoly = 0.9

[Misc]
inputdir = C:/Data/Seafile/CPH/Beamtime/Desy Oct 20/In situ data/Processed/BiMsol6/PDF
savedir = C:/Data/Seafile/CPH/Beamtime/Desy Oct 20/In situ data/PDF/BiMsol6
backgroundfilefull = C:/Data/Seafile/CPH/Beamtime/Desy Oct 20/In situ data/Processed/Standard_Empty_Cap/Quartz2mm-dist500-00000.xy

#### start data
#S 1
#L r($\AA$)  G($\AA^{-2}$)
0 0
0.01 0.00650098
0.02 0.0126352
0.03 0.0180889
0.04 0.0225803
0.05 0.0258731
0.06 0.0277869
0.07 0.0281244
0.08 0.0268281
0.09 0.0240431
0.1 0.0198884
0.11 0.0145493
0.12 0.00826859
0.13 0.001336
0.14 -0.00592282
0.15 -0.0130974
0.16 -0.0198417
0.17 -0.0258306
0.18 -0.0307729
0.19 -0.0344253
0.2 -0.0365376
0.21 -0.036939
0.22 -0.0357288
0.23 -0.0329741
0.24 -0.0288216
0.25 -0.0234923
0.26 -0.0172738
0.27 -0.0104934
0.28 -0.00362218
0.29 0.00292015
0.3 0.00872597
0.31 0.0134076
0.32 0.0166164
0.33 0.0179989
0.34 0.0172091
0.35 0.0142994
0.36 0.00926596
0.37 0.002211
0.38 -0.00665573
0.39 -0.0170199
0.4 -0.0285175
0.41 -0.0405192
0.42 -0.0524067
0.43 -0.0635511
0.44 -0.0733012
0.45 -0.0810071
0.46 -0.0859813
0.47 -0.0873377
0.48 -0.0848788
0.49 -0.0782415
0.5 -0.0671865
0.51 -0.0516125
0.52 -0.0315672
0.53 -0.00696871
0.54 0.0216302
0.55 0.0534967
0.56 0.087952
0.57 0.1242
0.58 0.16135
0.59 0.198431
0.6 0.234207
0.61 0.267695
0.62 0.297911
0.63 0.323933
0.64 0.344928
0.65 0.360179
0.66 0.368697
0.67 0.370067
0.68 0.364456
0.69 0.35186
0.7 0.33246
0.71 0.306619
0.72 0.274874
0.73 0.237415
0.74 0.195753
0.75 0.150864
0.76 0.103783
0.77 0.0555845
0.78 0.00735504
0.79 -0.0397379
0.8 -0.0845146
0.81 -0.126161
0.82 -0.163899
0.83 -0.197089
0.84 -0.225245
0.85 -0.248045
0.86 -0.26477
0.87 -0.275965
0.88 -0.28193
0.89 -0.283036
0.9 -0.279786
0.91 -0.272789
0.92 -0.262654
0.93 -0.250161
0.94 -0.236327
0.95 -0.221935
0.96 -0.20774
0.97 -0.194439
0.98 -0.182653
0.99 -0.173134
1 -0.166188
1.01 -0.162024
1.02 -0.160779
1.03 -0.162467
1.04 -0.166984
1.05 -0.174182
1.06 -0.183842
1.07 -0.195331
1.08 -0.208193
1.09 -0.221939
1.1 -0.236068
1.11 -0.250089
1.12 -0.263457
1.13 -0.275736
1.14 -0.286614
1.15 -0.295829
1.16 -0.303206
1.17 -0.308654
1.18 -0.312139
1.19 -0.313608
1.2 -0.313429
1.21 -0.311843
1.22 -0.309134
1.23 -0.305626
1.24 -0.301657
1.25 -0.297585
1.26 -0.293782
1.27 -0.29054
1.28 -0.288099
1.29 -0.286646
1.3 -0.286302
1.31 -0.287128
1.32 -0.289219
1.33 -0.292343
1.34 -0.296338
1.35 -0.300991
1.36 -0.306045
1.37 -0.311217
1.38 -0.316179
1.39 -0.320585
1.4 -0.32417
1.41 -0.326689
1.42 -0.327939
1.43 -0.327772
1.44 -0.326101
1.45 -0.322744
1.46 -0.317933
1.47 -0.311812
1.48 -0.304584
1.49 -0.296502
1.5 -0.287868
1.51 -0.279023
1.52 -0.270377
1.53 -0.262297
1.54 -0.255122
1.55 -0.249165
1.56 -0.24469
1.57 -0.24191
1.58 -0.241162
1.59 -0.242356
1.6 -0.245432
1.61 -0.250283
1.62 -0.256724
1.63 -0.264498
1.64 -0.273309
1.65 -0.282757
1.66 -0.292348
1.67 -0.301644
1.68 -0.310209
1.69 -0.317615
1.7 -0.323468
1.71 -0.327219
1.72 -0.328673
1.73 -0.32768
1.74 -0.324121
1.75 -0.317961
1.76 -0.309255
1.77 -0.298087
1.78 -0.284575
1.79 -0.269252
1.8 -0.252495
1.81 -0.234727
1.82 -0.216404
1.83 -0.197998
1.84 -0.180047
1.85 -0.163045
1.86 -0.147383
1.87 -0.133418
1.88 -0.121441
1.89 -0.111672
1.9 -0.104282
1.91 -0.0995312
1.92 -0.0971202
1.93 -0.096911
1.94 -0.0986901
1.95 -0.102178
1.96 -0.107039
1.97 -0.112937
1.98 -0.119389
1.99 -0.125935
2 -0.132169
2.01 -0.137713
2.02 -0.142227
2.03 -0.145415
2.04 -0.146864
2.05 -0.146594
2.06 -0.144547
2.07 -0.140744
2.08 -0.135283
2.09 -0.128333
2.1 -0.120078
2.11 -0.110861
2.12 -0.101103
2.13 -0.0911812
2.14 -0.0814864
2.15 -0.0724091
2.16 -0.0643248
2.17 -0.0577617
2.18 -0.0529096
2.19 -0.049996
2.2 -0.0491959
2.21 -0.0506157
2.22 -0.0542905
2.23 -0.0602788
2.24 -0.0685026
2.25 -0.0786143
2.26 -0.0903685
2.27 -0.103474
2.28 -0.117603
2.29 -0.132405
2.3 -0.147513
2.31 -0.162505
2.32 -0.177037
2.33 -0.190799
2.34 -0.203522
2.35 -0.21498
2.36 -0.224952
2.37 -0.233244
2.38 -0.23994
2.39 -0.245066
2.4 -0.248699
2.41 -0.25097
2.42 -0.252055
2.43 -0.252098
2.44 -0.251426
2.45 -0.250325
2.46 -0.249052
2.47 -0.247863
2.48 -0.246995
2.49 -0.246677
2.5 -0.247162
2.51 -0.248529
2.52 -0.250869
2.53 -0.25423
2.54 -0.258614
2.55 -0.263983
2.56 -0.270317
2.57 -0.277452
2.58 -0.285202
2.59 -0.293398
2.6 -0.301858
2.61 -0.310396
2.62 -0.318822
2.63 -0.326914
2.64 -0.334531
2.65 -0.341536
2.66 -0.347821
2.67 -0.353303
2.68 -0.357927
2.69 -0.361611
2.7 -0.364371
2.71 -0.366283
2.72 -0.367398
2.73 -0.367781
2.74 -0.367504
2.75 -0.366645
2.76 -0.365232
2.77 -0.363398
2.78 -0.361198
2.79 -0.358674
2.8 -0.355847
2.81 -0.352721
2.82 -0.34926
2.83 -0.345416
2.84 -0.341149
2.85 -0.336388
2.86 -0.331048
2.87 -0.325042
2.88 -0.318278
2.89 -0.310569
2.9 -0.301915
2.91 -0.292262
2.92 -0.281567
2.93 -0.269809
2.94 -0.256991
2.95 -0.243098
2.96 -0.228163
2.97 -0.212348
2.98 -0.195757
2.99 -0.178517
3 -0.160768
3.01 -0.14266
3.02 -0.124344
3.03 -0.106011
3.04 -0.0878105
3.05 -0.0698801
3.06 -0.0523391
3.07 -0.0352867
3.08 -0.018818
3.09 -0.00301822
3.1 0.0121469
3.11 0.0266894
3.12 0.0406469
3.13 0.0540799
3.14 0.0670686
3.15 0.0796886
3.16 0.0920794
3.17 0.104364
3.18 0.116653
3.19 0.129049
3.2 0.141644
3.21 0.154517
3.22 0.167749
3.23 0.181334
3.24 0.195264
3.25 0.209506
3.26 0.223998
3.27 0.238651
3.28 0.253348
3.29 0.267933
3.3 0.282254
3.31 0.296149
3.32 0.309453
3.33 0.322004
3.34 0.333635
3.35 0.344086
3.36 0.353339
3.37 0.361301
3.38 0.367905
3.39 0.373115
3.4 0.376924
3.41 0.379278
3.42 0.380261
3.43 0.380043
3.44 0.378746
3.45 0.376516
3.46 0.373515
3.47 0.369921
3.48 0.365893
3.49 0.361683
3.5 0.357475
3.51 0.353446
3.52 0.349756
3.53 0.346552
3.54 0.343997
3.55 0.342215
3.56 0.34124
3.57 0.34112
3.58 0.341881
3.59 0.343526
3.6 0.34604
3.61 0.349468
3.62 0.35368
3.63 0.3586
3.64 0.364161
3.65 0.370288
3.66 0.37691
3.67 0.383969
3.68 0.391404
3.69 0.399127
3.7 0.407089
3.71 0.415251
3.72 0.423581
3.73 0.432055
3.74 0.440668
3.75 0.449396
3.76 0.458228
3.77 0.467152
3.78 0.476156
3.79 0.485221
3.8 0.494321
3.81 0.503412
3.82 0.512442
3.83 0.521348
3.84 0.530052
3.85 0.538467
3.86 0.546491
3.87 0.553961
3.88 0.560762
3.89 0.566786
3.9 0.571899
3.91 0.57597
3.92 0.578871
3.93 0.580453
3.94 0.580477
3.95 0.578976
3.96 0.575869
3.97 0.571092
3.98 0.5646
3.99 0.556368
4 0.54627
4.01 0.534371
4.02 0.520794
4.03 0.505599
4.04 0.488863
4.05 0.470678
4.06 0.451139
4.07 0.430251
4.08 0.408281
4.09 0.385357
4.1 0.361609
4.11 0.337166
4.12 0.312155
4.13 0.286678
4.14 0.26087
4.15 0.234865
4.16 0.208764
4.17 0.18266
4.18 0.15664
4.19 0.130782
4.2 0.105193
4.21 0.0799204
4.22 0.0550219
4.23 0.0305538
4.24 0.00656821
4.25 -0.0168857
4.26 -0.0397306
4.27 -0.0619044
4.28 -0.0834056
4.29 -0.104196
4.3 -0.124239
4.31 -0.143503
4.32 -0.16196
4.33 -0.1795
4.34 -0.196177
4.35 -0.211993
4.36 -0.226948
4.37 -0.241044
4.38 -0.254297
4.39 -0.266697
4.4 -0.278244
4.41 -0.289042
4.42 -0.299134
4.43 -0.30857
4.44 -0.317403
4.45 -0.325689
4.46 -0.333445
4.47 -0.340766
4.48 -0.347716
4.49 -0.354345
4.5 -0.360696
4.51 -0.366805
4.52 -0.372696
4.53 -0.378377
4.54 -0.383876
4.55 -0.389193
4.56 -0.394321
4.57 -0.399244
4.58 -0.40394
4.59 -0.40836
4.6 -0.41248
4.61 -0.416277
4.62 -0.419719
4.63 -0.422778
4.64 -0.425428
4.65 -0.427642
4.66 -0.429369
4.67 -0.430651
4.68 -0.431493
4.69 -0.431913
4.7 -0.431934
4.71 -0.431591
4.72 -0.430908
4.73 -0.42995
4.74 -0.428788
4.75 -0.427484
4.76 -0.426101
4.77 -0.424706
4.78 -0.423361
4.79 -0.422148
4.8 -0.421115
4.81 -0.420311
4.82 -0.41978
4.83 -0.419558
4.84 -0.419671
4.85 -0.420159
4.86 -0.421032
4.87 -0.422269
4.88 -0.42386
4.89 -0.425791
4.9 -0.428039
4.91 -0.430576
4.92 -0.433395
4.93 -0.43643
4.94 -0.439638
4.95 -0.44298
4.96 -0.446413
4.97 -0.449891
4.98 -0.453368
4.99 -0.456791
5 -0.460111
5.01 -0.463279
5.02 -0.466244
5.03 -0.468952
5.04 -0.471346
5.05 -0.473322
5.06 -0.47484
5.07 -0.475837
5.08 -0.476241
5.09 -0.475975
5.1 -0.474962
5.11 -0.473087
5.12 -0.470216
5.13 -0.466336
5.14 -0.461367
5.15 -0.455234
5.16 -0.447866
5.17 -0.4392
5.18 -0.429057
5.19 -0.41747
5.2 -0.404448
5.21 -0.389972
5.22 -0.374037
5.23 -0.356654
5.24 -0.33781
5.25 -0.317452
5.26 -0.295761
5.27 -0.2728
5.28 -0.248637
5.29 -0.223351
5.3 -0.197023
5.31 -0.169674
5.32 -0.141439
5.33 -0.112441
5.34 -0.0827655
5.35 -0.052493
5.36 -0.0216995
5.37 0.00954926
5.38 0.0412148
5.39 0.0731924
5.4 0.105426
5.41 0.137864
5.42 0.170451
5.43 0.203134
5.44 0.235854
5.45 0.268535
5.46 0.301102
5.47 0.333468
5.48 0.365534
5.49 0.397188
5.5 0.428298
5.51 0.458626
5.52 0.48807
5.53 0.516452
5.54 0.543582
5.55 0.569256
5.56 0.593268
5.57 0.615288
5.58 0.635061
5.59 0.652501
5.6 0.667416
5.61 0.67963
5.62 0.688989
5.63 0.695363
5.64 0.69831
5.65 0.698069
5.66 0.694645
5.67 0.688053
5.68 0.678344
5.69 0.665609
5.7 0.649852
5.71 0.631182
5.72 0.610008
5.73 0.586552
5.74 0.561059
5.75 0.533786
5.76 0.505002
5.77 0.474885
5.78 0.44383
5.79 0.41212
5.8 0.379999
5.81 0.347694
5.82 0.31541
5.83 0.283336
5.84 0.251662
5.85 0.220485
5.86 0.189896
5.87 0.15996
5.88 0.130718
5.89 0.102193
5.9 0.0744496
5.91 0.0474399
5.92 0.0211252
5.93 -0.00451215
5.94 -0.0294868
5.95 -0.0538064
5.96 -0.0774526
5.97 -0.100354
5.98 -0.122535
5.99 -0.143938
6 -0.164488
6.01 -0.184091
6.02 -0.202637
6.03 -0.219904
6.04 -0.235776
6.05 -0.250161
6.06 -0.262918
6.07 -0.273908
6.08 -0.283001
6.09 -0.29006
6.1 -0.29478
6.11 -0.29731
6.12 -0.297616
6.13 -0.295689
6.14 -0.291558
6.15 -0.285282
6.16 -0.276833
6.17 -0.266382
6.18 -0.254202
6.19 -0.240481
6.2 -0.22543
6.21 -0.209278
6.22 -0.192263
6.23 -0.174585
6.24 -0.156582
6.25 -0.138489
6.26 -0.120526
6.27 -0.102897
6.28 -0.0857794
6.29 -0.069369
6.3 -0.0538107
6.31 -0.0391422
6.32 -0.0254127
6.33 -0.0126387
6.34 -0.000805831
6.35 0.0101296
6.36 0.0201598
6.37 0.0294687
6.38 0.0381808
6.39 0.0464239
6.4 0.0543335
6.41 0.0620486
6.42 0.06971
6.43 0.0774698
6.44 0.0854495
6.45 0.0937545
6.46 0.102474
6.47 0.11168
6.48 0.121425
6.49 0.131799
6.5 0.142773
6.51 0.154328
6.52 0.166441
6.53 0.179078
6.54 0.19219
6.55 0.205736
6.56 0.219666
6.57 0.233884
6.58 0.248326
6.59 0.262935
6.6 0.277655
6.61 0.292438
6.62 0.30724
6.63 0.322022
6.64 0.336758
6.65 0.351427
6.66 0.366014
6.67 0.380506
6.68 0.39489
6.69 0.409144
6.7 0.423266
6.71 0.437233
6.72 0.451022
6.73 0.464597
6.74 0.477915
6.75 0.490893
6.76 0.503464
6.77 0.515565
6.78 0.527106
6.79 0.537989
6.8 0.548108
6.81 0.557345
6.82 0.565469
6.83 0.572461
6.84 0.578206
6.85 0.582591
6.86 0.585512
6.87 0.58687
6.88 0.586473
6.89 0.584247
6.9 0.580227
6.91 0.574371
6.92 0.566651
6.93 0.557058
6.94 0.545595
6.95 0.532073
6.96 0.516738
6.97 0.499645
6.98 0.480853
6.99 0.460433
7 0.438466
7.01 0.414966
7.02 0.390018
7.03 0.363815
7.04 0.336456
7.05 0.308041
7.06 0.278673
7.07 0.248454
7.08 0.217421
7.09 0.185755
7.1 0.153568
7.11 0.120964
7.12 0.0880479
7.13 0.0549237
7.14 0.0216978
7.15 -0.011508
7.16 -0.0445792
7.17 -0.0774073
7.18 -0.109884
7.19 -0.141899
7.2 -0.173347
7.21 -0.204049
7.22 -0.233937
7.23 -0.262931
7.24 -0.290939
7.25 -0.317878
7.26 -0.343671
7.27 -0.368216
7.28 -0.391376
7.29 -0.413217
7.3 -0.433711
7.31 -0.452843
7.32 -0.470609
7.33 -0.487017
7.34 -0.501983
7.35 -0.515604
7.36 -0.527972
7.37 -0.539138
7.38 -0.54916
7.39 -0.558101
7.4 -0.56601
7.41 -0.572882
7.42 -0.578885
7.43 -0.584079
7.44 -0.588524
7.45 -0.592273
7.46 -0.595372
7.47 -0.597822
7.48 -0.599671
7.49 -0.600972
7.5 -0.60174
7.51 -0.601984
7.52 -0.601707
7.53 -0.600905
7.54 -0.599514
7.55 -0.597583
7.56 -0.595101
7.57 -0.592055
7.58 -0.588436
7.59 -0.584233
7.6 -0.579405
7.61 -0.573948
7.62 -0.567896
7.63 -0.561255
7.64 -0.55403
7.65 -0.546235
7.66 -0.537883
7.67 -0.528934
7.68 -0.519469
7.69 -0.509514
7.7 -0.499093
7.71 -0.488231
7.72 -0.476955
7.73 -0.465276
7.74 -0.453218
7.75 -0.440836
7.76 -0.42816
7.77 -0.415222
7.78 -0.402054
7.79 -0.388691
7.8 -0.375162
7.81 -0.361526
7.82 -0.347834
7.83 -0.334137
7.84 -0.320492
7.85 -0.306962
7.86 -0.293621
7.87 -0.280564
7.88 -0.267849
7.89 -0.255557
7.9 -0.243765
7.91 -0.232556
7.92 -0.222006
7.93 -0.212263
7.94 -0.203358
7.95 -0.195334
7.96 -0.188241
7.97 -0.18212
7.98 -0.177003
7.99 -0.17293
8 -0.169971
8.01 -0.168016
8.02 -0.167037
8.03 -0.166988
8.04 -0.167815
8.05 -0.169449
8.06 -0.171862
8.07 -0.174926
8.08 -0.17852
8.09 -0.182547
8.1 -0.18691
8.11 -0.191514
8.12 -0.196265
8.13 -0.201074
8.14 -0.205851
8.15 -0.210527
8.16 -0.215046
8.17 -0.219361
8.18 -0.223434
8.19 -0.227222
8.2 -0.23071
8.21 -0.233904
8.22 -0.236802
8.23 -0.239407
8.24 -0.241723
8.25 -0.24375
8.26 -0.245456
8.27 -0.246868
8.28 -0.247971
8.29 -0.248741
8.3 -0.249146
8.31 -0.24914
8.32 -0.248639
8.33 -0.247561
8.34 -0.245858
8.35 -0.243441
8.36 -0.240218
8.37 -0.23609
8.38 -0.230958
8.39 -0.224593
8.4 -0.217003
8.41 -0.208111
8.42 -0.197841
8.43 -0.186131
8.44 -0.172932
8.45 -0.158141
8.46 -0.141704
8.47 -0.12374
8.48 -0.104276
8.49 -0.083356
8.5 -0.0610433
8.51 -0.0374145
8.52 -0.0124498
8.53 0.0136391
8.54 0.0407181
8.55 0.0686711
8.56 0.0973804
8.57 0.126729
8.58 0.156617
8.59 0.186942
8.6 0.217565
8.61 0.248397
8.62 0.279358
8.63 0.310379
8.64 0.3414
8.65 0.372363
8.66 0.403224
8.67 0.433947
8.68 0.464501
8.69 0.49485
8.7 0.524962
8.71 0.554789
8.72 0.584254
8.73 0.613325
8.74 0.641931
8.75 0.66999
8.76 0.697403
8.77 0.72406
8.78 0.749758
8.79 0.774369
8.8 0.797778
8.81 0.819823
8.82 0.840339
8.83 0.859155
8.84 0.876078
8.85 0.890733
8.86 0.903164
8.87 0.913226
8.88 0.920791
8.89 0.925745
8.9 0.927998
8.91 0.927295
8.92 0.923622
8.93 0.917108
8.94 0.90776
8.95 0.89561
8.96 0.88071
8.97 0.863132
8.98 0.842685
8.99 0.819788
9 0.794566
9.01 0.767155
9.02 0.737695
9.03 0.706332
9.04 0.673127
9.05 0.638236
9.06 0.60191
9.07 0.564292
9.08 0.525515
9.09 0.485711
9.1 0.445008
9.11 0.403456
9.12 0.361263
9.13 0.318555
9.14 0.27545
9.15 0.232069
9.16 0.188535
9.17 0.144985
9.18 0.101579
9.19 0.0584628
9.2 0.0157922
9.21 -0.0262693
9.22 -0.06755
9.23 -0.107871
9.24 -0.146918
9.25 -0.184565
9.26 -0.220645
9.27 -0.25497
9.28 -0.287352
9.29 -0.317614
9.3 -0.345512
9.31 -0.37074
9.32 -0.393366
9.33 -0.413277
9.34 -0.430381
9.35 -0.444613
9.36 -0.45593
9.37 -0.464067
9.38 -0.469189
9.39 -0.471431
9.4 -0.470853
9.41 -0.467535
9.42 -0.461579
9.43 -0.453049
9.44 -0.44191
9.45 -0.428542
9.46 -0.413091
9.47 -0.395706
9.48 -0.376534
9.49 -0.355721
9.5 -0.333309
9.51 -0.309497
9.52 -0.284476
9.53 -0.258366
9.54 -0.231278
9.55 -0.203318
9.56 -0.174578
9.57 -0.145099
9.58 -0.115052
9.59 -0.0845287
9.6 -0.0536213
9.61 -0.0224249
9.62 0.00896068
9.63 0.0404271
9.64 0.0718421
9.65 0.103079
9.66 0.134007
9.67 0.164487
9.68 0.194374
9.69 0.22352
9.7 0.251648
9.71 0.278693
9.72 0.304506
9.73 0.328939
9.74 0.351856
9.75 0.373129
9.76 0.392549
9.77 0.409981
9.78 0.425469
9.79 0.438961
9.8 0.450424
9.81 0.459851
9.82 0.467254
9.83 0.472465
9.84 0.475732
9.85 0.477156
9.86 0.47683
9.87 0.474859
9.88 0.471357
9.89 0.466393
9.9 0.460062
9.91 0.452594
9.92 0.444106
9.93 0.434712
9.94 0.424515
9.95 0.413606
9.96 0.402015
9.97 0.389858
9.98 0.377201
9.99 0.364083
10 0.350533
10.01 0.336568
10.02 0.322186
10.03 0.307369
10.04 0.292153
10.05 0.276536
10.06 0.260522
10.07 0.244115
10.08 0.227329
10.09 0.210156
10.1 0.192647
10.11 0.174855
10.12 0.156831
10.13 0.138635
10.14 0.120336
10.15 0.102011
10.16 0.0837576
10.17 0.0656623
10.18 0.0478121
10.19 0.0302922
10.2 0.0131837
10.21 -0.00343838
10.22 -0.0194639
10.23 -0.0348442
10.24 -0.0495638
10.25 -0.0635943
10.26 -0.076921
10.27 -0.0895425
10.28 -0.101466
10.29 -0.11265
10.3 -0.12321
10.31 -0.133191
10.32 -0.142646
10.33 -0.151635
10.34 -0.160216
10.35 -0.168434
10.36 -0.176356
10.37 -0.184054
10.38 -0.191577
10.39 -0.198963
10.4 -0.206245
10.41 -0.213445
10.42 -0.220571
10.43 -0.227635
10.44 -0.234634
10.45 -0.24156
10.46 -0.248399
10.47 -0.255135
10.48 -0.261745
10.49 -0.268208
10.5 -0.274519
10.51 -0.280673
10.52 -0.286666
10.53 -0.292506
10.54 -0.298204
10.55 -0.303773
10.56 -0.309256
10.57 -0.314692
10.58 -0.320123
10.59 -0.325596
10.6 -0.331158
10.61 -0.336866
10.62 -0.342779
10.63 -0.348928
10.64 -0.355344
10.65 -0.362054
10.66 -0.369072
10.67 -0.376401
10.68 -0.384057
10.69 -0.391994
10.7 -0.400165
10.71 -0.408521
10.72 -0.417001
10.73 -0.425536
10.74 -0.434047
10.75 -0.442437
10.76 -0.450627
10.77 -0.458537
10.78 -0.466093
10.79 -0.473227
10.8 -0.479882
10.81 -0.485966
10.82 -0.491467
10.83 -0.496393
10.84 -0.500744
10.85 -0.504538
10.86 -0.507807
10.87 -0.510588
10.88 -0.512909
10.89 -0.514887
10.9 -0.516592
10.91 -0.518102
10.92 -0.51949
10.93 -0.520826
10.94 -0.522178
10.95 -0.523605
10.96 -0.52514
10.97 -0.526806
10.98 -0.528605
10.99 -0.530522
11 -0.532524
11.01 -0.534556
11.02 -0.536536
11.03 -0.538377
11.04 -0.53998
11.05 -0.541235
11.06 -0.542029
11.07 -0.542203
11.08 -0.541622
11.09 -0.540212
11.1 -0.537873
11.11 -0.534519
11.12 -0.530077
11.13 -0.524494
11.14 -0.517604
11.15 -0.509519
11.16 -0.500263
11.17 -0.489869
11.18 -0.478394
11.19 -0.465912
11.2 -0.452476
11.21 -0.438185
11.22 -0.423221
11.23 -0.407705
11.24 -0.391761
11.25 -0.375514
11.26 -0.35908
11.27 -0.342574
11.28 -0.32611
11.29 -0.309772
11.3 -0.293626
11.31 -0.277724
11.32 -0.262097
11.33 -0.246772
11.34 -0.231758
11.35 -0.21701
11.36 -0.202493
11.37 -0.188161
11.38 -0.173958
11.39 -0.159823
11.4 -0.145684
11.41 -0.131466
11.42 -0.117106
11.43 -0.102544
11.44 -0.0877263
11.45 -0.0726078
11.46 -0.0571438
11.47 -0.0412817
11.48 -0.0250409
11.49 -0.00841909
11.5 0.00857671
11.51 0.0259309
11.52 0.0436209
11.53 0.0616393
11.54 0.0799378
11.55 0.0984695
11.56 0.1172
11.57 0.136096
11.58 0.155127
11.59 0.174268
11.6 0.193504
11.61 0.212811
11.62 0.232178
11.63 0.251601
11.64 0.271082
11.65 0.290622
11.66 0.310232
11.67 0.329918
11.68 0.349679
11.69 0.369516
11.7 0.389424
11.71 0.409391
11.72 0.429398
11.73 0.449413
11.74 0.469389
11.75 0.489274
11.76 0.509004
11.77 0.528505
11.78 0.547695
11.79 0.566451
11.8 0.584655
11.81 0.602227
11.82 0.619055
11.83 0.635029
11.84 0.650039
11.85 0.663977
11.86 0.676604
11.87 0.687931
11.88 0.697885
11.89 0.706392
11.9 0.713389
11.91 0.718824
11.92 0.722587
11.93 0.724601
11.94 0.724973
11.95 0.723703
11.96 0.7208
11.97 0.716285
11.98 0.710185
11.99 0.702388
12 0.693059
12.01 0.682274
12.02 0.670083
12.03 0.656535
12.04 0.641683
12.05 0.62554
12.06 0.608108
12.07 0.589544
12.08 0.569904
12.09 0.549247
12.1 0.52763
12.11 0.505117
12.12 0.481709
12.13 0.45753
12.14 0.432684
12.15 0.407256
12.16 0.381334
12.17 0.355018
12.18 0.328406
12.19 0.301614
12.2 0.274784
12.21 0.248043
12.22 0.221517
12.23 0.195339
12.24 0.169639
12.25 0.144605
12.26 0.120362
12.27 0.0970057
