# xPDFsuite Configuration #
[PDF]
wavelength = 0.1
dataformat = QA
inputfile = BiMsol6_insitu_700 C-00394.xy
backgroundfile = Quartz2mm-dist500-00000.xy
mode = xray
bgscale = 0.0042
composition = Bi2Fe4O9
outputtype = gr
qmaxinst = 24.998449118
qmin = 0.1
qmax = 21.4986662415
rmax = 80.0
rmin = 0.0
rstep = 0.01
rpoly = 0.9

[Misc]
inputdir = C:/Data/Seafile/CPH/Beamtime/Desy Oct 20/In situ data/Processed/BiMsol6/PDF
savedir = C:/Data/Seafile/CPH/Beamtime/Desy Oct 20/In situ data/PDF/BiMsol6
backgroundfilefull = C:/Data/Seafile/CPH/Beamtime/Desy Oct 20/In situ data/Processed/Standard_Empty_Cap/Quartz2mm-dist500-00000.xy

#### start data
#S 1
#L r($\AA$)  G($\AA^{-2}$)
0 0
0.01 0.00669002
0.02 0.0130057
0.03 0.0186267
0.04 0.0232653
0.05 0.0266795
0.06 0.0286847
0.07 0.0290782
0.08 0.0277995
0.09 0.0249953
0.1 0.0207853
0.11 0.0153565
0.12 0.0089549
0.13 0.00187457
0.14 -0.00555523
0.15 -0.0129152
0.16 -0.019852
0.17 -0.0260335
0.18 -0.0311613
0.19 -0.0349847
0.2 -0.037246
0.21 -0.0377665
0.22 -0.0366424
0.23 -0.0339371
0.24 -0.0297947
0.25 -0.0244354
0.26 -0.018147
0.27 -0.0112554
0.28 -0.00423866
0.29 0.00247785
0.3 0.00848023
0.31 0.0133737
0.32 0.0168015
0.33 0.0184016
0.34 0.0178178
0.35 0.0150942
0.36 0.0102193
0.37 0.00328812
0.38 -0.00549536
0.39 -0.0158214
0.4 -0.0273331
0.41 -0.0393999
0.42 -0.0514008
0.43 -0.0627041
0.44 -0.0726536
0.45 -0.0805934
0.46 -0.0858282
0.47 -0.0874625
0.48 -0.0852862
0.49 -0.0789251
0.5 -0.0681286
0.51 -0.0527847
0.52 -0.0329303
0.53 -0.00847025
0.54 0.0200504
0.55 0.0519023
0.56 0.0864105
0.57 0.122781
0.58 0.160121
0.59 0.197457
0.6 0.233554
0.61 0.267412
0.62 0.298037
0.63 0.324495
0.64 0.345939
0.65 0.361638
0.66 0.370586
0.67 0.372352
0.68 0.36709
0.69 0.354783
0.7 0.3356
0.71 0.309899
0.72 0.278207
0.73 0.240701
0.74 0.198903
0.75 0.153793
0.76 0.106411
0.77 0.0578427
0.78 0.0091851
0.79 -0.0383808
0.8 -0.0836569
0.81 -0.125808
0.82 -0.164039
0.83 -0.19769
0.84 -0.226259
0.85 -0.249406
0.86 -0.266387
0.87 -0.277742
0.88 -0.283762
0.89 -0.284814
0.9 -0.281396
0.91 -0.274121
0.92 -0.263599
0.93 -0.250616
0.94 -0.236209
0.95 -0.22118
0.96 -0.206299
0.97 -0.192284
0.98 -0.179778
0.99 -0.169558
1 -0.161954
1.01 -0.157195
1.02 -0.155438
1.03 -0.156713
1.04 -0.16093
1.05 -0.167958
1.06 -0.177592
1.07 -0.189191
1.08 -0.2023
1.09 -0.216423
1.1 -0.231052
1.11 -0.245683
1.12 -0.259763
1.13 -0.272832
1.14 -0.284555
1.15 -0.29465
1.16 -0.302919
1.17 -0.309251
1.18 -0.313591
1.19 -0.31586
1.2 -0.316414
1.21 -0.315477
1.22 -0.313325
1.23 -0.310269
1.24 -0.306645
1.25 -0.3028
1.26 -0.299109
1.27 -0.295873
1.28 -0.29334
1.29 -0.291703
1.3 -0.291095
1.31 -0.291587
1.32 -0.293282
1.33 -0.295969
1.34 -0.299496
1.35 -0.303663
1.36 -0.308223
1.37 -0.312902
1.38 -0.31738
1.39 -0.32132
1.4 -0.324461
1.41 -0.326558
1.42 -0.327411
1.43 -0.326872
1.44 -0.324855
1.45 -0.321177
1.46 -0.316067
1.47 -0.309669
1.48 -0.302182
1.49 -0.293862
1.5 -0.28501
1.51 -0.27597
1.52 -0.267155
1.53 -0.258935
1.54 -0.251656
1.55 -0.245633
1.56 -0.241139
1.57 -0.238394
1.58 -0.237749
1.59 -0.239116
1.6 -0.242439
1.61 -0.247617
1.62 -0.254468
1.63 -0.262738
1.64 -0.272134
1.65 -0.282256
1.66 -0.292599
1.67 -0.302719
1.68 -0.312169
1.69 -0.320514
1.7 -0.327344
1.71 -0.332099
1.72 -0.334564
1.73 -0.334576
1.74 -0.331998
1.75 -0.326781
1.76 -0.318965
1.77 -0.308618
1.78 -0.295843
1.79 -0.281169
1.8 -0.264965
1.81 -0.247649
1.82 -0.229676
1.83 -0.211515
1.84 -0.193702
1.85 -0.176737
1.86 -0.161022
1.87 -0.14692
1.88 -0.13473
1.89 -0.12468
1.9 -0.11695
1.91 -0.111805
1.92 -0.108958
1.93 -0.108279
1.94 -0.10956
1.95 -0.112526
1.96 -0.116846
1.97 -0.122184
1.98 -0.128059
1.99 -0.134012
2 -0.139639
2.01 -0.14456
2.02 -0.148436
2.03 -0.150973
2.04 -0.151756
2.05 -0.150813
2.06 -0.148089
2.07 -0.143612
2.08 -0.137487
2.09 -0.129895
2.1 -0.121035
2.11 -0.111263
2.12 -0.101016
2.13 -0.0906841
2.14 -0.0806752
2.15 -0.0713945
2.16 -0.0632318
2.17 -0.0567439
2.18 -0.0521177
2.19 -0.0495861
2.2 -0.0493274
2.21 -0.0514474
2.22 -0.0559763
2.23 -0.0629695
2.24 -0.0723362
2.25 -0.0836999
2.26 -0.0967926
2.27 -0.111297
2.28 -0.126856
2.29 -0.143089
2.3 -0.159591
2.31 -0.175906
2.32 -0.19166
2.33 -0.206513
2.34 -0.220168
2.35 -0.23238
2.36 -0.242898
2.37 -0.251506
2.38 -0.258299
2.39 -0.2633
2.4 -0.266595
2.41 -0.268328
2.42 -0.268689
2.43 -0.267837
2.44 -0.266139
2.45 -0.263916
2.46 -0.261465
2.47 -0.259073
2.48 -0.257015
2.49 -0.25556
2.5 -0.255003
2.51 -0.255446
2.52 -0.257009
2.53 -0.259756
2.54 -0.263707
2.55 -0.268829
2.56 -0.275122
2.57 -0.282405
2.58 -0.290472
2.59 -0.299136
2.6 -0.308192
2.61 -0.317424
2.62 -0.32661
2.63 -0.335493
2.64 -0.343888
2.65 -0.351623
2.66 -0.358554
2.67 -0.364564
2.68 -0.36957
2.69 -0.373448
2.7 -0.376194
2.71 -0.377878
2.72 -0.378542
2.73 -0.378246
2.74 -0.377066
2.75 -0.375084
2.76 -0.372319
2.77 -0.368947
2.78 -0.365043
2.79 -0.360671
2.8 -0.355879
2.81 -0.350696
2.82 -0.345108
2.83 -0.339097
2.84 -0.33265
2.85 -0.325715
2.86 -0.318227
2.87 -0.310113
2.88 -0.301294
2.89 -0.291602
2.9 -0.281033
2.91 -0.26954
2.92 -0.257081
2.93 -0.243634
2.94 -0.229202
2.95 -0.213772
2.96 -0.197381
2.97 -0.180185
2.98 -0.162292
2.99 -0.143833
3 -0.124955
3.01 -0.105818
3.02 -0.0865972
3.03 -0.0674887
3.04 -0.0486585
3.05 -0.0302599
3.06 -0.0124306
3.07 0.0047126
3.08 0.0210505
3.09 0.0364689
3.1 0.051009
3.11 0.0646749
3.12 0.0775006
3.13 0.0895477
3.14 0.100903
3.15 0.111637
3.16 0.121921
3.17 0.131913
3.18 0.141753
3.19 0.151581
3.2 0.161527
3.21 0.171716
3.22 0.182281
3.23 0.193266
3.24 0.204713
3.25 0.216633
3.26 0.229009
3.27 0.241793
3.28 0.254926
3.29 0.268279
3.3 0.281708
3.31 0.295067
3.32 0.3082
3.33 0.320943
3.34 0.333127
3.35 0.344507
3.36 0.355006
3.37 0.364498
3.38 0.372884
3.39 0.380089
3.4 0.386065
3.41 0.39072
3.42 0.394085
3.43 0.396279
3.44 0.397385
3.45 0.397506
3.46 0.39677
3.47 0.395323
3.48 0.393277
3.49 0.390878
3.5 0.388296
3.51 0.385696
3.52 0.383235
3.53 0.38106
3.54 0.379327
3.55 0.37817
3.56 0.377643
3.57 0.37781
3.58 0.378711
3.59 0.380364
3.6 0.382767
3.61 0.385973
3.62 0.38987
3.63 0.394396
3.64 0.399489
3.65 0.40508
3.66 0.411097
3.67 0.417479
3.68 0.424158
3.69 0.431045
3.7 0.438082
3.71 0.445222
3.72 0.452421
3.73 0.459648
3.74 0.466874
3.75 0.474077
3.76 0.481242
3.77 0.488354
3.78 0.495399
3.79 0.502361
3.8 0.509214
3.81 0.515918
3.82 0.522444
3.83 0.528743
3.84 0.534756
3.85 0.540415
3.86 0.545639
3.87 0.550287
3.88 0.554272
3.89 0.557508
3.9 0.559883
3.91 0.561286
3.92 0.561607
3.93 0.560716
3.94 0.558395
3.95 0.554677
3.96 0.549483
3.97 0.542751
3.98 0.534432
3.99 0.524496
4 0.51281
4.01 0.499424
4.02 0.484436
4.03 0.467887
4.04 0.449833
4.05 0.430343
4.06 0.409492
4.07 0.387254
4.08 0.363879
4.09 0.339477
4.1 0.314162
4.11 0.288051
4.12 0.261263
4.13 0.23389
4.14 0.20607
4.15 0.177953
4.16 0.149651
4.17 0.121278
4.18 0.0929446
4.19 0.0647589
4.2 0.0368679
4.21 0.00935814
4.22 -0.0176694
4.23 -0.0441146
4.24 -0.0698797
4.25 -0.0948697
4.26 -0.118946
4.27 -0.14199
4.28 -0.163982
4.29 -0.184848
4.3 -0.204524
4.31 -0.222955
4.32 -0.240098
4.33 -0.255784
4.34 -0.270115
4.35 -0.283114
4.36 -0.2948
4.37 -0.305209
4.38 -0.314394
4.39 -0.322383
4.4 -0.329231
4.41 -0.335126
4.42 -0.340182
4.43 -0.344516
4.44 -0.348254
4.45 -0.351523
4.46 -0.354431
4.47 -0.357134
4.48 -0.359753
4.49 -0.36239
4.5 -0.36513
4.51 -0.368043
4.52 -0.371188
4.53 -0.374615
4.54 -0.378307
4.55 -0.38225
4.56 -0.386411
4.57 -0.390737
4.58 -0.395161
4.59 -0.399596
4.6 -0.403936
4.61 -0.408084
4.62 -0.41194
4.63 -0.415404
4.64 -0.418387
4.65 -0.420795
4.66 -0.422497
4.67 -0.423504
4.68 -0.423786
4.69 -0.423332
4.7 -0.422153
4.71 -0.420281
4.72 -0.417729
4.73 -0.414596
4.74 -0.411005
4.75 -0.407064
4.76 -0.40289
4.77 -0.398609
4.78 -0.39435
4.79 -0.390272
4.8 -0.386493
4.81 -0.383127
4.82 -0.380276
4.83 -0.378026
4.84 -0.376447
4.85 -0.375635
4.86 -0.375622
4.87 -0.37637
4.88 -0.377863
4.89 -0.380066
4.9 -0.382925
4.91 -0.386371
4.92 -0.390368
4.93 -0.394758
4.94 -0.399434
4.95 -0.404289
4.96 -0.409215
4.97 -0.414102
4.98 -0.418837
4.99 -0.423303
5 -0.427424
5.01 -0.431122
5.02 -0.434329
5.03 -0.436989
5.04 -0.439053
5.05 -0.440419
5.06 -0.441108
5.07 -0.441111
5.08 -0.440413
5.09 -0.439003
5.1 -0.43687
5.11 -0.43398
5.12 -0.430283
5.13 -0.425825
5.14 -0.420585
5.15 -0.414538
5.16 -0.407653
5.17 -0.399894
5.18 -0.391132
5.19 -0.381372
5.2 -0.370586
5.21 -0.358724
5.22 -0.345731
5.23 -0.331555
5.24 -0.316116
5.25 -0.299277
5.26 -0.281118
5.27 -0.261612
5.28 -0.24074
5.29 -0.218498
5.3 -0.19489
5.31 -0.169833
5.32 -0.143417
5.33 -0.115742
5.34 -0.0868696
5.35 -0.0568738
5.36 -0.0258398
5.37 0.00614691
5.38 0.0390403
5.39 0.0726262
5.4 0.106778
5.41 0.141362
5.42 0.176237
5.43 0.211258
5.44 0.246264
5.45 0.281075
5.46 0.315536
5.47 0.349482
5.48 0.382751
5.49 0.415176
5.5 0.446587
5.51 0.476662
5.52 0.505355
5.53 0.532498
5.54 0.557928
5.55 0.581483
5.56 0.60301
5.57 0.62223
5.58 0.63897
5.59 0.65324
5.6 0.664928
5.61 0.673938
5.62 0.68019
5.63 0.683625
5.64 0.683894
5.65 0.681268
5.66 0.675788
5.67 0.667494
5.68 0.65645
5.69 0.642747
5.7 0.626392
5.71 0.607475
5.72 0.586343
5.73 0.563177
5.74 0.538172
5.75 0.511535
5.76 0.483481
5.77 0.454136
5.78 0.423839
5.79 0.39283
5.8 0.36132
5.81 0.329507
5.82 0.29758
5.83 0.265717
5.84 0.234101
5.85 0.202857
5.86 0.172096
5.87 0.141911
5.88 0.112378
5.89 0.0835555
5.9 0.0555547
5.91 0.0283681
5.92 0.00199201
5.93 -0.0235595
5.94 -0.0482751
5.95 -0.0721437
5.96 -0.0951315
5.97 -0.117151
5.98 -0.138255
5.99 -0.158404
6 -0.177548
6.01 -0.195626
6.02 -0.212567
6.03 -0.228191
6.04 -0.242436
6.05 -0.255257
6.06 -0.266555
6.07 -0.276232
6.08 -0.284193
6.09 -0.29033
6.1 -0.294382
6.11 -0.296485
6.12 -0.2966
6.13 -0.294712
6.14 -0.290827
6.15 -0.284976
6.16 -0.277103
6.17 -0.267328
6.18 -0.255869
6.19 -0.242867
6.2 -0.228485
6.21 -0.212905
6.22 -0.196322
6.23 -0.178879
6.24 -0.160903
6.25 -0.142613
6.26 -0.124222
6.27 -0.105938
6.28 -0.0879527
6.29 -0.0704784
6.3 -0.0536991
6.31 -0.0377088
6.32 -0.0226072
6.33 -0.00846624
6.34 0.00467125
6.35 0.0167913
6.36 0.0278067
6.37 0.037863
6.38 0.0470444
6.39 0.0554451
6.4 0.0631779
6.41 0.0703701
6.42 0.0771498
6.43 0.0836749
6.44 0.0901222
6.45 0.0966379
6.46 0.103363
6.47 0.110428
6.48 0.117953
6.49 0.126107
6.5 0.134944
6.51 0.144519
6.52 0.154878
6.53 0.166051
6.54 0.178049
6.55 0.190889
6.56 0.204585
6.57 0.219023
6.58 0.234149
6.59 0.249893
6.6 0.266182
6.61 0.282931
6.62 0.300077
6.63 0.317498
6.64 0.33509
6.65 0.352762
6.66 0.370424
6.67 0.38799
6.68 0.405372
6.69 0.42246
6.7 0.439201
6.71 0.455523
6.72 0.471361
6.73 0.486651
6.74 0.501332
6.75 0.515294
6.76 0.528489
6.77 0.54089
6.78 0.552441
6.79 0.563084
6.8 0.572759
6.81 0.581398
6.82 0.588821
6.83 0.595079
6.84 0.600106
6.85 0.603837
6.86 0.606207
6.87 0.607152
6.88 0.606512
6.89 0.604225
6.9 0.600319
6.91 0.594741
6.92 0.587444
6.93 0.578388
6.94 0.56754
6.95 0.554665
6.96 0.539952
6.97 0.523403
6.98 0.505026
6.99 0.484842
7 0.46288
7.01 0.4391
7.02 0.413539
7.03 0.386383
7.04 0.357713
7.05 0.327624
7.06 0.296218
7.07 0.263611
7.08 0.229827
7.09 0.195112
7.1 0.15962
7.11 0.123498
7.12 0.0868993
7.13 0.0499775
7.14 0.0128897
7.15 -0.024185
7.16 -0.0610803
7.17 -0.0976438
7.18 -0.133727
7.19 -0.169189
7.2 -0.203893
7.21 -0.237621
7.22 -0.270302
7.23 -0.301855
7.24 -0.332188
7.25 -0.36122
7.26 -0.388883
7.27 -0.41508
7.28 -0.439673
7.29 -0.462763
7.3 -0.484333
7.31 -0.504379
7.32 -0.522906
7.33 -0.539929
7.34 -0.555354
7.35 -0.569284
7.36 -0.581812
7.37 -0.592981
7.38 -0.602842
7.39 -0.611444
7.4 -0.618824
7.41 -0.624947
7.42 -0.629989
7.43 -0.634005
7.44 -0.637051
7.45 -0.63918
7.46 -0.640446
7.47 -0.640844
7.48 -0.64045
7.49 -0.639347
7.5 -0.63758
7.51 -0.63519
7.52 -0.632218
7.53 -0.628696
7.54 -0.62461
7.55 -0.62005
7.56 -0.615043
7.57 -0.609614
7.58 -0.603784
7.59 -0.597567
7.6 -0.590956
7.61 -0.583959
7.62 -0.576598
7.63 -0.568869
7.64 -0.560766
7.65 -0.552276
7.66 -0.543381
7.67 -0.534012
7.68 -0.524188
7.69 -0.513887
7.7 -0.503083
7.71 -0.491752
7.72 -0.479872
7.73 -0.467399
7.74 -0.454306
7.75 -0.440632
7.76 -0.426382
7.77 -0.411574
7.78 -0.396237
7.79 -0.380411
7.8 -0.364115
7.81 -0.347462
7.82 -0.330545
7.83 -0.313459
7.84 -0.296312
7.85 -0.279222
7.86 -0.262326
7.87 -0.245789
7.88 -0.229727
7.89 -0.214275
7.9 -0.199564
7.91 -0.185718
7.92 -0.172852
7.93 -0.161175
7.94 -0.150715
7.95 -0.14151
7.96 -0.133607
7.97 -0.127035
7.98 -0.1218
7.99 -0.117922
8 -0.115443
8.01 -0.114184
8.02 -0.11407
8.03 -0.115008
8.04 -0.116895
8.05 -0.119618
8.06 -0.123104
8.07 -0.127185
8.08 -0.131714
8.09 -0.136573
8.1 -0.141653
8.11 -0.146856
8.12 -0.152092
8.13 -0.157279
8.14 -0.162361
8.15 -0.167298
8.16 -0.172067
8.17 -0.176659
8.18 -0.181076
8.19 -0.185323
8.2 -0.189429
8.21 -0.193428
8.22 -0.197351
8.23 -0.201223
8.24 -0.205066
8.25 -0.208893
8.26 -0.212705
8.27 -0.216489
8.28 -0.220213
8.29 -0.223833
8.3 -0.227284
8.31 -0.230487
8.32 -0.233319
8.33 -0.235649
8.34 -0.237375
8.35 -0.238363
8.36 -0.238475
8.37 -0.23757
8.38 -0.235511
8.39 -0.232012
8.4 -0.227071
8.41 -0.220592
8.42 -0.212488
8.43 -0.202691
8.44 -0.191154
8.45 -0.177772
8.46 -0.162503
8.47 -0.145502
8.48 -0.12682
8.49 -0.106532
8.5 -0.0847262
8.51 -0.0615103
8.52 -0.0368892
8.53 -0.0111095
8.54 0.0156701
8.55 0.0433138
8.56 0.071688
8.57 0.100665
8.58 0.130137
8.59 0.159999
8.6 0.190121
8.61 0.22042
8.62 0.25083
8.63 0.281297
8.64 0.311779
8.65 0.342239
8.66 0.372652
8.67 0.403
8.68 0.433267
8.69 0.463433
8.7 0.493475
8.71 0.523357
8.72 0.553015
8.73 0.582406
8.74 0.611457
8.75 0.640076
8.76 0.668157
8.77 0.695578
8.78 0.722125
8.79 0.747652
8.8 0.772024
8.81 0.795067
8.82 0.816599
8.83 0.83644
8.84 0.854385
8.85 0.870051
8.86 0.883479
8.87 0.894525
8.88 0.90306
8.89 0.908979
8.9 0.912197
8.91 0.912471
8.92 0.909799
8.93 0.904321
8.94 0.896056
8.95 0.885046
8.96 0.871352
8.97 0.855053
8.98 0.83597
8.99 0.814517
9 0.790813
9.01 0.764988
9.02 0.737172
9.03 0.707496
9.04 0.676006
9.05 0.642834
9.06 0.608209
9.07 0.572249
9.08 0.535065
9.09 0.496767
9.1 0.457458
9.11 0.417157
9.12 0.376064
9.13 0.334295
9.14 0.29196
9.15 0.249176
9.16 0.206068
9.17 0.162771
9.18 0.119452
9.19 0.0762882
9.2 0.033452
9.21 -0.00886979
9.22 -0.0504807
9.23 -0.0911752
9.24 -0.130612
9.25 -0.168635
9.26 -0.205053
9.27 -0.239654
9.28 -0.272235
9.29 -0.302601
9.3 -0.330497
9.31 -0.355606
9.32 -0.378006
9.33 -0.39759
9.34 -0.414281
9.35 -0.428027
9.36 -0.438808
9.37 -0.446381
9.38 -0.450944
9.39 -0.45266
9.4 -0.451618
9.41 -0.447927
9.42 -0.441713
9.43 -0.43307
9.44 -0.421995
9.45 -0.40887
9.46 -0.39385
9.47 -0.377088
9.48 -0.358729
9.49 -0.338913
9.5 -0.317681
9.51 -0.295203
9.52 -0.271641
9.53 -0.247087
9.54 -0.221622
9.55 -0.195319
9.56 -0.168238
9.57 -0.140379
9.58 -0.111884
9.59 -0.0828164
9.6 -0.0532432
9.61 -0.0232402
9.62 0.00710746
9.63 0.0377109
9.64 0.0684387
9.65 0.0991497
9.66 0.129702
9.67 0.159938
9.68 0.189693
9.69 0.218786
9.7 0.246916
9.71 0.273971
9.72 0.299764
9.73 0.324113
9.74 0.346842
9.75 0.36779
9.76 0.386705
9.77 0.403419
9.78 0.417964
9.79 0.430271
9.8 0.440301
9.81 0.448041
9.82 0.453509
9.83 0.456524
9.84 0.457374
9.85 0.456192
9.86 0.453099
9.87 0.448236
9.88 0.441757
9.89 0.433771
9.9 0.424423
9.91 0.413989
9.92 0.40263
9.93 0.390498
9.94 0.377734
9.95 0.364463
9.96 0.350767
9.97 0.336772
9.98 0.322552
9.99 0.308157
10 0.293618
10.01 0.278951
10.02 0.264152
10.03 0.249203
10.04 0.234095
10.05 0.218805
10.06 0.203309
10.07 0.187585
10.08 0.171616
10.09 0.155374
10.1 0.138872
10.11 0.122135
10.12 0.105192
10.13 0.0880819
10.14 0.0708591
10.15 0.0535885
10.16 0.0363572
10.17 0.0192531
10.18 0.00236507
10.19 -0.0142157
10.2 -0.030399
10.21 -0.046098
10.22 -0.0611868
10.23 -0.0756002
10.24 -0.089308
10.25 -0.102267
10.26 -0.114451
10.27 -0.125845
10.28 -0.13645
10.29 -0.146209
10.3 -0.155246
10.31 -0.163612
10.32 -0.171369
10.33 -0.178586
10.34 -0.18534
10.35 -0.191692
10.36 -0.197736
10.37 -0.203572
10.38 -0.209271
10.39 -0.214899
10.4 -0.220513
10.41 -0.226159
10.42 -0.231883
10.43 -0.237702
10.44 -0.243623
10.45 -0.249647
10.46 -0.255761
10.47 -0.261945
10.48 -0.268175
10.49 -0.274415
10.5 -0.280628
10.51 -0.286779
10.52 -0.292837
10.53 -0.298773
10.54 -0.304563
10.55 -0.310172
10.56 -0.315604
10.57 -0.32086
10.58 -0.325947
10.59 -0.330879
10.6 -0.335675
10.61 -0.340356
10.62 -0.344951
10.63 -0.3495
10.64 -0.354031
10.65 -0.358573
10.66 -0.363149
10.67 -0.367779
10.68 -0.372481
10.69 -0.377255
10.7 -0.382093
10.71 -0.386982
10.72 -0.391898
10.73 -0.396812
10.74 -0.401685
10.75 -0.406463
10.76 -0.411106
10.77 -0.415566
10.78 -0.419795
10.79 -0.423751
10.8 -0.427394
10.81 -0.430661
10.82 -0.433542
10.83 -0.436036
10.84 -0.438142
10.85 -0.439868
10.86 -0.441235
10.87 -0.442268
10.88 -0.442987
10.89 -0.443473
10.9 -0.443783
10.91 -0.443973
10.92 -0.444103
10.93 -0.444231
10.94 -0.444417
10.95 -0.444713
10.96 -0.445153
10.97 -0.445761
10.98 -0.446549
10.99 -0.447515
11 -0.448642
11.01 -0.449907
11.02 -0.451241
11.03 -0.45258
11.04 -0.453849
11.05 -0.454961
11.06 -0.455822
11.07 -0.456308
11.08 -0.456299
11.09 -0.455719
11.1 -0.454471
11.11 -0.452467
11.12 -0.44963
11.13 -0.445893
11.14 -0.441097
11.15 -0.435304
11.16 -0.428508
11.17 -0.420712
11.18 -0.411938
11.19 -0.402224
11.2 -0.391586
11.21 -0.380084
11.22 -0.367862
11.23 -0.355012
11.24 -0.34163
11.25 -0.327818
11.26 -0.313677
11.27 -0.299293
11.28 -0.284787
11.29 -0.270248
11.3 -0.25575
11.31 -0.241357
11.32 -0.22712
11.33 -0.213082
11.34 -0.19928
11.35 -0.185702
11.36 -0.172342
11.37 -0.159182
11.38 -0.146193
11.39 -0.133337
11.4 -0.120573
11.41 -0.107841
11.42 -0.0950826
11.43 -0.0822459
11.44 -0.069278
11.45 -0.0561292
11.46 -0.0427475
11.47 -0.0290703
11.48 -0.0150874
11.49 -0.000774305
11.5 0.0138866
11.51 0.0289055
11.52 0.0442859
11.53 0.0600518
11.54 0.076179
11.55 0.0926389
11.56 0.109413
11.57 0.126481
11.58 0.143819
11.59 0.161408
11.6 0.17924
11.61 0.197267
11.62 0.215466
11.63 0.233816
11.64 0.252296
11.65 0.270885
11.66 0.289568
11.67 0.308319
11.68 0.327113
11.69 0.345925
11.7 0.364729
11.71 0.383495
11.72 0.402188
11.73 0.42075
11.74 0.439146
11.75 0.457323
11.76 0.475224
11.77 0.492787
11.78 0.509942
11.79 0.526588
11.8 0.542629
11.81 0.558017
11.82 0.572669
11.83 0.586502
11.84 0.599433
11.85 0.611382
11.86 0.622149
11.87 0.631758
11.88 0.640152
11.89 0.64727
11.9 0.653059
11.91 0.657474
11.92 0.660413
11.93 0.661801
11.94 0.661724
11.95 0.660172
11.96 0.657141
11.97 0.652636
11.98 0.646671
11.99 0.639126
12 0.630141
12.01 0.619777
12.02 0.60807
12.03 0.595062
12.04 0.580798
12.05 0.56529
12.06 0.548539
12.07 0.530704
12.08 0.511848
12.09 0.492035
12.1 0.471336
12.11 0.449825
12.12 0.427527
12.13 0.404578
12.14 0.38109
12.15 0.35716
12.16 0.33289
12.17 0.308387
12.18 0.283761
12.19 0.259144
12.2 0.234665
12.21 0.210447
12.22 0.186613
12.23 0.163285
12.24 0.140587
12.25 0.118702
12.26 0.0977354
12.27 0.0777605
12.28 0.0588758
