# xPDFsuite Configuration #
[PDF]
wavelength = 0.1
dataformat = QA
inputfile = BiMsol6_insitu_700 C-00688.xy
backgroundfile = Quartz2mm-dist500-00000.xy
mode = xray
bgscale = 0.0042
composition = Bi2Fe4O9
outputtype = gr
qmaxinst = 24.998449118
qmin = 0.1
qmax = 21.4986662415
rmax = 80.0
rmin = 0.0
rstep = 0.01
rpoly = 0.9

[Misc]
inputdir = C:/Data/Seafile/CPH/Beamtime/Desy Oct 20/In situ data/Processed/BiMsol6/PDF
savedir = C:/Data/Seafile/CPH/Beamtime/Desy Oct 20/In situ data/PDF/BiMsol6
backgroundfilefull = C:/Data/Seafile/CPH/Beamtime/Desy Oct 20/In situ data/Processed/Standard_Empty_Cap/Quartz2mm-dist500-00000.xy

#### start data
#S 1
#L r($\AA$)  G($\AA^{-2}$)
0 0
0.01 0.00609785
0.02 0.0118486
0.03 0.0169553
0.04 0.0211515
0.05 0.0242138
0.06 0.0259719
0.07 0.0262399
0.08 0.0249643
0.09 0.0222832
0.1 0.0183105
0.11 0.0132225
0.12 0.00724998
0.13 0.000668222
0.14 -0.0062129
0.15 -0.0130053
0.16 -0.0193814
0.17 -0.0250342
0.18 -0.0296888
0.19 -0.0331163
0.2 -0.0350818
0.21 -0.0354264
0.22 -0.0342471
0.23 -0.0316106
0.24 -0.0276589
0.25 -0.0226047
0.26 -0.016723
0.27 -0.0103284
0.28 -0.00386787
0.29 0.0022604
0.3 0.00767024
0.31 0.0119954
0.32 0.0149076
0.33 0.0160752
0.34 0.015175
0.35 0.0122639
0.36 0.00734501
0.37 0.000523107
0.38 -0.00799477
0.39 -0.0179021
0.4 -0.0288414
0.41 -0.040209
0.42 -0.0514132
0.43 -0.0618518
0.44 -0.0709034
0.45 -0.0779499
0.46 -0.0823382
0.47 -0.0832267
0.48 -0.0804411
0.49 -0.0736464
0.5 -0.0626278
0.51 -0.0473045
0.52 -0.0277391
0.53 -0.00387696
0.54 0.0237329
0.55 0.0543728
0.56 0.0873747
0.57 0.12196
0.58 0.157259
0.59 0.192328
0.6 0.225955
0.61 0.257209
0.62 0.285146
0.63 0.308883
0.64 0.32763
0.65 0.340708
0.66 0.347176
0.67 0.346663
0.68 0.339359
0.69 0.325288
0.7 0.304657
0.71 0.277849
0.72 0.245414
0.73 0.207584
0.74 0.165846
0.75 0.12117
0.76 0.0745874
0.77 0.0271629
0.78 -0.0200314
0.79 -0.0658326
0.8 -0.10908
0.81 -0.148996
0.82 -0.184828
0.83 -0.215959
0.84 -0.241929
0.85 -0.262441
0.86 -0.276797
0.87 -0.285576
0.88 -0.289105
0.89 -0.28778
0.9 -0.282126
0.91 -0.272779
0.92 -0.260372
0.93 -0.245715
0.94 -0.229839
0.95 -0.213547
0.96 -0.197613
0.97 -0.18275
0.98 -0.169593
0.99 -0.15893
1 -0.151061
1.01 -0.146198
1.02 -0.144482
1.03 -0.145926
1.04 -0.150421
1.05 -0.157818
1.06 -0.167893
1.07 -0.179978
1.08 -0.193593
1.09 -0.208222
1.1 -0.223335
1.11 -0.238405
1.12 -0.25285
1.13 -0.266189
1.14 -0.278069
1.15 -0.288188
1.16 -0.296332
1.17 -0.302374
1.18 -0.306242
1.19 -0.307831
1.2 -0.307509
1.21 -0.305497
1.22 -0.302075
1.23 -0.297561
1.24 -0.292302
1.25 -0.286649
1.26 -0.281009
1.27 -0.275715
1.28 -0.271046
1.29 -0.267229
1.3 -0.264436
1.31 -0.262776
1.32 -0.262406
1.33 -0.263149
1.34 -0.264897
1.35 -0.267484
1.36 -0.270698
1.37 -0.274294
1.38 -0.277994
1.39 -0.281481
1.4 -0.284484
1.41 -0.28676
1.42 -0.288101
1.43 -0.288342
1.44 -0.287372
1.45 -0.284999
1.46 -0.281381
1.47 -0.276613
1.48 -0.270841
1.49 -0.264264
1.5 -0.257125
1.51 -0.2497
1.52 -0.242332
1.53 -0.235342
1.54 -0.229024
1.55 -0.223651
1.56 -0.219459
1.57 -0.216636
1.58 -0.215476
1.59 -0.215915
1.6 -0.217912
1.61 -0.221379
1.62 -0.226161
1.63 -0.23204
1.64 -0.23876
1.65 -0.245972
1.66 -0.253252
1.67 -0.260221
1.68 -0.266498
1.69 -0.271711
1.7 -0.275518
1.71 -0.277436
1.72 -0.2773
1.73 -0.274985
1.74 -0.270391
1.75 -0.263491
1.76 -0.254339
1.77 -0.243011
1.78 -0.229616
1.79 -0.214627
1.8 -0.198373
1.81 -0.181227
1.82 -0.163585
1.83 -0.145855
1.84 -0.128501
1.85 -0.111943
1.86 -0.0965098
1.87 -0.0824985
1.88 -0.0701463
1.89 -0.0596252
1.9 -0.0510646
1.91 -0.0446569
1.92 -0.0401364
1.93 -0.0373684
1.94 -0.0361568
1.95 -0.0362531
1.96 -0.0373681
1.97 -0.0392079
1.98 -0.0413788
1.99 -0.0435197
2 -0.0453204
2.01 -0.0465029
2.02 -0.0468333
2.03 -0.0461277
2.04 -0.0441373
2.05 -0.0409542
2.06 -0.0366209
2.07 -0.0312507
2.08 -0.0250236
2.09 -0.0181803
2.1 -0.0110151
2.11 -0.00391829
2.12 0.00272621
2.13 0.00854111
2.14 0.0131535
2.15 0.0162092
2.16 0.0173868
2.17 0.0161501
2.18 0.0124912
2.19 0.00629372
2.2 -0.00250042
2.21 -0.0138715
2.22 -0.0277213
2.23 -0.0439681
2.24 -0.0623731
2.25 -0.0824475
2.26 -0.103814
2.27 -0.126057
2.28 -0.148735
2.29 -0.171396
2.3 -0.193499
2.31 -0.214609
2.32 -0.234346
2.33 -0.252369
2.34 -0.268392
2.35 -0.282197
2.36 -0.293552
2.37 -0.302266
2.38 -0.308559
2.39 -0.312525
2.4 -0.314327
2.41 -0.314184
2.42 -0.312369
2.43 -0.309103
2.44 -0.304851
2.45 -0.300008
2.46 -0.29493
2.47 -0.28996
2.48 -0.285415
2.49 -0.281605
2.5 -0.278862
2.51 -0.277292
2.52 -0.277017
2.53 -0.278102
2.54 -0.280553
2.55 -0.284326
2.56 -0.289403
2.57 -0.295572
2.58 -0.302597
2.59 -0.310263
2.6 -0.318336
2.61 -0.326579
2.62 -0.334748
2.63 -0.342563
2.64 -0.349834
2.65 -0.356385
2.66 -0.362074
2.67 -0.366795
2.68 -0.370481
2.69 -0.373032
2.7 -0.37448
2.71 -0.374932
2.72 -0.374472
2.73 -0.373207
2.74 -0.371264
2.75 -0.36878
2.76 -0.365873
2.77 -0.362745
2.78 -0.359528
2.79 -0.356345
2.8 -0.353297
2.81 -0.350465
2.82 -0.347925
2.83 -0.345712
2.84 -0.34381
2.85 -0.342199
2.86 -0.340837
2.87 -0.339668
2.88 -0.338619
2.89 -0.337606
2.9 -0.336533
2.91 -0.335315
2.92 -0.333876
2.93 -0.332144
2.94 -0.330063
2.95 -0.327567
2.96 -0.32461
2.97 -0.321207
2.98 -0.317357
2.99 -0.313069
3 -0.30836
3.01 -0.303251
3.02 -0.297729
3.03 -0.291842
3.04 -0.285607
3.05 -0.27902
3.06 -0.272062
3.07 -0.2647
3.08 -0.256861
3.09 -0.248432
3.1 -0.239355
3.11 -0.229517
3.12 -0.21879
3.13 -0.207038
3.14 -0.194119
3.15 -0.179767
3.16 -0.1639
3.17 -0.146443
3.18 -0.127295
3.19 -0.106384
3.2 -0.0836658
3.21 -0.059097
3.22 -0.0325841
3.23 -0.00438605
3.24 0.0253701
3.25 0.0565154
3.26 0.0888409
3.27 0.122101
3.28 0.156043
3.29 0.190296
3.3 0.224503
3.31 0.258325
3.32 0.291417
3.33 0.323442
3.34 0.354055
3.35 0.382751
3.36 0.409413
3.37 0.433806
3.38 0.455731
3.39 0.475034
3.4 0.491602
3.41 0.505195
3.42 0.515818
3.43 0.523659
3.44 0.528792
3.45 0.531325
3.46 0.531397
3.47 0.529171
3.48 0.524608
3.49 0.518162
3.5 0.510038
3.51 0.500436
3.52 0.489549
3.53 0.47756
3.54 0.4646
3.55 0.45083
3.56 0.43644
3.57 0.42154
3.58 0.406223
3.59 0.390566
3.6 0.374632
3.61 0.358452
3.62 0.342095
3.63 0.325602
3.64 0.309012
3.65 0.292369
3.66 0.275722
3.67 0.259138
3.68 0.242704
3.69 0.226504
3.7 0.21064
3.71 0.195227
3.72 0.180392
3.73 0.166273
3.74 0.153107
3.75 0.140999
3.76 0.130078
3.77 0.120484
3.78 0.112353
3.79 0.105805
3.8 0.100999
3.81 0.0981337
3.82 0.0971172
3.83 0.0979837
3.84 0.100742
3.85 0.105377
3.86 0.111846
3.87 0.120225
3.88 0.130326
3.89 0.14198
3.9 0.155061
3.91 0.169432
3.92 0.184947
3.93 0.201473
3.94 0.218905
3.95 0.237
3.96 0.255616
3.97 0.274618
3.98 0.293879
3.99 0.313285
4 0.332726
4.01 0.352096
4.02 0.371311
4.03 0.390299
4.04 0.408991
4.05 0.427325
4.06 0.445236
4.07 0.462607
4.08 0.479424
4.09 0.495617
4.1 0.511116
4.11 0.52584
4.12 0.539705
4.13 0.552554
4.14 0.564277
4.15 0.574827
4.16 0.584097
4.17 0.591982
4.18 0.598379
4.19 0.603192
4.2 0.606133
4.21 0.607302
4.22 0.606646
4.23 0.604123
4.24 0.599707
4.25 0.593393
4.26 0.585106
4.27 0.574856
4.28 0.562829
4.29 0.549106
4.3 0.533782
4.31 0.516964
4.32 0.498772
4.33 0.479219
4.34 0.458561
4.35 0.436946
4.36 0.414505
4.37 0.391359
4.38 0.367622
4.39 0.343382
4.4 0.318726
4.41 0.293763
4.42 0.268554
4.43 0.243147
4.44 0.217577
4.45 0.191871
4.46 0.166038
4.47 0.1401
4.48 0.11407
4.49 0.0879609
4.5 0.06179
4.51 0.0355808
4.52 0.00936718
4.53 -0.0167968
4.54 -0.0428514
4.55 -0.0687234
4.56 -0.0943271
4.57 -0.119565
4.58 -0.144327
4.59 -0.168442
4.6 -0.191794
4.61 -0.214283
4.62 -0.235786
4.63 -0.256187
4.64 -0.275379
4.65 -0.293246
4.66 -0.309588
4.67 -0.324485
4.68 -0.337908
4.69 -0.349852
4.7 -0.360335
4.71 -0.369399
4.72 -0.377024
4.73 -0.383343
4.74 -0.388533
4.75 -0.392721
4.76 -0.396047
4.77 -0.398658
4.78 -0.400704
4.79 -0.402309
4.8 -0.403673
4.81 -0.404931
4.82 -0.406199
4.83 -0.40758
4.84 -0.409157
4.85 -0.411005
4.86 -0.413169
4.87 -0.415642
4.88 -0.418413
4.89 -0.421452
4.9 -0.424708
4.91 -0.428119
4.92 -0.431607
4.93 -0.435068
4.94 -0.438411
4.95 -0.441544
4.96 -0.444377
4.97 -0.446826
4.98 -0.44879
4.99 -0.450185
5 -0.450994
5.01 -0.45118
5.02 -0.450722
5.03 -0.449611
5.04 -0.447851
5.05 -0.445397
5.06 -0.442328
5.07 -0.438692
5.08 -0.434525
5.09 -0.429871
5.1 -0.42477
5.11 -0.419249
5.12 -0.413333
5.13 -0.407084
5.14 -0.400527
5.15 -0.393681
5.16 -0.386556
5.17 -0.37916
5.18 -0.371471
5.19 -0.363503
5.2 -0.355262
5.21 -0.346746
5.22 -0.337957
5.23 -0.3289
5.24 -0.319583
5.25 -0.310015
5.26 -0.300253
5.27 -0.290341
5.28 -0.280333
5.29 -0.270293
5.3 -0.260294
5.31 -0.250434
5.32 -0.240809
5.33 -0.231504
5.34 -0.222612
5.35 -0.214221
5.36 -0.206416
5.37 -0.199282
5.38 -0.192956
5.39 -0.187415
5.4 -0.182692
5.41 -0.1788
5.42 -0.175736
5.43 -0.173478
5.44 -0.172033
5.45 -0.171324
5.46 -0.171236
5.47 -0.171682
5.48 -0.172565
5.49 -0.173784
5.5 -0.175232
5.51 -0.176806
5.52 -0.17838
5.53 -0.179862
5.54 -0.181168
5.55 -0.182227
5.56 -0.182979
5.57 -0.183362
5.58 -0.183342
5.59 -0.18293
5.6 -0.18213
5.61 -0.180957
5.62 -0.179433
5.63 -0.177588
5.64 -0.17543
5.65 -0.173024
5.66 -0.170402
5.67 -0.167589
5.68 -0.164599
5.69 -0.161437
5.7 -0.158085
5.71 -0.15451
5.72 -0.150687
5.73 -0.146563
5.74 -0.142074
5.75 -0.137147
5.76 -0.131701
5.77 -0.125587
5.78 -0.118758
5.79 -0.111147
5.8 -0.102686
5.81 -0.0933176
5.82 -0.0830006
5.83 -0.0716814
5.84 -0.0593136
5.85 -0.0460088
5.86 -0.0318216
5.87 -0.0168306
5.88 -0.00113815
5.89 0.0151323
5.9 0.0318616
5.91 0.0488463
5.92 0.065902
5.93 0.0828525
5.94 0.0995212
5.95 0.115737
5.96 0.13132
5.97 0.146051
5.98 0.159871
5.99 0.17268
6 0.184409
6.01 0.195012
6.02 0.204478
6.03 0.21274
6.04 0.219888
6.05 0.226045
6.06 0.231309
6.07 0.235793
6.08 0.239625
6.09 0.242936
6.1 0.245843
6.11 0.248529
6.12 0.251117
6.13 0.253712
6.14 0.2564
6.15 0.259246
6.16 0.262299
6.17 0.265565
6.18 0.269005
6.19 0.272565
6.2 0.276166
6.21 0.279701
6.22 0.283048
6.23 0.286011
6.24 0.288462
6.25 0.290245
6.26 0.291205
6.27 0.291194
6.28 0.290079
6.29 0.287673
6.3 0.283854
6.31 0.278639
6.32 0.271995
6.33 0.263919
6.34 0.254437
6.35 0.243605
6.36 0.231387
6.37 0.218027
6.38 0.203678
6.39 0.188494
6.4 0.17264
6.41 0.156289
6.42 0.139611
6.43 0.122793
6.44 0.106017
6.45 0.089426
6.46 0.0731476
6.47 0.0572863
6.48 0.0419241
6.49 0.0271738
6.5 0.0130267
6.51 -0.000528795
6.52 -0.0135139
6.53 -0.0259701
6.54 -0.0379556
6.55 -0.0495326
6.56 -0.0607765
6.57 -0.0718076
6.58 -0.0827123
6.59 -0.0935727
6.6 -0.104462
6.61 -0.115443
6.62 -0.126577
6.63 -0.137888
6.64 -0.149378
6.65 -0.161035
6.66 -0.172827
6.67 -0.184705
6.68 -0.1966
6.69 -0.208416
6.7 -0.220056
6.71 -0.231416
6.72 -0.242388
6.73 -0.252862
6.74 -0.262728
6.75 -0.271823
6.76 -0.280058
6.77 -0.287381
6.78 -0.293718
6.79 -0.299008
6.8 -0.303206
6.81 -0.306267
6.82 -0.308055
6.83 -0.308688
6.84 -0.308169
6.85 -0.306511
6.86 -0.303733
6.87 -0.299858
6.88 -0.294846
6.89 -0.288731
6.9 -0.281596
6.91 -0.273458
6.92 -0.264332
6.93 -0.254226
6.94 -0.243142
6.95 -0.230965
6.96 -0.217795
6.97 -0.203624
6.98 -0.188437
6.99 -0.17222
7 -0.154962
7.01 -0.1366
7.02 -0.117115
7.03 -0.0965845
7.04 -0.0750244
7.05 -0.0524625
7.06 -0.028938
7.07 -0.00450255
7.08 0.0208587
7.09 0.0469826
7.1 0.0737658
7.11 0.101106
7.12 0.128893
7.13 0.157007
7.14 0.185327
7.15 0.213711
7.16 0.242016
7.17 0.270115
7.18 0.297884
7.19 0.325203
7.2 0.351958
7.21 0.377972
7.22 0.403181
7.23 0.427514
7.24 0.45089
7.25 0.473235
7.26 0.494484
7.27 0.514542
7.28 0.533272
7.29 0.550727
7.3 0.566857
7.31 0.581615
7.32 0.594951
7.33 0.606816
7.34 0.617033
7.35 0.625611
7.36 0.632553
7.37 0.637804
7.38 0.641311
7.39 0.643024
7.4 0.642863
7.41 0.640624
7.42 0.636459
7.43 0.630345
7.44 0.62227
7.45 0.612234
7.46 0.600255
7.47 0.586234
7.48 0.570273
7.49 0.552535
7.5 0.533108
7.51 0.5121
7.52 0.489632
7.53 0.465835
7.54 0.440757
7.55 0.414705
7.56 0.38785
7.57 0.36037
7.58 0.332443
7.59 0.304248
7.6 0.275965
7.61 0.247789
7.62 0.219883
7.63 0.192392
7.64 0.165454
7.65 0.139189
7.66 0.113704
7.67 0.0891993
7.68 0.065664
7.69 0.0431538
7.7 0.0217158
7.71 0.00138546
7.72 -0.0178123
7.73 -0.0358062
7.74 -0.0525624
7.75 -0.0681592
7.76 -0.0825993
7.77 -0.095888
7.78 -0.108032
7.79 -0.11904
7.8 -0.128808
7.81 -0.13744
7.82 -0.144965
7.83 -0.151392
7.84 -0.156732
7.85 -0.161
7.86 -0.164174
7.87 -0.166233
7.88 -0.167288
7.89 -0.167373
7.9 -0.166527
7.91 -0.164795
7.92 -0.162231
7.93 -0.158833
7.94 -0.154724
7.95 -0.15
7.96 -0.144739
7.97 -0.139023
7.98 -0.132936
7.99 -0.126557
8 -0.119966
8.01 -0.113264
8.02 -0.106526
8.03 -0.0998155
8.04 -0.0931919
8.05 -0.0867034
8.06 -0.0804053
8.07 -0.0743216
8.08 -0.0684621
8.09 -0.0628336
8.1 -0.057435
8.11 -0.0522575
8.12 -0.0472892
8.13 -0.0425253
8.14 -0.0379232
8.15 -0.0334612
8.16 -0.0291192
8.17 -0.0248805
8.18 -0.0207329
8.19 -0.0166761
8.2 -0.0127102
8.21 -0.00884076
8.22 -0.00508485
8.23 -0.00146613
8.24 0.00198571
8.25 0.00523542
8.26 0.00821416
8.27 0.0109062
8.28 0.0132731
8.29 0.0152791
8.3 0.0168935
8.31 0.018092
8.32 0.0188339
8.33 0.0191117
8.34 0.0189586
8.35 0.0183928
8.36 0.0174436
8.37 0.0161504
8.38 0.0145621
8.39 0.0127165
8.4 0.0107077
8.41 0.00860471
8.42 0.00647517
8.43 0.00438457
8.44 0.00239356
8.45 0.000564345
8.46 -0.00105003
8.47 -0.00243366
8.48 -0.00357329
8.49 -0.00447098
8.5 -0.00514473
8.51 -0.00562838
8.52 -0.00596357
8.53 -0.00623423
8.54 -0.00652135
8.55 -0.00691259
8.56 -0.00750194
8.57 -0.00838658
8.58 -0.00968044
8.59 -0.0115126
8.6 -0.0139332
8.61 -0.0170148
8.62 -0.0208162
8.63 -0.0253802
8.64 -0.0307313
8.65 -0.0369423
8.66 -0.0439479
8.67 -0.0516844
8.68 -0.0600937
8.69 -0.0691004
8.7 -0.0786146
8.71 -0.0885413
8.72 -0.0987756
8.73 -0.109165
8.74 -0.119591
8.75 -0.129941
8.76 -0.140108
8.77 -0.149994
8.78 -0.159479
8.79 -0.168501
8.8 -0.177027
8.81 -0.185025
8.82 -0.192483
8.83 -0.199407
8.84 -0.205812
8.85 -0.211696
8.86 -0.217163
8.87 -0.222274
8.88 -0.227094
8.89 -0.231692
8.9 -0.236132
8.91 -0.240475
8.92 -0.244783
8.93 -0.249101
8.94 -0.253458
8.95 -0.257866
8.96 -0.262326
8.97 -0.266819
8.98 -0.271309
8.99 -0.275745
9 -0.280065
9.01 -0.284203
9.02 -0.288082
9.03 -0.291625
9.04 -0.294729
9.05 -0.297306
9.06 -0.299318
9.07 -0.300712
9.08 -0.301448
9.09 -0.301499
9.1 -0.300858
9.11 -0.299461
9.12 -0.297406
9.13 -0.294744
9.14 -0.291537
9.15 -0.287857
9.16 -0.283787
9.17 -0.279409
9.18 -0.274823
9.19 -0.270146
9.2 -0.265468
9.21 -0.260872
9.22 -0.256431
9.23 -0.252209
9.24 -0.24828
9.25 -0.244658
9.26 -0.241348
9.27 -0.238347
9.28 -0.235633
9.29 -0.233174
9.3 -0.230928
9.31 -0.228843
9.32 -0.226838
9.33 -0.224849
9.34 -0.222814
9.35 -0.220673
9.36 -0.218374
9.37 -0.215856
9.38 -0.213097
9.39 -0.210091
9.4 -0.206838
9.41 -0.203356
9.42 -0.199674
9.43 -0.195832
9.44 -0.191885
9.45 -0.18791
9.46 -0.183973
9.47 -0.180143
9.48 -0.176484
9.49 -0.173055
9.5 -0.169927
9.51 -0.16713
9.52 -0.164663
9.53 -0.162524
9.54 -0.160685
9.55 -0.159101
9.56 -0.157706
9.57 -0.15641
9.58 -0.155086
9.59 -0.153609
9.6 -0.151846
9.61 -0.149654
9.62 -0.146888
9.63 -0.143354
9.64 -0.138901
9.65 -0.133448
9.66 -0.126891
9.67 -0.119146
9.68 -0.110152
9.69 -0.0998742
9.7 -0.0881587
9.71 -0.0751807
9.72 -0.0609987
9.73 -0.045695
9.74 -0.0293761
9.75 -0.0121692
9.76 0.00581085
9.77 0.0243895
9.78 0.0433524
9.79 0.0625305
9.8 0.0817579
9.81 0.100876
9.82 0.119738
9.83 0.138162
9.84 0.156062
9.85 0.173362
9.86 0.19
9.87 0.205939
9.88 0.221167
9.89 0.235664
9.9 0.249442
9.91 0.262605
9.92 0.275213
9.93 0.287339
9.94 0.299057
9.95 0.310443
9.96 0.321548
9.97 0.33246
9.98 0.343231
9.99 0.353892
10 0.364459
10.01 0.374927
10.02 0.385269
10.03 0.395424
10.04 0.405341
10.05 0.414942
10.06 0.424137
10.07 0.43283
10.08 0.440921
10.09 0.448243
10.1 0.454721
10.11 0.460299
10.12 0.464906
10.13 0.468489
10.14 0.471018
10.15 0.472463
10.16 0.472758
10.17 0.472053
10.18 0.470417
10.19 0.467939
10.2 0.464729
10.21 0.460912
10.22 0.456604
10.23 0.451986
10.24 0.447228
10.25 0.44248
10.26 0.437881
10.27 0.433562
10.28 0.42964
10.29 0.426269
10.3 0.423466
10.31 0.421274
10.32 0.419704
10.33 0.418744
10.34 0.418355
10.35 0.418496
10.36 0.419064
10.37 0.419919
10.38 0.420933
10.39 0.421971
10.4 0.422888
10.41 0.423537
10.42 0.423713
10.43 0.423311
10.44 0.422209
10.45 0.420297
10.46 0.417484
10.47 0.413695
10.48 0.408828
10.49 0.402828
10.5 0.395761
10.51 0.387642
10.52 0.378503
10.53 0.368393
10.54 0.357374
10.55 0.345441
10.56 0.332754
10.57 0.319411
10.58 0.305496
10.59 0.291091
10.6 0.276273
10.61 0.261102
10.62 0.245636
10.63 0.229951
10.64 0.21409
10.65 0.198082
10.66 0.181951
10.67 0.165711
10.68 0.149363
10.69 0.132919
10.7 0.116381
10.71 0.0997524
10.72 0.0830359
10.73 0.0662384
10.74 0.0493703
10.75 0.0324489
10.76 0.0155059
10.77 -0.00142604
10.78 -0.0183083
10.79 -0.0350966
10.8 -0.0517425
10.81 -0.0681746
10.82 -0.0843423
10.83 -0.100202
10.84 -0.115708
10.85 -0.130817
10.86 -0.145498
10.87 -0.159718
10.88 -0.173424
10.89 -0.186662
10.9 -0.199448
10.91 -0.211806
10.92 -0.223774
10.93 -0.235396
10.94 -0.246713
10.95 -0.257801
10.96 -0.268738
10.97 -0.27959
10.98 -0.290419
10.99 -0.301281
11 -0.312223
11.01 -0.323299
11.02 -0.334516
11.03 -0.345877
11.04 -0.357369
11.05 -0.368959
11.06 -0.380599
11.07 -0.392216
11.08 -0.403715
11.09 -0.414999
11.1 -0.425959
11.11 -0.436481
11.12 -0.446444
11.13 -0.455729
11.14 -0.464121
11.15 -0.471583
11.16 -0.478025
11.17 -0.483367
11.18 -0.487543
11.19 -0.490507
11.2 -0.492176
11.21 -0.492518
11.22 -0.491639
11.23 -0.489582
11.24 -0.486403
11.25 -0.482177
11.26 -0.47699
11.27 -0.470864
11.28 -0.463984
11.29 -0.456471
11.3 -0.448429
11.31 -0.439956
11.32 -0.431143
11.33 -0.422061
11.34 -0.412772
11.35 -0.403342
11.36 -0.393798
11.37 -0.384152
11.38 -0.374397
11.39 -0.364514
11.4 -0.354447
11.41 -0.344155
11.42 -0.333586
11.43 -0.322678
11.44 -0.311371
11.45 -0.299605
11.46 -0.287313
11.47 -0.27441
11.48 -0.260915
11.49 -0.246815
11.5 -0.232113
11.51 -0.216833
11.52 -0.201014
11.53 -0.184683
11.54 -0.167948
11.55 -0.150925
11.56 -0.133722
11.57 -0.116458
11.58 -0.0992621
11.59 -0.0822681
11.6 -0.0656534
11.61 -0.0495212
11.62 -0.0339898
11.63 -0.0191668
11.64 -0.00514601
11.65 0.00799496
11.66 0.0201314
11.67 0.0312345
11.68 0.0413372
11.69 0.050444
11.7 0.0585784
11.71 0.0657809
11.72 0.0721061
11.73 0.0775421
11.74 0.0822702
11.75 0.0863795
11.76 0.0899623
11.77 0.0931117
11.78 0.0959181
11.79 0.0984569
11.8 0.100815
11.81 0.103072
11.82 0.10528
11.83 0.107481
11.84 0.109699
11.85 0.111948
11.86 0.11423
11.87 0.116526
11.88 0.118811
11.89 0.121048
11.9 0.123197
11.91 0.125209
11.92 0.127024
11.93 0.128575
11.94 0.129826
11.95 0.130729
11.96 0.131237
11.97 0.131313
11.98 0.130921
11.99 0.129981
12 0.128509
12.01 0.126497
12.02 0.123935
12.03 0.120815
12.04 0.117133
12.05 0.112868
12.06 0.107989
12.07 0.102542
12.08 0.0965249
12.09 0.0899333
12.1 0.0827611
12.11 0.0749999
12.12 0.0665871
12.13 0.0575423
12.14 0.0478721
12.15 0.0375651
12.16 0.0266117
12.17 0.0150061
