# xPDFsuite Configuration #
[PDF]
wavelength = 0.1
dataformat = QA
inputfile = BiMsol6_insitu_700 C-00583.xy
backgroundfile = Quartz2mm-dist500-00000.xy
mode = xray
bgscale = 0.0042
composition = Bi2Fe4O9
outputtype = gr
qmaxinst = 24.998449118
qmin = 0.1
qmax = 21.4986662415
rmax = 80.0
rmin = 0.0
rstep = 0.01
rpoly = 0.9

[Misc]
inputdir = C:/Data/Seafile/CPH/Beamtime/Desy Oct 20/In situ data/Processed/BiMsol6/PDF
savedir = C:/Data/Seafile/CPH/Beamtime/Desy Oct 20/In situ data/PDF/BiMsol6
backgroundfilefull = C:/Data/Seafile/CPH/Beamtime/Desy Oct 20/In situ data/Processed/Standard_Empty_Cap/Quartz2mm-dist500-00000.xy

#### start data
#S 1
#L r($\AA$)  G($\AA^{-2}$)
0 0
0.01 0.00537382
0.02 0.0104362
0.03 0.0149206
0.04 0.0185886
0.05 0.0212401
0.06 0.0227237
0.07 0.0228744
0.08 0.0216466
0.09 0.0191664
0.1 0.0155388
0.11 0.010925
0.12 0.00553485
0.13 -0.000381905
0.14 -0.00654245
0.15 -0.012599
0.16 -0.0182574
0.17 -0.0232427
0.18 -0.02731
0.19 -0.0302569
0.2 -0.0318768
0.21 -0.0320333
0.22 -0.030822
0.23 -0.028311
0.24 -0.0246368
0.25 -0.0199999
0.26 -0.0146569
0.27 -0.00890464
0.28 -0.00315073
0.29 0.00224139
0.3 0.00691953
0.31 0.0105515
0.32 0.0128417
0.33 0.0134922
0.34 0.0122151
0.35 0.00907634
0.36 0.00409086
0.37 -0.00263227
0.38 -0.0108892
0.39 -0.0203842
0.4 -0.030769
0.41 -0.0414756
0.42 -0.0519485
0.43 -0.0616218
0.44 -0.0699126
0.45 -0.0762426
0.46 -0.0800002
0.47 -0.0803941
0.48 -0.0772723
0.49 -0.0703249
0.5 -0.0593551
0.51 -0.0442915
0.52 -0.0251972
0.53 -0.00202211
0.54 0.0247129
0.55 0.0543289
0.56 0.0861951
0.57 0.119577
0.58 0.153655
0.59 0.187538
0.6 0.220085
0.61 0.250412
0.62 0.277625
0.63 0.300886
0.64 0.319438
0.65 0.332635
0.66 0.339571
0.67 0.339877
0.68 0.333716
0.69 0.321091
0.7 0.302174
0.71 0.277303
0.72 0.246973
0.73 0.211358
0.74 0.171855
0.75 0.129362
0.76 0.0848332
0.77 0.0392628
0.78 -0.00634585
0.79 -0.0509105
0.8 -0.0933345
0.81 -0.132856
0.82 -0.168744
0.83 -0.200394
0.84 -0.227339
0.85 -0.249261
0.86 -0.265462
0.87 -0.276431
0.88 -0.282421
0.89 -0.283755
0.9 -0.280875
0.91 -0.274329
0.92 -0.264655
0.93 -0.252555
0.94 -0.238982
0.95 -0.224665
0.96 -0.210308
0.97 -0.196573
0.98 -0.184055
0.99 -0.173468
1 -0.165143
1.01 -0.159318
1.02 -0.156164
1.03 -0.15574
1.04 -0.157998
1.05 -0.162854
1.06 -0.170167
1.07 -0.179385
1.08 -0.190123
1.09 -0.20196
1.1 -0.214457
1.11 -0.227176
1.12 -0.239645
1.13 -0.251443
1.14 -0.262253
1.15 -0.27181
1.16 -0.279916
1.17 -0.286448
1.18 -0.291327
1.19 -0.294451
1.2 -0.296086
1.21 -0.296392
1.22 -0.295574
1.23 -0.293868
1.24 -0.291532
1.25 -0.288825
1.26 -0.286048
1.27 -0.283448
1.28 -0.281226
1.29 -0.279538
1.3 -0.278495
1.31 -0.278159
1.32 -0.278604
1.33 -0.279688
1.34 -0.281303
1.35 -0.283299
1.36 -0.285494
1.37 -0.287686
1.38 -0.289635
1.39 -0.291094
1.4 -0.291883
1.41 -0.291833
1.42 -0.290808
1.43 -0.288718
1.44 -0.285521
1.45 -0.281113
1.46 -0.275695
1.47 -0.269404
1.48 -0.26242
1.49 -0.254964
1.5 -0.24729
1.51 -0.239687
1.52 -0.232493
1.53 -0.225979
1.54 -0.220408
1.55 -0.216013
1.56 -0.212983
1.57 -0.211462
1.58 -0.211695
1.59 -0.213557
1.6 -0.21696
1.61 -0.221771
1.62 -0.2278
1.63 -0.234796
1.64 -0.242473
1.65 -0.250455
1.66 -0.258323
1.67 -0.2657
1.68 -0.272208
1.69 -0.27749
1.7 -0.281221
1.71 -0.282929
1.72 -0.282486
1.73 -0.279797
1.74 -0.274785
1.75 -0.267451
1.76 -0.25787
1.77 -0.246141
1.78 -0.232394
1.79 -0.217107
1.8 -0.20062
1.81 -0.183306
1.82 -0.165561
1.83 -0.147789
1.84 -0.130446
1.85 -0.11394
1.86 -0.0985858
1.87 -0.0846674
1.88 -0.07241
1.89 -0.0619745
1.9 -0.0534808
1.91 -0.0471119
1.92 -0.0426009
1.93 -0.0398132
1.94 -0.0385558
1.95 -0.0385865
1.96 -0.0396245
1.97 -0.0413878
1.98 -0.043497
1.99 -0.045604
2 -0.0474114
2.01 -0.0486531
2.02 -0.0491048
2.03 -0.0485904
2.04 -0.0468728
2.05 -0.0440352
2.06 -0.0401148
2.07 -0.0352156
2.08 -0.0295038
2.09 -0.0232026
2.1 -0.0165841
2.11 -0.0100109
2.12 -0.0038408
2.13 0.00157557
2.14 0.00589148
2.15 0.00877755
2.16 0.0099345
2.17 0.00886472
2.18 0.00555759
2.19 -9.73717e-05
2.2 -0.00815724
2.21 -0.0186076
2.22 -0.0313623
2.23 -0.0463518
2.24 -0.0633628
2.25 -0.0819488
2.26 -0.101768
2.27 -0.122444
2.28 -0.143576
2.29 -0.164752
2.3 -0.185491
2.31 -0.205389
2.32 -0.2241
2.33 -0.241312
2.34 -0.256766
2.35 -0.27026
2.36 -0.281579
2.37 -0.29055
2.38 -0.297361
2.39 -0.302091
2.4 -0.304878
2.41 -0.305915
2.42 -0.305437
2.43 -0.303635
2.44 -0.300917
2.45 -0.297631
2.46 -0.29409
2.47 -0.290592
2.48 -0.287419
2.49 -0.284837
2.5 -0.283135
2.51 -0.282412
2.52 -0.282774
2.53 -0.284278
2.54 -0.286932
2.55 -0.290696
2.56 -0.295556
2.57 -0.301331
2.58 -0.307816
2.59 -0.314829
2.6 -0.322168
2.61 -0.32963
2.62 -0.337006
2.63 -0.344052
2.64 -0.350609
2.65 -0.356525
2.66 -0.361679
2.67 -0.365977
2.68 -0.369362
2.69 -0.371743
2.7 -0.373144
2.71 -0.373655
2.72 -0.373342
2.73 -0.372292
2.74 -0.370606
2.75 -0.368397
2.76 -0.365748
2.77 -0.362834
2.78 -0.359762
2.79 -0.356631
2.8 -0.353525
2.81 -0.35051
2.82 -0.347645
2.83 -0.344964
2.84 -0.342464
2.85 -0.340135
2.86 -0.337953
2.87 -0.33588
2.88 -0.333873
2.89 -0.331876
2.9 -0.329829
2.91 -0.327682
2.92 -0.325387
2.93 -0.322905
2.94 -0.320203
2.95 -0.317248
2.96 -0.314017
2.97 -0.310523
2.98 -0.306769
2.99 -0.30276
3 -0.298502
3.01 -0.294001
3.02 -0.289233
3.03 -0.284202
3.04 -0.278891
3.05 -0.273261
3.06 -0.267257
3.07 -0.260808
3.08 -0.253803
3.09 -0.246086
3.1 -0.237578
3.11 -0.228143
3.12 -0.217639
3.13 -0.205918
3.14 -0.192835
3.15 -0.178117
3.16 -0.161705
3.17 -0.143551
3.18 -0.123584
3.19 -0.101762
3.2 -0.0780804
3.21 -0.0525356
3.22 -0.0250844
3.23 0.0039714
3.24 0.0344639
3.25 0.0661864
3.26 0.0988961
3.27 0.132319
3.28 0.166162
3.29 0.200044
3.3 0.233617
3.31 0.266543
3.32 0.29849
3.33 0.329139
3.34 0.358171
3.35 0.3851
3.36 0.409874
3.37 0.432299
3.38 0.452225
3.39 0.469545
3.4 0.484195
3.41 0.495991
3.42 0.50499
3.43 0.51141
3.44 0.515359
3.45 0.516973
3.46 0.516411
3.47 0.513849
3.48 0.509288
3.49 0.503144
3.5 0.495609
3.51 0.486865
3.52 0.477081
3.53 0.466411
3.54 0.454958
3.55 0.442844
3.56 0.430208
3.57 0.417121
3.58 0.403638
3.59 0.3898
3.6 0.375635
3.61 0.361135
3.62 0.346348
3.63 0.331298
3.64 0.316012
3.65 0.300524
3.66 0.284884
3.67 0.269153
3.68 0.253425
3.69 0.237808
3.7 0.222422
3.71 0.207399
3.72 0.192889
3.73 0.17905
3.74 0.166141
3.75 0.154293
3.76 0.14365
3.77 0.134372
3.78 0.126604
3.79 0.120477
3.8 0.116154
3.81 0.113838
3.82 0.113426
3.83 0.114943
3.84 0.118386
3.85 0.123722
3.86 0.130889
3.87 0.139938
3.88 0.150656
3.89 0.162849
3.9 0.176369
3.91 0.191054
3.92 0.206736
3.93 0.223259
3.94 0.240484
3.95 0.258172
3.96 0.276171
3.97 0.29434
3.98 0.31255
3.99 0.33069
4 0.348643
4.01 0.366319
4.02 0.383659
4.03 0.400609
4.04 0.417121
4.05 0.433156
4.06 0.448673
4.07 0.463578
4.08 0.477893
4.09 0.491575
4.1 0.50458
4.11 0.516853
4.12 0.528333
4.13 0.538894
4.14 0.548446
4.15 0.556955
4.16 0.564328
4.17 0.570472
4.18 0.575294
4.19 0.578704
4.2 0.580436
4.21 0.580575
4.22 0.579064
4.23 0.575856
4.24 0.570921
4.25 0.564246
4.26 0.555756
4.27 0.54545
4.28 0.533496
4.29 0.519962
4.3 0.504931
4.31 0.488501
4.32 0.47078
4.33 0.451775
4.34 0.431725
4.35 0.410769
4.36 0.389025
4.37 0.366608
4.38 0.343625
4.39 0.320156
4.4 0.296282
4.41 0.272107
4.42 0.247686
4.43 0.223064
4.44 0.198274
4.45 0.173339
4.46 0.148266
4.47 0.123075
4.48 0.0977811
4.49 0.0723951
4.5 0.046934
4.51 0.0214216
4.52 -0.00410834
4.53 -0.0296021
4.54 -0.0549985
4.55 -0.080224
4.56 -0.105192
4.57 -0.129806
4.58 -0.153956
4.59 -0.177471
4.6 -0.200236
4.61 -0.222151
4.62 -0.243094
4.63 -0.262952
4.64 -0.281619
4.65 -0.298983
4.66 -0.314846
4.67 -0.329293
4.68 -0.342296
4.69 -0.353853
4.7 -0.363986
4.71 -0.372741
4.72 -0.380105
4.73 -0.386212
4.74 -0.391239
4.75 -0.395316
4.76 -0.398584
4.77 -0.401189
4.78 -0.403282
4.79 -0.404987
4.8 -0.406498
4.81 -0.407941
4.82 -0.409431
4.83 -0.411059
4.84 -0.412901
4.85 -0.415023
4.86 -0.417456
4.87 -0.420181
4.88 -0.423176
4.89 -0.426398
4.9 -0.429787
4.91 -0.433265
4.92 -0.436737
4.93 -0.440098
4.94 -0.44325
4.95 -0.446095
4.96 -0.448542
4.97 -0.450507
4.98 -0.451889
4.99 -0.452606
5 -0.45266
5.01 -0.452027
5.02 -0.450701
5.03 -0.44869
5.04 -0.446018
5.05 -0.442665
5.06 -0.438736
5.07 -0.434299
5.08 -0.429417
5.09 -0.424153
5.1 -0.418568
5.11 -0.412713
5.12 -0.406637
5.13 -0.4004
5.14 -0.394032
5.15 -0.387552
5.16 -0.38097
5.17 -0.374281
5.18 -0.367462
5.19 -0.360494
5.2 -0.353354
5.21 -0.346009
5.22 -0.338428
5.23 -0.330581
5.24 -0.322434
5.25 -0.313949
5.26 -0.305145
5.27 -0.29603
5.28 -0.286622
5.29 -0.276955
5.3 -0.267075
5.31 -0.257034
5.32 -0.246923
5.33 -0.236832
5.34 -0.226852
5.35 -0.217081
5.36 -0.207617
5.37 -0.198566
5.38 -0.190076
5.39 -0.182188
5.4 -0.174972
5.41 -0.16849
5.42 -0.162783
5.43 -0.15788
5.44 -0.153842
5.45 -0.150644
5.46 -0.148213
5.47 -0.146503
5.48 -0.14545
5.49 -0.144982
5.5 -0.145013
5.51 -0.145488
5.52 -0.146254
5.53 -0.147213
5.54 -0.148272
5.55 -0.14934
5.56 -0.150336
5.57 -0.151173
5.58 -0.151779
5.59 -0.152115
5.6 -0.152146
5.61 -0.151844
5.62 -0.151196
5.63 -0.150193
5.64 -0.148801
5.65 -0.147061
5.66 -0.144987
5.67 -0.142588
5.68 -0.139874
5.69 -0.13685
5.7 -0.1335
5.71 -0.129806
5.72 -0.125775
5.73 -0.121382
5.74 -0.116597
5.75 -0.111381
5.76 -0.105692
5.77 -0.0994308
5.78 -0.0925856
5.79 -0.0851237
5.8 -0.077007
5.81 -0.0682051
5.82 -0.0586981
5.83 -0.0484552
5.84 -0.0374508
5.85 -0.0257728
5.86 -0.0134661
5.87 -0.00059259
5.88 0.0127689
5.89 0.0265244
5.9 0.0405802
5.91 0.0547855
5.92 0.0690032
5.93 0.0831011
5.94 0.096947
5.95 0.110413
5.96 0.123364
5.97 0.135634
5.98 0.147184
5.99 0.157942
6 0.167857
6.01 0.176901
6.02 0.185067
6.03 0.19231
6.04 0.198707
6.05 0.204355
6.06 0.209336
6.07 0.213742
6.08 0.217676
6.09 0.221244
6.1 0.224542
6.11 0.22771
6.12 0.230842
6.13 0.234018
6.14 0.2373
6.15 0.240733
6.16 0.244347
6.17 0.248132
6.18 0.252046
6.19 0.25603
6.2 0.260003
6.21 0.263865
6.22 0.267499
6.23 0.270715
6.24 0.273404
6.25 0.27542
6.26 0.276623
6.27 0.27688
6.28 0.276067
6.29 0.274012
6.3 0.270607
6.31 0.265871
6.32 0.259777
6.33 0.252324
6.34 0.24354
6.35 0.233478
6.36 0.222107
6.37 0.209658
6.38 0.196276
6.39 0.182109
6.4 0.167315
6.41 0.152061
6.42 0.136507
6.43 0.120837
6.44 0.105225
6.45 0.0898108
6.46 0.0747179
6.47 0.0600495
6.48 0.0458866
6.49 0.0323431
6.5 0.01941
6.51 0.00707653
6.52 -0.00467786
6.53 -0.0158944
6.54 -0.0266319
6.55 -0.036954
6.56 -0.0469391
6.57 -0.0567125
6.58 -0.0663667
6.59 -0.0759908
6.6 -0.085667
6.61 -0.0954668
6.62 -0.105467
6.63 -0.1157
6.64 -0.126179
6.65 -0.1369
6.66 -0.147841
6.67 -0.15896
6.68 -0.170196
6.69 -0.181463
6.7 -0.192655
6.71 -0.203665
6.72 -0.214381
6.73 -0.224683
6.74 -0.234452
6.75 -0.243517
6.76 -0.251769
6.77 -0.259139
6.78 -0.265537
6.79 -0.270888
6.8 -0.275131
6.81 -0.27821
6.82 -0.279973
6.83 -0.280533
6.84 -0.279893
6.85 -0.278065
6.86 -0.275072
6.87 -0.270947
6.88 -0.265661
6.89 -0.259269
6.9 -0.251874
6.91 -0.243516
6.92 -0.234234
6.93 -0.22406
6.94 -0.213023
6.95 -0.201051
6.96 -0.188251
6.97 -0.174634
6.98 -0.160201
6.99 -0.144951
7 -0.128877
7.01 -0.111931
7.02 -0.0940934
7.03 -0.0754159
7.04 -0.0559011
7.05 -0.0355578
7.06 -0.0144032
7.07 0.00753607
7.08 0.030295
7.09 0.0537507
7.1 0.0778294
7.11 0.102456
7.12 0.127545
7.13 0.153001
7.14 0.178723
7.15 0.204589
7.16 0.230461
7.17 0.256215
7.18 0.281729
7.19 0.306878
7.2 0.331541
7.21 0.355535
7.22 0.378776
7.23 0.401177
7.24 0.422643
7.25 0.443085
7.26 0.462428
7.27 0.480565
7.28 0.497354
7.29 0.51285
7.3 0.527009
7.31 0.539791
7.32 0.551166
7.33 0.561103
7.34 0.569459
7.35 0.576272
7.36 0.581575
7.37 0.585348
7.38 0.587571
7.39 0.588228
7.4 0.587273
7.41 0.584556
7.42 0.580222
7.43 0.574263
7.44 0.566672
7.45 0.55745
7.46 0.546603
7.47 0.534036
7.48 0.519813
7.49 0.504047
7.5 0.486786
7.51 0.468091
7.52 0.448032
7.53 0.426688
7.54 0.404045
7.55 0.380354
7.56 0.355738
7.57 0.33033
7.58 0.304271
7.59 0.277708
7.6 0.250784
7.61 0.22368
7.62 0.196575
7.63 0.169625
7.64 0.142984
7.65 0.116803
7.66 0.0912245
7.67 0.0664801
7.68 0.0426271
7.69 0.0197733
7.7 -0.00198164
7.71 -0.0225508
7.72 -0.0418604
7.73 -0.0597849
7.74 -0.0762435
7.75 -0.0912988
7.76 -0.104935
7.77 -0.117147
7.78 -0.127945
7.79 -0.137347
7.8 -0.14525
7.81 -0.151815
7.82 -0.157114
7.83 -0.161205
7.84 -0.164153
7.85 -0.166027
7.86 -0.166868
7.87 -0.166723
7.88 -0.165753
7.89 -0.164039
7.9 -0.161662
7.91 -0.158705
7.92 -0.155244
7.93 -0.151328
7.94 -0.147062
7.95 -0.142526
7.96 -0.137784
7.97 -0.132891
7.98 -0.127899
7.99 -0.122852
8 -0.11779
8.01 -0.112746
8.02 -0.107741
8.03 -0.102792
8.04 -0.0979057
8.05 -0.0930867
8.06 -0.0883381
8.07 -0.0836503
8.08 -0.0790117
8.09 -0.0744114
8.1 -0.0698379
8.11 -0.0652805
8.12 -0.0607299
8.13 -0.0561793
8.14 -0.0516263
8.15 -0.0470738
8.16 -0.0425295
8.17 -0.0380068
8.18 -0.0335243
8.19 -0.0291124
8.2 -0.0248037
8.21 -0.020629
8.22 -0.0166253
8.23 -0.0128317
8.24 -0.00928774
8.25 -0.00603332
8.26 -0.00314468
8.27 -0.000619629
8.28 0.00151594
8.29 0.00324295
8.3 0.00455019
8.31 0.00543519
8.32 0.00588231
8.33 0.0059103
8.34 0.00557276
8.35 0.004907
8.36 0.0039584
8.37 0.00277913
8.38 0.00142675
8.39 -4.28299e-05
8.4 -0.00154903
8.41 -0.00302903
8.42 -0.004424
8.43 -0.00568031
8.44 -0.00675158
8.45 -0.00758909
8.46 -0.00815741
8.47 -0.00846165
8.48 -0.00850355
8.49 -0.0082982
8.5 -0.00787397
8.51 -0.00727199
8.52 -0.00653931
8.53 -0.0057581
8.54 -0.0050047
8.55 -0.00435916
8.56 -0.00390503
8.57 -0.00372687
8.58 -0.00392274
8.59 -0.00460253
8.6 -0.0058047
8.61 -0.00758883
8.62 -0.0100027
8.63 -0.0130806
8.64 -0.0168425
8.65 -0.0213516
8.66 -0.0265531
8.67 -0.0323958
8.68 -0.0388346
8.69 -0.0458113
8.7 -0.0532569
8.71 -0.0610996
8.72 -0.069264
8.73 -0.0776246
8.74 -0.0860905
8.75 -0.0945727
8.76 -0.102986
8.77 -0.111254
8.78 -0.119285
8.79 -0.127023
8.8 -0.134435
8.81 -0.14149
8.82 -0.148173
8.83 -0.154478
8.84 -0.160413
8.85 -0.165967
8.86 -0.171212
8.87 -0.176188
8.88 -0.180939
8.89 -0.185515
8.9 -0.189964
8.91 -0.194331
8.92 -0.198666
8.93 -0.203008
8.94 -0.207385
8.95 -0.211813
8.96 -0.216303
8.97 -0.220849
8.98 -0.225442
8.99 -0.230046
9 -0.234627
9.01 -0.239141
9.02 -0.243536
9.03 -0.247758
9.04 -0.251734
9.05 -0.255395
9.06 -0.258702
9.07 -0.261604
9.08 -0.264057
9.09 -0.266026
9.1 -0.267485
9.11 -0.26836
9.12 -0.268701
9.13 -0.268523
9.14 -0.267845
9.15 -0.266701
9.16 -0.265129
9.17 -0.263166
9.18 -0.260864
9.19 -0.258312
9.2 -0.255572
9.21 -0.252705
9.22 -0.249773
9.23 -0.246832
9.24 -0.243941
9.25 -0.241146
9.26 -0.238477
9.27 -0.23596
9.28 -0.23361
9.29 -0.231432
9.3 -0.229427
9.31 -0.227588
9.32 -0.225879
9.33 -0.224272
9.34 -0.222734
9.35 -0.221228
9.36 -0.219719
9.37 -0.21816
9.38 -0.216515
9.39 -0.214753
9.4 -0.212846
9.41 -0.21077
9.42 -0.20851
9.43 -0.20605
9.44 -0.20337
9.45 -0.200491
9.46 -0.197419
9.47 -0.194167
9.48 -0.190747
9.49 -0.187174
9.5 -0.183456
9.51 -0.179612
9.52 -0.175659
9.53 -0.171603
9.54 -0.167446
9.55 -0.163184
9.56 -0.158802
9.57 -0.154266
9.58 -0.149562
9.59 -0.144653
9.6 -0.1395
9.61 -0.134055
9.62 -0.128268
9.63 -0.122056
9.64 -0.115359
9.65 -0.108143
9.66 -0.100357
9.67 -0.0919504
9.68 -0.082881
9.69 -0.0731127
9.7 -0.0625316
9.71 -0.0512028
9.72 -0.0391227
9.73 -0.0262978
9.74 -0.0127461
9.75 0.00150334
9.76 0.0164411
9.77 0.032016
9.78 0.0481226
9.79 0.0646898
9.8 0.08164
9.81 0.09889
9.82 0.116353
9.83 0.133942
9.84 0.151548
9.85 0.169079
9.86 0.186449
9.87 0.203576
9.88 0.220382
9.89 0.236777
9.9 0.252671
9.91 0.268039
9.92 0.282833
9.93 0.297012
9.94 0.310543
9.95 0.323401
9.96 0.335501
9.97 0.346879
9.98 0.357546
9.99 0.367502
10 0.376754
10.01 0.385308
10.02 0.393158
10.03 0.40028
10.04 0.406751
10.05 0.412589
10.06 0.417813
10.07 0.422443
10.08 0.426499
10.09 0.429958
10.1 0.432868
10.11 0.435269
10.12 0.437183
10.13 0.438629
10.14 0.43963
10.15 0.440199
10.16 0.440328
10.17 0.440081
10.18 0.439481
10.19 0.438552
10.2 0.437318
10.21 0.435803
10.22 0.434017
10.23 0.431995
10.24 0.429774
10.25 0.427381
10.26 0.424842
10.27 0.422182
10.28 0.419424
10.29 0.416589
10.3 0.413707
10.31 0.4108
10.32 0.407884
10.33 0.404976
10.34 0.402088
10.35 0.399231
10.36 0.39641
10.37 0.393624
10.38 0.390867
10.39 0.388132
10.4 0.385402
10.41 0.382659
10.42 0.379869
10.43 0.377001
10.44 0.374019
10.45 0.370879
10.46 0.367534
10.47 0.363934
10.48 0.360004
10.49 0.355671
10.5 0.350897
10.51 0.345621
10.52 0.339782
10.53 0.333323
10.54 0.32619
10.55 0.318252
10.56 0.309526
10.57 0.299986
10.58 0.289606
10.59 0.27837
10.6 0.266272
10.61 0.253285
10.62 0.239396
10.63 0.224705
10.64 0.209257
10.65 0.193108
10.66 0.176326
10.67 0.158986
10.68 0.141141
10.69 0.122924
10.7 0.104447
10.71 0.0858112
10.72 0.0671184
10.73 0.0484693
10.74 0.0299674
10.75 0.0117297
10.76 -0.00617669
10.77 -0.0236807
10.78 -0.0407225
10.79 -0.0572546
10.8 -0.0732433
10.81 -0.088623
10.82 -0.103413
10.83 -0.117646
10.84 -0.131346
10.85 -0.144548
10.86 -0.157299
10.87 -0.169646
10.88 -0.18163
10.89 -0.193356
10.9 -0.204889
10.91 -0.216296
10.92 -0.227639
10.93 -0.238974
10.94 -0.250357
10.95 -0.261831
10.96 -0.27342
10.97 -0.285139
10.98 -0.29699
10.99 -0.308963
11 -0.321035
11.01 -0.333172
11.02 -0.345315
11.03 -0.357404
11.04 -0.369374
11.05 -0.381152
11.06 -0.392661
11.07 -0.403796
11.08 -0.414464
11.09 -0.42461
11.1 -0.43416
11.11 -0.443045
11.12 -0.451205
11.13 -0.458586
11.14 -0.465048
11.15 -0.47064
11.16 -0.475342
11.17 -0.479141
11.18 -0.482031
11.19 -0.484014
11.2 -0.485058
11.21 -0.485161
11.22 -0.484406
11.23 -0.48282
11.24 -0.480428
11.25 -0.477259
11.26 -0.473341
11.27 -0.468631
11.28 -0.463218
11.29 -0.457136
11.3 -0.450407
11.31 -0.443049
11.32 -0.435077
11.33 -0.426487
11.34 -0.417266
11.35 -0.407474
11.36 -0.397126
11.37 -0.386235
11.38 -0.374816
11.39 -0.36289
11.4 -0.350435
11.41 -0.337511
11.42 -0.324163
11.43 -0.310423
11.44 -0.296331
11.45 -0.281928
11.46 -0.267256
11.47 -0.252354
11.48 -0.237296
11.49 -0.222133
11.5 -0.206917
11.51 -0.191697
11.52 -0.176521
11.53 -0.161445
11.54 -0.146512
11.55 -0.131755
11.56 -0.117205
11.57 -0.102889
11.58 -0.0888302
11.59 -0.0750485
11.6 -0.0615848
11.61 -0.048419
11.62 -0.0355569
11.63 -0.0230024
11.64 -0.0107586
11.65 0.00117175
11.66 0.012764
11.67 0.0240167
11.68 0.0349383
11.69 0.0455179
11.7 0.0557417
11.71 0.0655927
11.72 0.07505
11.73 0.084041
11.74 0.0925861
11.75 0.100659
11.76 0.108233
11.77 0.115283
11.78 0.121785
11.79 0.127688
11.8 0.132969
11.81 0.137655
11.82 0.141744
11.83 0.145241
11.84 0.148158
11.85 0.150513
11.86 0.152281
11.87 0.153551
11.88 0.15437
11.89 0.154782
11.9 0.154835
11.91 0.154579
11.92 0.154052
11.93 0.153303
11.94 0.152388
11.95 0.151343
11.96 0.150193
11.97 0.148954
11.98 0.147631
11.99 0.146206
12 0.144664
12.01 0.142971
12.02 0.141082
12.03 0.138938
12.04 0.136473
12.05 0.133597
12.06 0.130194
12.07 0.126213
12.08 0.121571
12.09 0.116184
12.1 0.109978
12.11 0.102882
12.12 0.0947529
12.13 0.0855939
12.14 0.0754083
12.15 0.0641862
12.16 0.0519357
12.17 0.0386834
