# xPDFsuite Configuration #
[PDF]
wavelength = 0.1
dataformat = QA
inputfile = BiMsol6_insitu_700 C-00107.xy
backgroundfile = Quartz2mm-dist500-00000.xy
mode = xray
bgscale = 0.0042
composition = Bi2Fe4O9
outputtype = gr
qmaxinst = 24.998449118
qmin = 0.1
qmax = 21.4986662415
rmax = 80.0
rmin = 0.0
rstep = 0.01
rpoly = 0.9

[Misc]
inputdir = C:/Data/Seafile/CPH/Beamtime/Desy Oct 20/In situ data/Processed/BiMsol6/PDF
savedir = C:/Data/Seafile/CPH/Beamtime/Desy Oct 20/In situ data/PDF/BiMsol6
backgroundfilefull = C:/Data/Seafile/CPH/Beamtime/Desy Oct 20/In situ data/Processed/Standard_Empty_Cap/Quartz2mm-dist500-00000.xy

#### start data
#S 1
#L r($\AA$)  G($\AA^{-2}$)
0 0
0.01 0.00691629
0.02 0.0134486
0.03 0.0192683
0.04 0.0240801
0.05 0.027636
0.06 0.0297464
0.07 0.0302033
0.08 0.0289445
0.09 0.0261204
0.1 0.0218536
0.11 0.0163356
0.12 0.00981864
0.13 0.00260385
0.14 -0.00497155
0.15 -0.0124776
0.16 -0.0195523
0.17 -0.0258551
0.18 -0.03108
0.19 -0.03497
0.2 -0.0372602
0.21 -0.037767
0.22 -0.0365877
0.23 -0.0337859
0.24 -0.0295075
0.25 -0.023976
0.26 -0.0174837
0.27 -0.0103602
0.28 -0.00309256
0.29 0.00388675
0.3 0.0101574
0.31 0.0153185
0.32 0.0190082
0.33 0.0208598
0.34 0.0205129
0.35 0.0180112
0.36 0.0133429
0.37 0.00660423
0.38 -0.00199913
0.39 -0.0121548
0.4 -0.0235033
0.41 -0.0354107
0.42 -0.0472536
0.43 -0.0583995
0.44 -0.0681929
0.45 -0.0759804
0.46 -0.0810718
0.47 -0.0825815
0.48 -0.080309
0.49 -0.0738932
0.5 -0.0630992
0.51 -0.0478323
0.52 -0.0281487
0.53 -0.00398287
0.54 0.0241001
0.55 0.0553567
0.56 0.0890941
0.57 0.124503
0.58 0.16068
0.59 0.19664
0.6 0.231126
0.61 0.263166
0.62 0.291776
0.63 0.31604
0.64 0.335136
0.65 0.348362
0.66 0.354744
0.67 0.353903
0.68 0.346041
0.69 0.331192
0.7 0.309578
0.71 0.281605
0.72 0.247855
0.73 0.208585
0.74 0.165337
0.75 0.119127
0.76 0.0710263
0.77 0.0221423
0.78 -0.0264138
0.79 -0.0734352
0.8 -0.117724
0.81 -0.15849
0.82 -0.194964
0.83 -0.226522
0.84 -0.252701
0.85 -0.273211
0.86 -0.287347
0.87 -0.295728
0.88 -0.298707
0.89 -0.296707
0.9 -0.290284
0.91 -0.280101
0.92 -0.266823
0.93 -0.251286
0.94 -0.234549
0.95 -0.217432
0.96 -0.200719
0.97 -0.185133
0.98 -0.171309
0.99 -0.160031
1 -0.151587
1.01 -0.14617
1.02 -0.143902
1.03 -0.144773
1.04 -0.148654
1.05 -0.155368
1.06 -0.164666
1.07 -0.175869
1.08 -0.188485
1.09 -0.201994
1.1 -0.215864
1.11 -0.229579
1.12 -0.242563
1.13 -0.254368
1.14 -0.264673
1.15 -0.273212
1.16 -0.279812
1.17 -0.284388
1.18 -0.286916
1.19 -0.287355
1.2 -0.2861
1.21 -0.28341
1.22 -0.279594
1.23 -0.274996
1.24 -0.269974
1.25 -0.26491
1.26 -0.260192
1.27 -0.25612
1.28 -0.252942
1.29 -0.250848
1.3 -0.249957
1.31 -0.250327
1.32 -0.252048
1.33 -0.254867
1.34 -0.258606
1.35 -0.263032
1.36 -0.267872
1.37 -0.272823
1.38 -0.277536
1.39 -0.281647
1.4 -0.284881
1.41 -0.286981
1.42 -0.287737
1.43 -0.287001
1.44 -0.284687
1.45 -0.280611
1.46 -0.275026
1.47 -0.268091
1.48 -0.260023
1.49 -0.2511
1.5 -0.241641
1.51 -0.232013
1.52 -0.222652
1.53 -0.213941
1.54 -0.206239
1.55 -0.199871
1.56 -0.195114
1.57 -0.192188
1.58 -0.191446
1.59 -0.192784
1.6 -0.196132
1.61 -0.20137
1.62 -0.208298
1.63 -0.21664
1.64 -0.226078
1.65 -0.236183
1.66 -0.24643
1.67 -0.256356
1.68 -0.265494
1.69 -0.273393
1.7 -0.279632
1.71 -0.283627
1.72 -0.285167
1.73 -0.284092
1.74 -0.280269
1.75 -0.273654
1.76 -0.264294
1.77 -0.252265
1.78 -0.237671
1.79 -0.221067
1.8 -0.202832
1.81 -0.183397
1.82 -0.163222
1.83 -0.142786
1.84 -0.122625
1.85 -0.103245
1.86 -0.0850523
1.87 -0.0684094
1.88 -0.0536156
1.89 -0.0408965
1.9 -0.030431
1.91 -0.0224772
1.92 -0.0167596
1.93 -0.0131525
1.94 -0.0114575
1.95 -0.0114132
1.96 -0.0127066
1.97 -0.0150277
1.98 -0.0179291
1.99 -0.0209861
2 -0.0238341
2.01 -0.0261371
2.02 -0.0276017
2.03 -0.0279839
2.04 -0.0269588
2.05 -0.0245707
2.06 -0.0208128
2.07 -0.0157544
2.08 -0.0095387
2.09 -0.00237645
2.1 0.00548068
2.11 0.0136581
2.12 0.0217536
2.13 0.0293846
2.14 0.0361653
2.15 0.0417215
2.16 0.0457045
2.17 0.0475709
2.18 0.0472422
2.19 0.0445565
2.2 0.0394093
2.21 0.0317717
2.22 0.0216922
2.23 0.00919977
2.24 -0.00552466
2.25 -0.0220377
2.26 -0.0400063
2.27 -0.0590553
2.28 -0.0787799
2.29 -0.0987593
2.3 -0.118513
2.31 -0.137602
2.32 -0.155654
2.33 -0.172335
2.34 -0.187361
2.35 -0.200507
2.36 -0.211538
2.37 -0.220258
2.38 -0.226835
2.39 -0.231331
2.4 -0.233873
2.41 -0.234642
2.42 -0.233869
2.43 -0.231734
2.44 -0.228645
2.45 -0.224949
2.46 -0.220957
2.47 -0.21697
2.48 -0.213266
2.49 -0.210111
2.5 -0.207792
2.51 -0.206407
2.52 -0.206061
2.53 -0.20681
2.54 -0.208657
2.55 -0.211562
2.56 -0.215503
2.57 -0.220299
2.58 -0.225751
2.59 -0.231677
2.6 -0.237882
2.61 -0.24417
2.62 -0.250342
2.63 -0.256169
2.64 -0.26151
2.65 -0.266234
2.66 -0.270241
2.67 -0.273461
2.68 -0.275857
2.69 -0.277375
2.7 -0.27806
2.71 -0.278018
2.72 -0.277331
2.73 -0.276098
2.74 -0.27443
2.75 -0.27244
2.76 -0.270229
2.77 -0.267934
2.78 -0.265644
2.79 -0.263429
2.8 -0.261339
2.81 -0.259402
2.82 -0.257626
2.83 -0.255989
2.84 -0.254432
2.85 -0.252892
2.86 -0.251289
2.87 -0.249534
2.88 -0.247536
2.89 -0.245154
2.9 -0.242326
2.91 -0.238983
2.92 -0.235065
2.93 -0.230533
2.94 -0.225369
2.95 -0.219551
2.96 -0.213096
2.97 -0.206106
2.98 -0.198658
2.99 -0.190844
3 -0.182769
3.01 -0.17455
3.02 -0.166311
3.03 -0.158186
3.04 -0.15028
3.05 -0.142689
3.06 -0.135489
3.07 -0.128736
3.08 -0.122478
3.09 -0.116743
3.1 -0.111464
3.11 -0.106587
3.12 -0.102035
3.13 -0.097708
3.14 -0.0934904
3.15 -0.089237
3.16 -0.0847909
3.17 -0.0800104
3.18 -0.0747558
3.19 -0.0688959
3.2 -0.062313
3.21 -0.0548881
3.22 -0.0464677
3.23 -0.0370854
3.24 -0.0267203
3.25 -0.0153782
3.26 -0.00309145
3.27 0.0100832
3.28 0.0241187
3.29 0.038876
3.3 0.054204
3.31 0.0699774
3.32 0.0860664
3.33 0.102342
3.34 0.118679
3.35 0.134945
3.36 0.15104
3.37 0.166884
3.38 0.182416
3.39 0.197597
3.4 0.212407
3.41 0.226824
3.42 0.240876
3.43 0.254621
3.44 0.268107
3.45 0.281392
3.46 0.294537
3.47 0.307601
3.48 0.320641
3.49 0.333707
3.5 0.346826
3.51 0.360009
3.52 0.37325
3.53 0.38652
3.54 0.399766
3.55 0.412902
3.56 0.425839
3.57 0.438467
3.58 0.450662
3.59 0.462293
3.6 0.473222
3.61 0.483209
3.62 0.492181
3.63 0.500026
3.64 0.50663
3.65 0.511898
3.66 0.515754
3.67 0.518082
3.68 0.518796
3.69 0.518007
3.7 0.515737
3.71 0.512032
3.72 0.506957
3.73 0.500594
3.74 0.492942
3.75 0.484208
3.76 0.47454
3.77 0.464062
3.78 0.452895
3.79 0.441161
3.8 0.428962
3.81 0.416396
3.82 0.403591
3.83 0.390628
3.84 0.377572
3.85 0.364477
3.86 0.351386
3.87 0.338337
3.88 0.325352
3.89 0.312445
3.9 0.299628
3.91 0.286909
3.92 0.274298
3.93 0.261808
3.94 0.249467
3.95 0.237284
3.96 0.225282
3.97 0.213494
3.98 0.201953
3.99 0.190698
4 0.179796
4.01 0.169285
4.02 0.159186
4.03 0.149533
4.04 0.140353
4.05 0.131661
4.06 0.123469
4.07 0.115818
4.08 0.108631
4.09 0.101873
4.1 0.0954934
4.11 0.0894325
4.12 0.0836189
4.13 0.0779777
4.14 0.0724102
4.15 0.0668203
4.16 0.0611234
4.17 0.0552402
4.18 0.0491007
4.19 0.0426473
4.2 0.0357946
4.21 0.0285585
4.22 0.0209413
4.23 0.0129647
4.24 0.00467137
4.25 -0.00387604
4.26 -0.0125996
4.27 -0.0213867
4.28 -0.0301132
4.29 -0.0386576
4.3 -0.0468949
4.31 -0.0547011
4.32 -0.0619576
4.33 -0.0684796
4.34 -0.0742245
4.35 -0.0791336
4.36 -0.0831614
4.37 -0.0862874
4.38 -0.088518
4.39 -0.0898565
4.4 -0.0903427
4.41 -0.090136
4.42 -0.0893504
4.43 -0.0881175
4.44 -0.0865828
4.45 -0.0849003
4.46 -0.0832429
4.47 -0.0817822
4.48 -0.0806614
4.49 -0.0800095
4.5 -0.0799359
4.51 -0.0805266
4.52 -0.0818608
4.53 -0.0840153
4.54 -0.0869147
4.55 -0.0905189
4.56 -0.0947584
4.57 -0.0995371
4.58 -0.104736
4.59 -0.110225
4.6 -0.115817
4.61 -0.121341
4.62 -0.126632
4.63 -0.131531
4.64 -0.13589
4.65 -0.139565
4.66 -0.142366
4.67 -0.144287
4.68 -0.145277
4.69 -0.145319
4.7 -0.144425
4.71 -0.142641
4.72 -0.13999
4.73 -0.136608
4.74 -0.132665
4.75 -0.128306
4.76 -0.12369
4.77 -0.118983
4.78 -0.114353
4.79 -0.110004
4.8 -0.106071
4.81 -0.102685
4.82 -0.0999539
4.83 -0.0979626
4.84 -0.096769
4.85 -0.0964506
4.86 -0.0970053
4.87 -0.0983494
4.88 -0.100423
4.89 -0.103144
4.9 -0.106412
4.91 -0.11011
4.92 -0.114132
4.93 -0.118303
4.94 -0.122491
4.95 -0.126573
4.96 -0.130436
4.97 -0.133982
4.98 -0.137109
4.99 -0.139741
5 -0.141872
5.01 -0.143491
5.02 -0.14461
5.03 -0.145258
5.04 -0.145483
5.05 -0.145321
5.06 -0.144884
5.07 -0.144263
5.08 -0.143542
5.09 -0.142808
5.1 -0.142138
5.11 -0.141609
5.12 -0.141297
5.13 -0.141229
5.14 -0.141429
5.15 -0.141905
5.16 -0.142647
5.17 -0.14363
5.18 -0.144828
5.19 -0.146166
5.2 -0.147577
5.21 -0.14899
5.22 -0.150332
5.23 -0.151534
5.24 -0.152522
5.25 -0.15321
5.26 -0.153573
5.27 -0.153577
5.28 -0.153202
5.29 -0.152443
5.3 -0.151311
5.31 -0.149804
5.32 -0.147979
5.33 -0.145902
5.34 -0.143629
5.35 -0.141226
5.36 -0.138756
5.37 -0.136286
5.38 -0.133888
5.39 -0.131612
5.4 -0.129499
5.41 -0.127578
5.42 -0.125864
5.43 -0.124359
5.44 -0.123063
5.45 -0.121941
5.46 -0.120942
5.47 -0.120016
5.48 -0.119104
5.49 -0.118147
5.5 -0.117078
5.51 -0.115813
5.52 -0.114309
5.53 -0.112522
5.54 -0.110416
5.55 -0.107971
5.56 -0.105179
5.57 -0.10203
5.58 -0.098553
5.59 -0.0948093
5.6 -0.0908539
5.61 -0.0867518
5.62 -0.0825759
5.63 -0.0784042
5.64 -0.0743335
5.65 -0.0704394
5.66 -0.0667905
5.67 -0.0634462
5.68 -0.0604531
5.69 -0.0578427
5.7 -0.0556467
5.71 -0.053869
5.72 -0.0524532
5.73 -0.0513539
5.74 -0.0505091
5.75 -0.0498431
5.76 -0.0492682
5.77 -0.0486787
5.78 -0.0479638
5.79 -0.0470247
5.8 -0.0457676
5.81 -0.0441081
5.82 -0.0419749
5.83 -0.0392943
5.84 -0.0359996
5.85 -0.0321278
5.86 -0.027693
5.87 -0.022732
5.88 -0.0173032
5.89 -0.0114852
5.9 -0.00535855
5.91 0.000934809
5.92 0.00726404
5.93 0.0135028
5.94 0.0195252
5.95 0.0252108
5.96 0.0304375
5.97 0.0350599
5.98 0.0390517
5.99 0.0423648
6 0.0449763
6.01 0.0468898
6.02 0.0481359
6.03 0.0487315
6.04 0.0487931
6.05 0.0484544
6.06 0.0478408
6.07 0.0470904
6.08 0.0463489
6.09 0.0457676
6.1 0.0455367
6.11 0.0457687
6.12 0.0465803
6.13 0.0480679
6.14 0.0503038
6.15 0.0533331
6.16 0.0572221
6.17 0.0619402
6.18 0.0673907
6.19 0.0734912
6.2 0.0801333
6.21 0.0871857
6.22 0.0944987
6.23 0.101901
6.24 0.109192
6.25 0.116201
6.26 0.122761
6.27 0.128717
6.28 0.133929
6.29 0.138231
6.3 0.14151
6.31 0.143768
6.32 0.144983
6.33 0.145162
6.34 0.144346
6.35 0.142603
6.36 0.139956
6.37 0.13662
6.38 0.132748
6.39 0.128497
6.4 0.124029
6.41 0.119511
6.42 0.115113
6.43 0.111016
6.44 0.107338
6.45 0.104191
6.46 0.10166
6.47 0.0998027
6.48 0.0986511
6.49 0.098271
6.5 0.0985765
6.51 0.0994914
6.52 0.100932
6.53 0.102795
6.54 0.10496
6.55 0.1073
6.56 0.10966
6.57 0.111893
6.58 0.113867
6.59 0.115464
6.6 0.116578
6.61 0.117123
6.62 0.116977
6.63 0.116128
6.64 0.114587
6.65 0.112366
6.66 0.109504
6.67 0.106058
6.68 0.102098
6.69 0.0976982
6.7 0.0930151
6.71 0.0881629
6.72 0.0832586
6.73 0.0784173
6.74 0.0737478
6.75 0.0693756
6.76 0.0653886
6.77 0.0618395
6.78 0.0587752
6.79 0.0562231
6.8 0.0541911
6.81 0.0526717
6.82 0.0516773
6.83 0.0511028
6.84 0.0508849
6.85 0.0509499
6.86 0.0512176
6.87 0.0516038
6.88 0.0520213
6.89 0.0523777
6.9 0.0525994
6.91 0.0526239
6.92 0.0524003
6.93 0.0518912
6.94 0.051073
6.95 0.0499012
6.96 0.0484197
6.97 0.0466514
6.98 0.0446293
6.99 0.0423959
7 0.0400002
7.01 0.0374933
7.02 0.0349376
7.03 0.032393
7.04 0.029908
7.05 0.027525
7.06 0.0252775
7.07 0.0231893
7.08 0.021291
7.09 0.0195667
7.1 0.0180011
7.11 0.016571
7.12 0.0152442
7.13 0.0139811
7.14 0.0127352
7.15 0.0114501
7.16 0.0100764
7.17 0.00856798
7.18 0.00688376
7.19 0.0049897
7.2 0.0028608
7.21 0.000459454
7.22 -0.00219818
7.23 -0.00509249
7.24 -0.00819763
7.25 -0.0114757
7.26 -0.0148779
7.27 -0.0183455
7.28 -0.0218028
7.29 -0.0251723
7.3 -0.0283789
7.31 -0.0313482
7.32 -0.0340087
7.33 -0.0362944
7.34 -0.0381084
7.35 -0.0394183
7.36 -0.0402081
7.37 -0.0404595
7.38 -0.0401691
7.39 -0.0393482
7.4 -0.0380154
7.41 -0.0361794
7.42 -0.033947
7.43 -0.0313862
7.44 -0.0285737
7.45 -0.0255931
7.46 -0.0225323
7.47 -0.0194878
7.48 -0.0165601
7.49 -0.0138317
7.5 -0.0113796
7.51 -0.00927197
7.52 -0.00756687
7.53 -0.00631322
7.54 -0.0055973
7.55 -0.00538419
7.56 -0.00567615
7.57 -0.00646214
7.58 -0.0077186
7.59 -0.00941052
7.6 -0.0115124
7.61 -0.013961
7.62 -0.0166722
7.63 -0.0195805
7.64 -0.0226181
7.65 -0.025717
7.66 -0.0288113
7.67 -0.0318243
7.68 -0.0347014
7.69 -0.037394
7.7 -0.0398609
7.71 -0.0420694
7.72 -0.0439957
7.73 -0.0456107
7.74 -0.0469026
7.75 -0.0478975
7.76 -0.0486083
7.77 -0.0490552
7.78 -0.0492644
7.79 -0.0492667
7.8 -0.0490837
7.81 -0.0487716
7.82 -0.0483721
7.83 -0.047924
7.84 -0.0474645
7.85 -0.047029
7.86 -0.0466525
7.87 -0.0463698
7.88 -0.0461976
7.89 -0.0461523
7.9 -0.0462446
7.91 -0.046479
7.92 -0.0468542
7.93 -0.0473737
7.94 -0.0480134
7.95 -0.04875
7.96 -0.0495587
7.97 -0.0504107
7.98 -0.0512738
7.99 -0.0521115
8 -0.0528782
8.01 -0.053539
8.02 -0.0540572
8.03 -0.0543974
8.04 -0.0545268
8.05 -0.0544164
8.06 -0.0540194
8.07 -0.0533264
8.08 -0.0523373
8.09 -0.051049
8.1 -0.0494665
8.11 -0.0476028
8.12 -0.045476
8.13 -0.0431004
8.14 -0.0405419
8.15 -0.0378473
8.16 -0.0350699
8.17 -0.0322678
8.18 -0.0295033
8.19 -0.026852
8.2 -0.0243865
8.21 -0.0221644
8.22 -0.0202451
8.23 -0.0186824
8.24 -0.017523
8.25 -0.0168062
8.26 -0.0166125
8.27 -0.016903
8.28 -0.0176765
8.29 -0.0189186
8.3 -0.0206012
8.31 -0.0226827
8.32 -0.0251245
8.33 -0.02785
8.34 -0.0307603
8.35 -0.0337692
8.36 -0.036785
8.37 -0.0397131
8.38 -0.0424582
8.39 -0.0448877
8.4 -0.0469344
8.41 -0.0485231
8.42 -0.0495871
8.43 -0.0500728
8.44 -0.049941
8.45 -0.0491395
8.46 -0.0476467
8.47 -0.0455249
8.48 -0.0428069
8.49 -0.0395415
8.5 -0.0357924
8.51 -0.0316359
8.52 -0.027137
8.53 -0.0224279
8.54 -0.0176151
8.55 -0.0128005
8.56 -0.00808402
8.57 -0.0035606
8.58 0.000670317
8.59 0.00450595
8.6 0.0079108
8.61 0.0108399
8.62 0.0132644
8.63 0.0151719
8.64 0.0165671
8.65 0.0174307
8.66 0.0178337
8.67 0.0178431
8.68 0.017522
8.69 0.0169418
8.7 0.0161793
8.71 0.0153132
8.72 0.0144306
8.73 0.0136137
8.74 0.0129295
8.75 0.0124359
8.76 0.0121793
8.77 0.0121938
8.78 0.0125222
8.79 0.0131586
8.8 0.0140789
8.81 0.0152581
8.82 0.0166592
8.83 0.0182352
8.84 0.0199315
8.85 0.0216851
8.86 0.0234205
8.87 0.0250745
8.88 0.0265868
8.89 0.0279031
8.9 0.028977
8.91 0.029752
8.92 0.0302049
8.93 0.0303415
8.94 0.0301655
8.95 0.0296937
8.96 0.0289549
8.97 0.0279885
8.98 0.0268297
8.99 0.0255615
9 0.024246
9.01 0.0229467
9.02 0.0217262
9.03 0.0206435
9.04 0.0197644
9.05 0.0191412
9.06 0.0187929
9.07 0.018739
9.08 0.0189864
9.09 0.0195289
9.1 0.0203476
9.11 0.0214327
9.12 0.0227125
9.13 0.0241307
9.14 0.0256275
9.15 0.0271387
9.16 0.0285987
9.17 0.0299353
9.18 0.0310742
9.19 0.0319727
9.2 0.0325877
9.21 0.0328869
9.22 0.0328504
9.23 0.0324713
9.24 0.031726
9.25 0.030664
9.26 0.0293282
9.27 0.027765
9.28 0.0260298
9.29 0.0241849
9.3 0.0222979
9.31 0.0204477
9.32 0.0187034
9.33 0.0171268
9.34 0.0157727
9.35 0.0146867
9.36 0.0139033
9.37 0.0134726
9.38 0.0133848
9.39 0.0136199
9.4 0.0141552
9.41 0.0149554
9.42 0.0159737
9.43 0.0171559
9.44 0.0184375
9.45 0.019735
9.46 0.0209786
9.47 0.0221002
9.48 0.0230361
9.49 0.0237296
9.5 0.0241094
9.51 0.0241455
9.52 0.0238317
9.53 0.0231628
9.54 0.0221482
9.55 0.0208114
9.56 0.0191869
9.57 0.0173074
9.58 0.0152642
9.59 0.0131256
9.6 0.0109644
9.61 0.0088553
9.62 0.00687153
9.63 0.0050986
9.64 0.00360535
9.65 0.00243063
9.66 0.00161247
9.67 0.00117539
9.68 0.00112944
9.69 0.00146972
9.7 0.00221486
9.71 0.00328341
9.72 0.00462482
9.73 0.00617871
9.74 0.00787656
9.75 0.00964438
9.76 0.011401
9.77 0.0130578
9.78 0.0145446
9.79 0.015797
9.8 0.01676
9.81 0.0173905
9.82 0.0176587
9.83 0.0175101
9.84 0.0169825
9.85 0.0161006
9.86 0.0148986
9.87 0.0134244
9.88 0.0117372
9.89 0.00990298
9.9 0.00800612
9.91 0.0061366
9.92 0.00437423
9.93 0.00279577
9.94 0.00147205
9.95 0.000465253
9.96 -0.00013551
9.97 -0.00031598
9.98 -6.58121e-05
9.99 0.000618551
10 0.00172479
10.01 0.00322509
10.02 0.00508557
10.03 0.00725895
10.04 0.00964574
10.05 0.0121686
10.06 0.014745
10.07 0.0172899
10.08 0.019719
10.09 0.0219292
10.1 0.0238474
10.11 0.0254183
10.12 0.0265916
10.13 0.02733
10.14 0.0276109
10.15 0.0274188
10.16 0.0267278
10.17 0.0256107
10.18 0.0241079
10.19 0.0222715
10.2 0.0201636
10.21 0.0178537
10.22 0.0154133
10.23 0.0129334
10.24 0.0104956
10.25 0.00817202
10.26 0.00602884
10.27 0.0041239
10.28 0.00250731
10.29 0.00125153
10.3 0.000344481
10.31 -0.000206353
10.32 -0.00040623
10.33 -0.000272544
10.34 0.000166186
10.35 0.000884768
10.36 0.00182784
10.37 0.00292682
10.38 0.00412458
10.39 0.00536283
10.4 0.00658411
10.41 0.00773389
10.42 0.00874362
10.43 0.00958024
10.44 0.0102106
10.45 0.0106095
10.46 0.0107612
10.47 0.0106588
10.48 0.0102927
10.49 0.00967135
10.5 0.00883169
10.51 0.00779927
10.52 0.00660424
10.53 0.00527979
10.54 0.00386072
10.55 0.00237937
10.56 0.000877786
10.57 -0.000612905
10.58 -0.00206618
10.59 -0.00345998
10.6 -0.00477719
10.61 -0.00600219
10.62 -0.00712383
10.63 -0.00814833
10.64 -0.00907873
10.65 -0.00992131
10.66 -0.0106847
10.67 -0.0113788
10.68 -0.0120097
10.69 -0.0125919
10.7 -0.0131347
10.71 -0.0136436
10.72 -0.0141211
10.73 -0.0145667
10.74 -0.0149753
10.75 -0.015336
10.76 -0.0156416
10.77 -0.0158796
10.78 -0.0160364
10.79 -0.016098
10.8 -0.0160511
10.81 -0.0158737
10.82 -0.0155613
10.83 -0.0151141
10.84 -0.0145324
10.85 -0.0138215
10.86 -0.0129922
10.87 -0.0120596
10.88 -0.0110418
10.89 -0.0099765
10.9 -0.00889551
10.91 -0.00783353
10.92 -0.00682705
10.93 -0.00591307
10.94 -0.00513885
10.95 -0.00453967
10.96 -0.00413747
10.97 -0.00395506
10.98 -0.00400851
10.99 -0.00430622
11 -0.00484928
11.01 -0.00565227
11.02 -0.00666777
11.03 -0.00786737
11.04 -0.00921492
11.05 -0.0106676
11.06 -0.0121772
11.07 -0.0136885
11.08 -0.0151385
11.09 -0.0164731
11.1 -0.01764
11.11 -0.018591
11.12 -0.0192837
11.13 -0.019683
11.14 -0.0197253
11.15 -0.0194277
11.16 -0.0187894
11.17 -0.0178181
11.18 -0.0165327
11.19 -0.014962
11.2 -0.0131353
11.21 -0.0111022
11.22 -0.00893441
11.23 -0.00669092
11.24 -0.00443311
11.25 -0.00222258
11.26 -0.000119145
11.27 0.00179995
11.28 0.00349366
11.29 0.00492459
11.3 0.00606155
11.31 0.00688355
11.32 0.00738036
11.33 0.0075418
11.34 0.00736821
11.35 0.00691077
11.36 0.00620325
11.37 0.00528712
11.38 0.00420991
11.39 0.00302342
11.4 0.00178191
11.41 0.000549538
11.42 -0.000620419
11.43 -0.00168022
11.44 -0.00258797
11.45 -0.003309
11.46 -0.0038115
11.47 -0.00406179
11.48 -0.00407556
11.49 -0.00385804
11.5 -0.00342381
11.51 -0.00279602
11.52 -0.00200532
11.53 -0.00108216
11.54 -7.88585e-05
11.55 0.000955005
11.56 0.00197416
11.57 0.00293463
11.58 0.00379549
11.59 0.00451821
11.6 0.00505456
11.61 0.0053985
11.62 0.00553737
11.63 0.00546717
11.64 0.00519257
11.65 0.00472668
11.66 0.00408111
11.67 0.00329142
11.68 0.00240101
11.69 0.00144864
11.7 0.00047536
11.71 -0.000477207
11.72 -0.00136827
11.73 -0.00214477
11.74 -0.00278252
11.75 -0.00325524
11.76 -0.00354362
11.77 -0.00363601
11.78 -0.00352888
11.79 -0.00321697
11.8 -0.00271492
11.81 -0.00205693
11.82 -0.00127154
