# xPDFsuite Configuration #
[PDF]
wavelength = 0.1
dataformat = QA
inputfile = BiMsol6_insitu_700 C-00471.xy
backgroundfile = Quartz2mm-dist500-00000.xy
mode = xray
bgscale = 0.0042
composition = Bi2Fe4O9
outputtype = gr
qmaxinst = 24.998449118
qmin = 0.1
qmax = 21.4986662415
rmax = 80.0
rmin = 0.0
rstep = 0.01
rpoly = 0.9

[Misc]
inputdir = C:/Data/Seafile/CPH/Beamtime/Desy Oct 20/In situ data/Processed/BiMsol6/PDF
savedir = C:/Data/Seafile/CPH/Beamtime/Desy Oct 20/In situ data/PDF/BiMsol6
backgroundfilefull = C:/Data/Seafile/CPH/Beamtime/Desy Oct 20/In situ data/Processed/Standard_Empty_Cap/Quartz2mm-dist500-00000.xy

#### start data
#S 1
#L r($\AA$)  G($\AA^{-2}$)
0 0
0.01 0.00595161
0.02 0.0115625
0.03 0.0165413
0.04 0.0206268
0.05 0.0235998
0.06 0.0252941
0.07 0.0255281
0.08 0.0242506
0.09 0.0215982
0.1 0.0176843
0.11 0.0126832
0.12 0.00682307
0.13 0.00037513
0.14 -0.00635418
0.15 -0.0129845
0.16 -0.0191944
0.17 -0.0246832
0.18 -0.0291825
0.19 -0.0324694
0.2 -0.0343159
0.21 -0.0345698
0.22 -0.0333306
0.23 -0.0306681
0.24 -0.026726
0.25 -0.0217177
0.26 -0.0159177
0.27 -0.00964128
0.28 -0.00332924
0.29 0.00262582
0.3 0.00784342
0.31 0.0119639
0.32 0.0146661
0.33 0.0156262
0.34 0.0145303
0.35 0.011442
0.36 0.00637139
0.37 -0.000570953
0.38 -0.00917306
0.39 -0.0191247
0.4 -0.0300626
0.41 -0.0413846
0.42 -0.0525013
0.43 -0.0628134
0.44 -0.0717035
0.45 -0.0785585
0.46 -0.0827315
0.47 -0.0833874
0.48 -0.0803615
0.49 -0.0733261
0.5 -0.0620736
0.51 -0.0465292
0.52 -0.0267607
0.53 -0.0027192
0.54 0.0250451
0.55 0.0558159
0.56 0.0889274
0.57 0.123605
0.58 0.158987
0.59 0.194135
0.6 0.227852
0.61 0.259216
0.62 0.287295
0.63 0.311219
0.64 0.330206
0.65 0.343592
0.66 0.350445
0.67 0.350403
0.68 0.343653
0.69 0.330219
0.7 0.310304
0.71 0.284282
0.72 0.25269
0.73 0.215747
0.74 0.174911
0.75 0.131129
0.76 0.0854046
0.77 0.0387731
0.78 -0.00772353
0.79 -0.0529611
0.8 -0.0958154
0.81 -0.135528
0.82 -0.17137
0.83 -0.202745
0.84 -0.229207
0.85 -0.25047
0.86 -0.265861
0.87 -0.275932
0.88 -0.280991
0.89 -0.281412
0.9 -0.277692
0.91 -0.270428
0.92 -0.260215
0.93 -0.247811
0.94 -0.234185
0.95 -0.220089
0.96 -0.206239
0.97 -0.193295
0.98 -0.181841
0.99 -0.172587
1 -0.165807
1.01 -0.161688
1.02 -0.160346
1.03 -0.161781
1.04 -0.165882
1.05 -0.172495
1.06 -0.1814
1.07 -0.191992
1.08 -0.203836
1.09 -0.216466
1.1 -0.22941
1.11 -0.242208
1.12 -0.25435
1.13 -0.265438
1.14 -0.27519
1.15 -0.283375
1.16 -0.289843
1.17 -0.294525
1.18 -0.297405
1.19 -0.298455
1.2 -0.29803
1.21 -0.296363
1.22 -0.293734
1.23 -0.290445
1.24 -0.286817
1.25 -0.283185
1.26 -0.279885
1.27 -0.277172
1.28 -0.275255
1.29 -0.274287
1.3 -0.274357
1.31 -0.275498
1.32 -0.277764
1.33 -0.280915
1.34 -0.284777
1.35 -0.289127
1.36 -0.293709
1.37 -0.298243
1.38 -0.302405
1.39 -0.305869
1.4 -0.308404
1.41 -0.309789
1.42 -0.309854
1.43 -0.308483
1.44 -0.305622
1.45 -0.301131
1.46 -0.29527
1.47 -0.288212
1.48 -0.280182
1.49 -0.271455
1.5 -0.262343
1.51 -0.253205
1.52 -0.244454
1.53 -0.236437
1.54 -0.229482
1.55 -0.223881
1.56 -0.219876
1.57 -0.217651
1.58 -0.217517
1.59 -0.21934
1.6 -0.223027
1.61 -0.228438
1.62 -0.235358
1.63 -0.243502
1.64 -0.252546
1.65 -0.26206
1.66 -0.271551
1.67 -0.280577
1.68 -0.288698
1.69 -0.295498
1.7 -0.300591
1.71 -0.303436
1.72 -0.30387
1.73 -0.301774
1.74 -0.297056
1.75 -0.289707
1.76 -0.27981
1.77 -0.267475
1.78 -0.252847
1.79 -0.236475
1.8 -0.218745
1.81 -0.200086
1.82 -0.180952
1.83 -0.161807
1.84 -0.14318
1.85 -0.125536
1.86 -0.109238
1.87 -0.0946122
1.88 -0.0819158
1.89 -0.0713324
1.9 -0.062998
1.91 -0.0571203
1.92 -0.0533868
1.93 -0.0516373
1.94 -0.0516436
1.95 -0.0531199
1.96 -0.0557352
1.97 -0.0591532
1.98 -0.0629265
1.99 -0.0666451
2 -0.0699552
2.01 -0.0725382
2.02 -0.0741233
2.03 -0.0744937
2.04 -0.0733489
2.05 -0.0707821
2.06 -0.0668226
2.07 -0.0615756
2.08 -0.0552188
2.09 -0.0479957
2.1 -0.0401945
2.11 -0.0322179
2.12 -0.0244787
2.13 -0.017371
2.14 -0.0112853
2.15 -0.00659408
2.16 -0.00363679
2.17 -0.00295488
2.18 -0.00458688
2.19 -0.00866459
2.2 -0.0152592
2.21 -0.0243625
2.22 -0.0358867
2.23 -0.0497579
2.24 -0.0657465
2.25 -0.0833762
2.26 -0.10228
2.27 -0.122051
2.28 -0.142262
2.29 -0.162475
2.3 -0.182171
2.31 -0.200933
2.32 -0.218404
2.33 -0.234265
2.34 -0.248259
2.35 -0.260195
2.36 -0.269876
2.37 -0.277156
2.38 -0.282266
2.39 -0.285325
2.4 -0.286519
2.41 -0.286087
2.42 -0.284313
2.43 -0.28146
2.44 -0.277971
2.45 -0.274225
2.46 -0.270564
2.47 -0.267309
2.48 -0.264749
2.49 -0.26316
2.5 -0.262841
2.51 -0.263827
2.52 -0.266186
2.53 -0.269927
2.54 -0.275
2.55 -0.2813
2.56 -0.28874
2.57 -0.297054
2.58 -0.305962
2.59 -0.31521
2.6 -0.32453
2.61 -0.333658
2.62 -0.342332
2.63 -0.350227
2.64 -0.357199
2.65 -0.363087
2.66 -0.367774
2.67 -0.371185
2.68 -0.373293
2.69 -0.374034
2.7 -0.373499
2.71 -0.371863
2.72 -0.369263
2.73 -0.365861
2.74 -0.361834
2.75 -0.357369
2.76 -0.352644
2.77 -0.347881
2.78 -0.343238
2.79 -0.338852
2.8 -0.334829
2.81 -0.331247
2.82 -0.328176
2.83 -0.325627
2.84 -0.323538
2.85 -0.321847
2.86 -0.320468
2.87 -0.319292
2.88 -0.318195
2.89 -0.317025
2.9 -0.315637
2.91 -0.313901
2.92 -0.311695
2.93 -0.308916
2.94 -0.305475
2.95 -0.301277
2.96 -0.296256
2.97 -0.290456
2.98 -0.283894
2.99 -0.276605
3 -0.268643
3.01 -0.260077
3.02 -0.25094
3.03 -0.241364
3.04 -0.231437
3.05 -0.221229
3.06 -0.210797
3.07 -0.200183
3.08 -0.189398
3.09 -0.178429
3.1 -0.167254
3.11 -0.155816
3.12 -0.144035
3.13 -0.131812
3.14 -0.119034
3.15 -0.105506
3.16 -0.0911189
3.17 -0.0757692
3.18 -0.0593405
3.19 -0.0417326
3.2 -0.0228676
3.21 -0.00266787
3.22 0.0189817
3.23 0.0419254
3.24 0.0660947
3.25 0.0913813
3.26 0.117638
3.27 0.144678
3.28 0.172307
3.29 0.200219
3.3 0.228114
3.31 0.255698
3.32 0.282671
3.33 0.308733
3.34 0.333576
3.35 0.356748
3.36 0.378137
3.37 0.397527
3.38 0.414741
3.39 0.42964
3.4 0.442129
3.41 0.452004
3.42 0.459289
3.43 0.464169
3.44 0.466738
3.45 0.467126
3.46 0.465494
3.47 0.462031
3.48 0.456783
3.49 0.450182
3.5 0.442458
3.51 0.433839
3.52 0.424547
3.53 0.414789
3.54 0.40475
3.55 0.394622
3.56 0.38456
3.57 0.374676
3.58 0.36506
3.59 0.355775
3.6 0.346861
3.61 0.338378
3.62 0.330292
3.63 0.322582
3.64 0.315227
3.65 0.308199
3.66 0.301471
3.67 0.295031
3.68 0.288868
3.69 0.282957
3.7 0.277306
3.71 0.271933
3.72 0.266873
3.73 0.262169
3.74 0.257925
3.75 0.254187
3.76 0.251021
3.77 0.248505
3.78 0.246717
3.79 0.245735
3.8 0.245654
3.81 0.246596
3.82 0.248528
3.83 0.251477
3.84 0.255458
3.85 0.260463
3.86 0.266469
3.87 0.273508
3.88 0.281464
3.89 0.290226
3.9 0.2997
3.91 0.309784
3.92 0.320366
3.93 0.331332
3.94 0.342569
3.95 0.353922
3.96 0.365276
3.97 0.37652
3.98 0.387552
3.99 0.398279
4 0.408584
4.01 0.418394
4.02 0.427667
4.03 0.436352
4.04 0.444408
4.05 0.451799
4.06 0.45849
4.07 0.464381
4.08 0.469527
4.09 0.473908
4.1 0.477501
4.11 0.480284
4.12 0.482232
4.13 0.483263
4.14 0.483343
4.15 0.482489
4.16 0.480666
4.17 0.477838
4.18 0.473969
4.19 0.46903
4.2 0.462863
4.21 0.455568
4.22 0.447135
4.23 0.43756
4.24 0.426851
4.25 0.415024
4.26 0.402057
4.27 0.387977
4.28 0.372911
4.29 0.356922
4.3 0.340082
4.31 0.322467
4.32 0.304161
4.33 0.285196
4.34 0.265719
4.35 0.245824
4.36 0.225589
4.37 0.205088
4.38 0.184388
4.39 0.163542
4.4 0.1426
4.41 0.121611
4.42 0.1006
4.43 0.0795865
4.44 0.0585832
4.45 0.037596
4.46 0.0166291
4.47 -0.00431789
4.48 -0.0252438
4.49 -0.0461436
4.5 -0.0670074
4.51 -0.0878179
4.52 -0.108546
4.53 -0.129145
4.54 -0.149572
4.55 -0.169769
4.56 -0.189669
4.57 -0.209193
4.58 -0.228258
4.59 -0.246722
4.6 -0.264504
4.61 -0.281533
4.62 -0.29772
4.63 -0.312981
4.64 -0.327245
4.65 -0.340431
4.66 -0.352393
4.67 -0.363213
4.68 -0.372882
4.69 -0.381409
4.7 -0.388824
4.71 -0.395173
4.72 -0.400456
4.73 -0.404789
4.74 -0.408314
4.75 -0.41114
4.76 -0.413378
4.77 -0.415146
4.78 -0.41656
4.79 -0.417721
4.8 -0.418773
4.81 -0.41981
4.82 -0.420915
4.83 -0.422156
4.84 -0.423586
4.85 -0.425253
4.86 -0.427176
4.87 -0.429336
4.88 -0.431714
4.89 -0.434276
4.9 -0.436974
4.91 -0.439753
4.92 -0.442542
4.93 -0.445262
4.94 -0.447843
4.95 -0.450214
4.96 -0.45231
4.97 -0.45407
4.98 -0.455421
4.99 -0.456304
5 -0.456716
5.01 -0.456634
5.02 -0.456048
5.03 -0.454956
5.04 -0.453362
5.05 -0.451232
5.06 -0.448625
5.07 -0.445572
5.08 -0.442092
5.09 -0.438206
5.1 -0.433931
5.11 -0.429267
5.12 -0.424205
5.13 -0.418774
5.14 -0.412969
5.15 -0.406776
5.16 -0.400176
5.17 -0.393145
5.18 -0.385613
5.19 -0.377576
5.2 -0.369017
5.21 -0.35991
5.22 -0.350234
5.23 -0.339973
5.24 -0.329105
5.25 -0.317592
5.26 -0.305505
5.27 -0.292869
5.28 -0.279722
5.29 -0.266113
5.3 -0.252099
5.31 -0.237728
5.32 -0.2231
5.33 -0.20831
5.34 -0.193443
5.35 -0.178585
5.36 -0.163821
5.37 -0.149236
5.38 -0.134936
5.39 -0.120968
5.4 -0.107387
5.41 -0.0942408
5.42 -0.0815646
5.43 -0.0693835
5.44 -0.0577461
5.45 -0.0466486
5.46 -0.0360594
5.47 -0.0259665
5.48 -0.0163533
5.49 -0.00720051
5.5 0.00151095
5.51 0.00975429
5.52 0.0175941
5.53 0.02504
5.54 0.0320953
5.55 0.038757
5.56 0.0450146
5.57 0.0508266
5.58 0.0561625
5.59 0.0610193
5.6 0.065365
5.61 0.0691667
5.62 0.0723929
5.63 0.0750158
5.64 0.0769441
5.65 0.0782273
5.66 0.0788707
5.67 0.0788871
5.68 0.0783029
5.69 0.0771589
5.7 0.0754916
5.71 0.0733699
5.72 0.0709159
5.73 0.0682261
5.74 0.0654052
5.75 0.0625633
5.76 0.0598131
5.77 0.0572957
5.78 0.0551124
5.79 0.0533537
5.8 0.0521015
5.81 0.0514218
5.82 0.0513624
5.83 0.0519724
5.84 0.0532886
5.85 0.0552339
5.86 0.0577643
5.87 0.0608156
5.88 0.0643053
5.89 0.0681356
5.9 0.0722061
5.91 0.0763707
5.92 0.0805009
5.93 0.0844771
5.94 0.0881865
5.95 0.0915275
5.96 0.0944018
5.97 0.0966974
5.98 0.0984196
5.99 0.0995531
6 0.100108
6.01 0.10012
6.02 0.0996497
6.03 0.0987577
6.04 0.0975781
6.05 0.0962508
6.06 0.0949108
6.07 0.0936992
6.08 0.0927581
6.09 0.0922313
6.1 0.0923123
6.11 0.0930636
6.12 0.0945728
6.13 0.0969036
6.14 0.100092
6.15 0.104143
6.16 0.109084
6.17 0.114837
6.18 0.121263
6.19 0.128242
6.2 0.135631
6.21 0.143265
6.22 0.150964
6.23 0.158505
6.24 0.16569
6.25 0.172331
6.26 0.178249
6.27 0.183278
6.28 0.187275
6.29 0.190052
6.3 0.191494
6.31 0.191622
6.32 0.190414
6.33 0.187882
6.34 0.184069
6.35 0.179046
6.36 0.172808
6.37 0.165602
6.38 0.157584
6.39 0.148915
6.4 0.139761
6.41 0.13029
6.42 0.12067
6.43 0.111079
6.44 0.101668
6.45 0.0925578
6.46 0.0838521
6.47 0.0756295
6.48 0.067945
6.49 0.060883
6.5 0.0544049
6.51 0.0484754
6.52 0.0430521
6.53 0.0380763
6.54 0.0334761
6.55 0.0291765
6.56 0.0250913
6.57 0.0211103
6.58 0.0171519
6.59 0.0131427
6.6 0.00902076
6.61 0.00473809
6.62 0.000245384
6.63 -0.00446097
6.64 -0.00936623
6.65 -0.0144449
6.66 -0.0196555
6.67 -0.024942
6.68 -0.0302351
6.69 -0.0354419
6.7 -0.040479
6.71 -0.0452609
6.72 -0.049704
6.73 -0.0537298
6.74 -0.0572675
6.75 -0.0602137
6.76 -0.0625317
6.77 -0.0642171
6.78 -0.0652558
6.79 -0.0656487
6.8 -0.0654115
6.81 -0.0645687
6.82 -0.063111
6.83 -0.0611556
6.84 -0.0587612
6.85 -0.0559898
6.86 -0.0529039
6.87 -0.0495632
6.88 -0.0460134
6.89 -0.0423082
6.9 -0.0384924
6.91 -0.0345884
6.92 -0.0306059
6.93 -0.0265416
6.94 -0.0223795
6.95 -0.0180727
6.96 -0.0135914
6.97 -0.00888675
6.98 -0.00390412
6.99 0.00141406
7 0.0071255
7.01 0.0133102
7.02 0.0200319
7.03 0.0272981
7.04 0.0351357
7.05 0.0435582
7.06 0.0525647
7.07 0.0621388
7.08 0.0722988
7.09 0.0829416
7.1 0.0939939
7.11 0.105377
7.12 0.117003
7.13 0.128775
7.14 0.140586
7.15 0.152314
7.16 0.163853
7.17 0.175101
7.18 0.185966
7.19 0.196361
7.2 0.206213
7.21 0.2154
7.22 0.223909
7.23 0.231728
7.24 0.238838
7.25 0.245236
7.26 0.250932
7.27 0.255923
7.28 0.260203
7.29 0.263864
7.3 0.266944
7.31 0.269479
7.32 0.271501
7.33 0.273041
7.34 0.274083
7.35 0.274661
7.36 0.27479
7.37 0.27446
7.38 0.273647
7.39 0.272317
7.4 0.270415
7.41 0.267826
7.42 0.264547
7.43 0.260508
7.44 0.255641
7.45 0.249877
7.46 0.24315
7.47 0.235327
7.48 0.226376
7.49 0.216311
7.5 0.205112
7.51 0.192776
7.52 0.179316
7.53 0.164761
7.54 0.14906
7.55 0.132411
7.56 0.114906
7.57 0.0966566
7.58 0.0777879
7.59 0.058438
7.6 0.0387458
7.61 0.018893
7.62 -0.000940352
7.63 -0.0205914
7.64 -0.0398992
7.65 -0.0587075
7.66 -0.0768677
7.67 -0.0941389
7.68 -0.110469
7.69 -0.125754
7.7 -0.139901
7.71 -0.152836
7.72 -0.164502
7.73 -0.174795
7.74 -0.183665
7.75 -0.191203
7.76 -0.197428
7.77 -0.202372
7.78 -0.206081
7.79 -0.208616
7.8 -0.209944
7.81 -0.210247
7.82 -0.209633
7.83 -0.208195
7.84 -0.206031
7.85 -0.20324
7.86 -0.199905
7.87 -0.196117
7.88 -0.192011
7.89 -0.187675
7.9 -0.183191
7.91 -0.178636
7.92 -0.174076
7.93 -0.169582
7.94 -0.165205
7.95 -0.160983
7.96 -0.156946
7.97 -0.153116
7.98 -0.149503
7.99 -0.146117
8 -0.142968
8.01 -0.14002
8.02 -0.137256
8.03 -0.134651
8.04 -0.132176
8.05 -0.129803
8.06 -0.1275
8.07 -0.125231
8.08 -0.122963
8.09 -0.120668
8.1 -0.118324
8.11 -0.115913
8.12 -0.113421
8.13 -0.110834
8.14 -0.108165
8.15 -0.105422
8.16 -0.102623
8.17 -0.0997893
8.18 -0.0969494
8.19 -0.09414
8.2 -0.0914016
8.21 -0.0887701
8.22 -0.0862825
8.23 -0.0839739
8.24 -0.0818753
8.25 -0.0800131
8.26 -0.078435
8.27 -0.0771209
8.28 -0.0760681
8.29 -0.0752628
8.3 -0.0746799
8.31 -0.0742831
8.32 -0.0740292
8.33 -0.0738502
8.34 -0.0736687
8.35 -0.0734083
8.36 -0.0729875
8.37 -0.0723219
8.38 -0.0713268
8.39 -0.0698664
8.4 -0.0678987
8.41 -0.0653602
8.42 -0.062195
8.43 -0.0583602
8.44 -0.0538281
8.45 -0.0485559
8.46 -0.042535
8.47 -0.0358459
8.48 -0.0285359
8.49 -0.0206692
8.5 -0.0123257
8.51 -0.00359899
8.52 0.00542212
8.53 0.0145883
8.54 0.0237752
8.55 0.0328621
8.56 0.0417312
8.57 0.0502703
8.58 0.0583583
8.59 0.0658682
8.6 0.072766
8.61 0.0789977
8.62 0.0845281
8.63 0.0893417
8.64 0.0934429
8.65 0.0967987
8.66 0.0994984
8.67 0.101624
8.68 0.103251
8.69 0.104463
8.7 0.105351
8.71 0.106007
8.72 0.106526
8.73 0.107014
8.74 0.10755
8.75 0.108198
8.76 0.109009
8.77 0.110017
8.78 0.11125
8.79 0.112692
8.8 0.114303
8.81 0.116032
8.82 0.117812
8.83 0.119559
8.84 0.121172
8.85 0.122508
8.86 0.123469
8.87 0.123938
8.88 0.123803
8.89 0.122954
8.9 0.121296
8.91 0.118682
8.92 0.115047
8.93 0.110396
8.94 0.104707
8.95 0.0979779
8.96 0.0902305
8.97 0.0815065
8.98 0.0717728
8.99 0.0612275
9 0.0499713
9.01 0.0381168
9.02 0.0257854
9.03 0.0131033
9.04 0.000192973
9.05 -0.012803
9.06 -0.025755
9.07 -0.038556
9.08 -0.0511117
9.09 -0.0633424
9.1 -0.0751845
9.11 -0.0865419
9.12 -0.0974278
9.13 -0.107839
9.14 -0.117782
9.15 -0.12728
9.16 -0.136363
9.17 -0.145059
9.18 -0.153413
9.19 -0.161501
9.2 -0.169372
9.21 -0.177071
9.22 -0.184634
9.23 -0.19209
9.24 -0.19945
9.25 -0.206721
9.26 -0.213894
9.27 -0.220941
9.28 -0.227825
9.29 -0.234492
9.3 -0.240868
9.31 -0.246854
9.32 -0.252393
9.33 -0.257404
9.34 -0.261804
9.35 -0.265512
9.36 -0.268453
9.37 -0.270483
9.38 -0.271582
9.39 -0.271737
9.4 -0.270918
9.41 -0.26911
9.42 -0.266314
9.43 -0.262526
9.44 -0.257707
9.45 -0.251997
9.46 -0.245449
9.47 -0.238127
9.48 -0.230102
9.49 -0.221446
9.5 -0.212199
9.51 -0.202461
9.52 -0.192325
9.53 -0.181855
9.54 -0.171106
9.55 -0.160125
9.56 -0.148947
9.57 -0.137587
9.58 -0.126077
9.59 -0.114424
9.6 -0.102624
9.61 -0.0906669
9.62 -0.078538
9.63 -0.0662043
9.64 -0.0536434
9.65 -0.0408459
9.66 -0.0277945
9.67 -0.0144762
9.68 -0.00088421
9.69 0.0129812
9.7 0.0271404
9.71 0.0415426
9.72 0.0561592
9.73 0.0709534
9.74 0.0858806
9.75 0.10089
9.76 0.115921
9.77 0.130904
9.78 0.145774
9.79 0.160466
9.8 0.174917
9.81 0.189069
9.82 0.202865
9.83 0.216208
9.84 0.22909
9.85 0.241482
9.86 0.253357
9.87 0.264695
9.88 0.275485
9.89 0.285698
9.9 0.295314
9.91 0.30438
9.92 0.312902
9.93 0.320888
9.94 0.328347
9.95 0.335282
9.96 0.34165
9.97 0.347485
9.98 0.352792
9.99 0.357562
10 0.361778
10.01 0.36542
10.02 0.368447
10.03 0.370793
10.04 0.372482
10.05 0.373488
10.06 0.373786
10.07 0.373355
10.08 0.372179
10.09 0.37019
10.1 0.367425
10.11 0.363923
10.12 0.359709
10.13 0.354818
10.14 0.349298
10.15 0.343197
10.16 0.336554
10.17 0.329505
10.18 0.322137
10.19 0.314542
10.2 0.306818
10.21 0.299062
10.22 0.291381
10.23 0.283878
10.24 0.276632
10.25 0.26972
10.26 0.263204
10.27 0.257137
10.28 0.251559
10.29 0.246548
10.3 0.242053
10.31 0.238064
10.32 0.234556
10.33 0.231491
10.34 0.228819
10.35 0.226494
10.36 0.224437
10.37 0.222551
10.38 0.220757
10.39 0.218974
10.4 0.217123
10.41 0.215125
10.42 0.212876
10.43 0.210327
10.44 0.207423
10.45 0.204115
10.46 0.200364
10.47 0.196137
10.48 0.191388
10.49 0.186092
10.5 0.180279
10.51 0.17395
10.52 0.167111
10.53 0.159773
10.54 0.151949
10.55 0.143608
10.56 0.134806
10.57 0.125566
10.58 0.115901
10.59 0.105823
10.6 0.0953438
10.61 0.0844566
10.62 0.0731552
10.63 0.0614779
10.64 0.0494327
10.65 0.0370289
10.66 0.0242778
10.67 0.011194
10.68 -0.00223055
10.69 -0.0159488
10.7 -0.0299227
10.71 -0.044117
10.72 -0.0584908
10.73 -0.0729978
10.74 -0.0875876
10.75 -0.102199
10.76 -0.116768
10.77 -0.131234
10.78 -0.145538
10.79 -0.159622
10.8 -0.173434
10.81 -0.186894
10.82 -0.199971
10.83 -0.212646
10.84 -0.224896
10.85 -0.236711
10.86 -0.248088
10.87 -0.259031
10.88 -0.269528
10.89 -0.279654
10.9 -0.289448
10.91 -0.298957
10.92 -0.308231
10.93 -0.317322
10.94 -0.326277
10.95 -0.335158
10.96 -0.344013
10.97 -0.35288
10.98 -0.361785
10.99 -0.370747
11 -0.379768
11.01 -0.388843
11.02 -0.397938
11.03 -0.407013
11.04 -0.416013
11.05 -0.424875
11.06 -0.433522
11.07 -0.441848
11.08 -0.449748
11.09 -0.457147
11.1 -0.463952
11.11 -0.470071
11.12 -0.475421
11.13 -0.479924
11.14 -0.483408
11.15 -0.485911
11.16 -0.487405
11.17 -0.487869
11.18 -0.4873
11.19 -0.48571
11.2 -0.483082
11.21 -0.479443
11.22 -0.474919
11.23 -0.469577
11.24 -0.463492
11.25 -0.456742
11.26 -0.449407
11.27 -0.441527
11.28 -0.433224
11.29 -0.424576
11.3 -0.415639
11.31 -0.406463
11.32 -0.397081
11.33 -0.387509
11.34 -0.377746
11.35 -0.367798
11.36 -0.357642
11.37 -0.347247
11.38 -0.33657
11.39 -0.325564
11.4 -0.314137
11.41 -0.302249
11.42 -0.28986
11.43 -0.276921
11.44 -0.263391
11.45 -0.24924
11.46 -0.234432
11.47 -0.218919
11.48 -0.202772
11.49 -0.186019
11.5 -0.168706
11.51 -0.150888
11.52 -0.132638
11.53 -0.11402
11.54 -0.0951545
11.55 -0.0761575
11.56 -0.0571357
11.57 -0.0381967
11.58 -0.0194467
11.59 -0.00099251
11.6 0.0170261
11.61 0.0345598
11.62 0.0515392
11.63 0.0679088
11.64 0.0836278
11.65 0.0986708
11.66 0.112983
11.67 0.126581
11.68 0.139524
11.69 0.151844
11.7 0.163584
11.71 0.174795
11.72 0.185532
11.73 0.195812
11.74 0.205745
11.75 0.215382
11.76 0.224771
11.77 0.233949
11.78 0.242944
11.79 0.251764
11.8 0.260411
11.81 0.268884
11.82 0.277158
11.83 0.285197
11.84 0.292956
11.85 0.300379
11.86 0.307354
11.87 0.313844
11.88 0.319783
11.89 0.3251
11.9 0.329727
11.91 0.333601
11.92 0.336626
11.93 0.338723
11.94 0.339916
11.95 0.340177
11.96 0.339492
11.97 0.337857
11.98 0.335279
11.99 0.331685
12 0.327176
12.01 0.321803
12.02 0.315604
12.03 0.30862
12.04 0.300892
12.05 0.29244
12.06 0.283273
12.07 0.273482
12.08 0.263093
12.09 0.25213
12.1 0.240604
12.11 0.228523
12.12 0.215841
12.13 0.202581
12.14 0.188751
12.15 0.174338
12.16 0.15933
12.17 0.143715
