# xPDFsuite Configuration #
[PDF]
wavelength = 0.1
dataformat = QA
inputfile = BiMsol6_insitu_700 C-00366.xy
backgroundfile = Quartz2mm-dist500-00000.xy
mode = xray
bgscale = 0.0042
composition = Bi2Fe4O9
outputtype = gr
qmaxinst = 24.998449118
qmin = 0.1
qmax = 21.4986662415
rmax = 80.0
rmin = 0.0
rstep = 0.01
rpoly = 0.9

[Misc]
inputdir = C:/Data/Seafile/CPH/Beamtime/Desy Oct 20/In situ data/Processed/BiMsol6/PDF
savedir = C:/Data/Seafile/CPH/Beamtime/Desy Oct 20/In situ data/PDF/BiMsol6
backgroundfilefull = C:/Data/Seafile/CPH/Beamtime/Desy Oct 20/In situ data/Processed/Standard_Empty_Cap/Quartz2mm-dist500-00000.xy

#### start data
#S 1
#L r($\AA$)  G($\AA^{-2}$)
0 0
0.01 0.00646119
0.02 0.012557
0.03 0.0179747
0.04 0.0224339
0.05 0.0256992
0.06 0.0275914
0.07 0.0279146
0.08 0.0266121
0.09 0.0238292
0.1 0.0196855
0.11 0.0143663
0.12 0.00811432
0.13 0.00121886
0.14 -0.00599446
0.15 -0.0131172
0.16 -0.0198048
0.17 -0.0257342
0.18 -0.0306163
0.19 -0.03421
0.2 -0.0362681
0.21 -0.036623
0.22 -0.0353762
0.23 -0.0325973
0.24 -0.028435
0.25 -0.0231121
0.26 -0.0169175
0.27 -0.0101806
0.28 -0.003371
0.29 0.00309312
0.3 0.00880615
0.31 0.0133832
0.32 0.0164792
0.33 0.0177452
0.34 0.0168409
0.35 0.0138244
0.36 0.00869767
0.37 0.00156869
0.38 -0.00734722
0.39 -0.0177306
0.4 -0.0292099
0.41 -0.0411538
0.42 -0.0529433
0.43 -0.0639488
0.44 -0.0735202
0.45 -0.0810103
0.46 -0.0857353
0.47 -0.0868137
0.48 -0.0840593
0.49 -0.077118
0.5 -0.0657607
0.51 -0.0498973
0.52 -0.0295868
0.53 -0.00476224
0.54 0.0240119
0.55 0.0559945
0.56 0.0904979
0.57 0.126719
0.58 0.163763
0.59 0.200653
0.6 0.236147
0.61 0.269274
0.62 0.299057
0.63 0.324581
0.64 0.345025
0.65 0.359687
0.66 0.367591
0.67 0.368344
0.68 0.362131
0.69 0.348965
0.7 0.329047
0.71 0.302758
0.72 0.270649
0.73 0.232934
0.74 0.191128
0.75 0.146212
0.76 0.0992242
0.77 0.0512405
0.78 0.00334235
0.79 -0.0433046
0.8 -0.0875317
0.81 -0.128547
0.82 -0.165589
0.83 -0.198038
0.84 -0.225428
0.85 -0.247459
0.86 -0.263436
0.87 -0.273927
0.88 -0.279249
0.89 -0.27979
0.9 -0.276065
0.91 -0.268697
0.92 -0.258304
0.93 -0.245673
0.94 -0.231812
0.95 -0.217499
0.96 -0.203478
0.97 -0.190435
0.98 -0.178976
0.99 -0.16984
1 -0.163307
1.01 -0.159567
1.02 -0.158738
1.03 -0.160817
1.04 -0.165684
1.05 -0.173176
1.06 -0.183056
1.07 -0.194693
1.08 -0.207625
1.09 -0.221367
1.1 -0.235421
1.11 -0.249303
1.12 -0.262476
1.13 -0.274524
1.14 -0.28515
1.15 -0.294112
1.16 -0.301249
1.17 -0.306489
1.18 -0.309812
1.19 -0.311186
1.2 -0.310985
1.21 -0.309453
1.22 -0.306879
1.23 -0.303584
1.24 -0.299901
1.25 -0.296182
1.26 -0.292782
1.27 -0.289972
1.28 -0.287972
1.29 -0.286947
1.3 -0.286997
1.31 -0.28816
1.32 -0.290497
1.33 -0.293767
1.34 -0.297791
1.35 -0.302344
1.36 -0.307163
1.37 -0.311962
1.38 -0.316409
1.39 -0.32017
1.4 -0.323004
1.41 -0.324685
1.42 -0.325036
1.43 -0.323936
1.44 -0.321332
1.45 -0.31708
1.46 -0.311446
1.47 -0.304608
1.48 -0.296796
1.49 -0.288293
1.5 -0.279421
1.51 -0.27055
1.52 -0.262105
1.53 -0.254442
1.54 -0.247895
1.55 -0.242765
1.56 -0.239298
1.57 -0.237683
1.58 -0.238235
1.59 -0.240813
1.6 -0.245318
1.61 -0.2516
1.62 -0.259435
1.63 -0.268525
1.64 -0.278531
1.65 -0.289008
1.66 -0.299444
1.67 -0.309382
1.68 -0.31837
1.69 -0.325977
1.7 -0.331809
1.71 -0.33531
1.72 -0.336318
1.73 -0.334718
1.74 -0.330421
1.75 -0.323431
1.76 -0.313842
1.77 -0.301779
1.78 -0.287414
1.79 -0.271319
1.8 -0.253907
1.81 -0.235633
1.82 -0.21698
1.83 -0.198437
1.84 -0.18057
1.85 -0.163866
1.86 -0.148697
1.87 -0.135402
1.88 -0.124247
1.89 -0.115417
1.9 -0.109046
1.91 -0.105344
1.92 -0.103958
1.93 -0.104701
1.94 -0.107312
1.95 -0.111466
1.96 -0.116788
1.97 -0.122888
1.98 -0.12926
1.99 -0.135443
2 -0.141026
2.01 -0.145638
2.02 -0.148957
2.03 -0.150716
2.04 -0.150522
2.05 -0.148473
2.06 -0.144567
2.07 -0.138889
2.08 -0.131601
2.09 -0.122942
2.1 -0.113177
2.11 -0.102723
2.12 -0.0920483
2.13 -0.0815787
2.14 -0.0717459
2.15 -0.06297
2.16 -0.0556441
2.17 -0.0503504
2.18 -0.0472195
2.19 -0.0464497
2.2 -0.0481779
2.21 -0.0524608
2.22 -0.0592732
2.23 -0.0686108
2.24 -0.080312
2.25 -0.093935
2.26 -0.109153
2.27 -0.125593
2.28 -0.142852
2.29 -0.160508
2.3 -0.178092
2.31 -0.195151
2.32 -0.211309
2.33 -0.226231
2.34 -0.239635
2.35 -0.251297
2.36 -0.260997
2.37 -0.268551
2.38 -0.274128
2.39 -0.277803
2.4 -0.279717
2.41 -0.280069
2.42 -0.279104
2.43 -0.277042
2.44 -0.274296
2.45 -0.271219
2.46 -0.268132
2.47 -0.265346
2.48 -0.263141
2.49 -0.261793
2.5 -0.261597
2.51 -0.262615
2.52 -0.264932
2.53 -0.268579
2.54 -0.273532
2.55 -0.279713
2.56 -0.287068
2.57 -0.295365
2.58 -0.304349
2.59 -0.313791
2.6 -0.323447
2.61 -0.333069
2.62 -0.34241
2.63 -0.35117
2.64 -0.359184
2.65 -0.366285
2.66 -0.372338
2.67 -0.377248
2.68 -0.380958
2.69 -0.383372
2.7 -0.384531
2.71 -0.384558
2.72 -0.383539
2.73 -0.38158
2.74 -0.3788
2.75 -0.375326
2.76 -0.371232
2.77 -0.366712
2.78 -0.361867
2.79 -0.356779
2.8 -0.351505
2.81 -0.346075
2.82 -0.340484
2.83 -0.334698
2.84 -0.32867
2.85 -0.32232
2.86 -0.315553
2.87 -0.308258
2.88 -0.30032
2.89 -0.291529
2.9 -0.281838
2.91 -0.271161
2.92 -0.259423
2.93 -0.246573
2.94 -0.232588
2.95 -0.21743
2.96 -0.201115
2.97 -0.183806
2.98 -0.165616
2.99 -0.146684
3 -0.12717
3.01 -0.107258
3.02 -0.0871388
3.03 -0.0670529
3.04 -0.047202
3.05 -0.027776
3.06 -0.00894918
3.07 0.00912479
3.08 0.0262869
3.09 0.0423789
3.1 0.0574228
3.11 0.0713988
3.12 0.0843222
3.13 0.0962418
3.14 0.107238
3.15 0.117361
3.16 0.126805
3.17 0.135749
3.18 0.144354
3.19 0.152787
3.2 0.16121
3.21 0.169784
3.22 0.178684
3.23 0.188006
3.24 0.197836
3.25 0.208233
3.26 0.219225
3.27 0.230807
3.28 0.242982
3.29 0.255655
3.3 0.268707
3.31 0.282018
3.32 0.295453
3.33 0.308863
3.34 0.32209
3.35 0.334925
3.36 0.347242
3.37 0.3589
3.38 0.369777
3.39 0.379766
3.4 0.388788
3.41 0.396716
3.42 0.403529
3.43 0.409284
3.44 0.414009
3.45 0.417755
3.46 0.420594
3.47 0.422618
3.48 0.423863
3.49 0.424539
3.5 0.424769
3.51 0.42468
3.52 0.424393
3.53 0.424024
3.54 0.423688
3.55 0.423494
3.56 0.423516
3.57 0.423817
3.58 0.424442
3.59 0.425423
3.6 0.426776
3.61 0.428542
3.62 0.430674
3.63 0.433146
3.64 0.43593
3.65 0.438994
3.66 0.442302
3.67 0.445827
3.68 0.449536
3.69 0.453384
3.7 0.457345
3.71 0.461397
3.72 0.465525
3.73 0.469714
3.74 0.47396
3.75 0.47825
3.76 0.482575
3.77 0.486928
3.78 0.491295
3.79 0.495659
3.8 0.499995
3.81 0.50426
3.82 0.508413
3.83 0.512401
3.84 0.516159
3.85 0.519612
3.86 0.522678
3.87 0.525215
3.88 0.527135
3.89 0.52835
3.9 0.528753
3.91 0.528238
3.92 0.526701
3.93 0.524021
3.94 0.519998
3.95 0.514667
3.96 0.507962
3.97 0.499831
3.98 0.490237
3.99 0.479159
4 0.466487
4.01 0.452277
4.02 0.436628
4.03 0.41959
4.04 0.401224
4.05 0.381605
4.06 0.360811
4.07 0.338841
4.08 0.315927
4.09 0.292179
4.1 0.267713
4.11 0.242645
4.12 0.217093
4.13 0.191162
4.14 0.164986
4.15 0.138698
4.16 0.11241
4.17 0.0862291
4.18 0.0602581
4.19 0.0345968
4.2 0.00939651
4.21 -0.0152881
4.22 -0.0393735
4.23 -0.0627795
4.24 -0.0854307
4.25 -0.107257
4.26 -0.128149
4.27 -0.148024
4.28 -0.166894
4.29 -0.18472
4.3 -0.201471
4.31 -0.217125
4.32 -0.231672
4.33 -0.244997
4.34 -0.257211
4.35 -0.268354
4.36 -0.27846
4.37 -0.287575
4.38 -0.295753
4.39 -0.303027
4.4 -0.309444
4.41 -0.315148
4.42 -0.320221
4.43 -0.324744
4.44 -0.328796
4.45 -0.332456
4.46 -0.335775
4.47 -0.338847
4.48 -0.341735
4.49 -0.344487
4.5 -0.347136
4.51 -0.349708
4.52 -0.352214
4.53 -0.354649
4.54 -0.357008
4.55 -0.35927
4.56 -0.361407
4.57 -0.363385
4.58 -0.365167
4.59 -0.366692
4.6 -0.367927
4.61 -0.368848
4.62 -0.369428
4.63 -0.369644
4.64 -0.369487
4.65 -0.368949
4.66 -0.36801
4.67 -0.366734
4.68 -0.365154
4.69 -0.363315
4.7 -0.36127
4.71 -0.35908
4.72 -0.356811
4.73 -0.354544
4.74 -0.352351
4.75 -0.350303
4.76 -0.348461
4.77 -0.346884
4.78 -0.345623
4.79 -0.344759
4.8 -0.344281
4.81 -0.344203
4.82 -0.344527
4.83 -0.345243
4.84 -0.346331
4.85 -0.347778
4.86 -0.349539
4.87 -0.351548
4.88 -0.353755
4.89 -0.35611
4.9 -0.358561
4.91 -0.361059
4.92 -0.363557
4.93 -0.366013
4.94 -0.368397
4.95 -0.370688
4.96 -0.372871
4.97 -0.374939
4.98 -0.376887
4.99 -0.378718
5 -0.380451
5.01 -0.382097
5.02 -0.383665
5.03 -0.385163
5.04 -0.386592
5.05 -0.387937
5.06 -0.389186
5.07 -0.39031
5.08 -0.391269
5.09 -0.392007
5.1 -0.392456
5.11 -0.392521
5.12 -0.392074
5.13 -0.391044
5.14 -0.389321
5.15 -0.386791
5.16 -0.383337
5.17 -0.378847
5.18 -0.3731
5.19 -0.366054
5.2 -0.357656
5.21 -0.347836
5.22 -0.336537
5.23 -0.323723
5.24 -0.309341
5.25 -0.293293
5.26 -0.275749
5.27 -0.256756
5.28 -0.23638
5.29 -0.214702
5.3 -0.191814
5.31 -0.167745
5.32 -0.142665
5.33 -0.116732
5.34 -0.0900645
5.35 -0.0627784
5.36 -0.0349847
5.37 -0.0067844
5.38 0.0217419
5.39 0.0504683
5.4 0.0793177
5.41 0.108221
5.42 0.137116
5.43 0.165946
5.44 0.194648
5.45 0.223162
5.46 0.25144
5.47 0.279423
5.48 0.307041
5.49 0.334217
5.5 0.360857
5.51 0.38677
5.52 0.411896
5.53 0.436094
5.54 0.459211
5.55 0.48108
5.56 0.501524
5.57 0.520256
5.58 0.537048
5.59 0.551813
5.6 0.564369
5.61 0.574548
5.62 0.582194
5.63 0.587176
5.64 0.589078
5.65 0.588097
5.66 0.584223
5.67 0.577459
5.68 0.567843
5.69 0.555453
5.7 0.540292
5.71 0.522467
5.72 0.502359
5.73 0.480189
5.74 0.456198
5.75 0.430646
5.76 0.403804
5.77 0.37588
5.78 0.347256
5.79 0.318221
5.8 0.289027
5.81 0.259907
5.82 0.231071
5.83 0.202724
5.84 0.175068
5.85 0.148176
5.86 0.122131
5.87 0.0969867
5.88 0.07277
5.89 0.0494824
5.9 0.0271799
5.91 0.00577044
5.92 -0.0148228
5.93 -0.034653
5.94 -0.0537728
5.95 -0.0722292
5.96 -0.090046
5.97 -0.107203
5.98 -0.123758
5.99 -0.139693
6 -0.154967
6.01 -0.169517
6.02 -0.183263
6.03 -0.196027
6.04 -0.207709
6.05 -0.218218
6.06 -0.227422
6.07 -0.235188
6.08 -0.24139
6.09 -0.24589
6.1 -0.248408
6.11 -0.249051
6.12 -0.247771
6.13 -0.244549
6.14 -0.239398
6.15 -0.232364
6.16 -0.223417
6.17 -0.21271
6.18 -0.200487
6.19 -0.186923
6.2 -0.172218
6.21 -0.156585
6.22 -0.140254
6.23 -0.123431
6.24 -0.106425
6.25 -0.0894621
6.26 -0.072755
6.27 -0.0564976
6.28 -0.0408611
6.29 -0.0260364
6.3 -0.0121606
6.31 0.000743595
6.32 0.0126358
6.33 0.0235082
6.34 0.0333841
6.35 0.0423157
6.36 0.0503004
6.37 0.0575344
6.38 0.0641495
6.39 0.0702794
6.4 0.0760646
6.41 0.0816477
6.42 0.0871718
6.43 0.0927897
6.44 0.0986228
6.45 0.104775
6.46 0.111332
6.47 0.118363
6.48 0.125916
6.49 0.134076
6.5 0.142813
6.51 0.152104
6.52 0.161926
6.53 0.172246
6.54 0.183019
6.55 0.194208
6.56 0.205774
6.57 0.21763
6.58 0.22973
6.59 0.24203
6.6 0.254495
6.61 0.267096
6.62 0.279821
6.63 0.292652
6.64 0.30558
6.65 0.318605
6.66 0.331732
6.67 0.344966
6.68 0.35831
6.69 0.371772
6.7 0.38533
6.71 0.398964
6.72 0.412643
6.73 0.42632
6.74 0.439936
6.75 0.453399
6.76 0.466608
6.77 0.47946
6.78 0.491835
6.79 0.503599
6.8 0.514612
6.81 0.52472
6.82 0.533649
6.83 0.541355
6.84 0.547695
6.85 0.552537
6.86 0.555759
6.87 0.557254
6.88 0.556817
6.89 0.55438
6.9 0.55
6.91 0.543655
6.92 0.535342
6.93 0.525081
6.94 0.512909
6.95 0.498679
6.96 0.48268
6.97 0.465007
6.98 0.445756
6.99 0.425036
7 0.402956
7.01 0.379572
7.02 0.354993
7.03 0.32941
7.04 0.302925
7.05 0.275635
7.06 0.247631
7.07 0.218996
7.08 0.189756
7.09 0.160038
7.1 0.129912
7.11 0.0994411
7.12 0.0686828
7.13 0.0376967
7.14 0.00653996
7.15 -0.024717
7.16 -0.055991
7.17 -0.0872044
7.18 -0.118272
7.19 -0.149102
7.2 -0.179594
7.21 -0.209588
7.22 -0.238987
7.23 -0.267683
7.24 -0.295554
7.25 -0.322477
7.26 -0.348334
7.27 -0.372971
7.28 -0.396189
7.29 -0.417999
7.3 -0.43832
7.31 -0.457083
7.32 -0.474239
7.33 -0.489754
7.34 -0.50348
7.35 -0.515502
7.36 -0.52591
7.37 -0.53475
7.38 -0.542088
7.39 -0.548004
7.4 -0.552571
7.41 -0.555803
7.42 -0.557946
7.43 -0.559116
7.44 -0.55943
7.45 -0.559006
7.46 -0.557954
7.47 -0.556349
7.48 -0.55431
7.49 -0.55194
7.5 -0.549307
7.51 -0.546463
7.52 -0.543447
7.53 -0.54028
7.54 -0.536957
7.55 -0.533485
7.56 -0.529845
7.57 -0.526007
7.58 -0.521933
7.59 -0.517576
7.6 -0.512864
7.61 -0.507737
7.62 -0.502163
7.63 -0.49609
7.64 -0.489474
7.65 -0.482274
7.66 -0.474455
7.67 -0.465919
7.68 -0.456716
7.69 -0.446847
7.7 -0.436317
7.71 -0.42514
7.72 -0.413343
7.73 -0.400933
7.74 -0.387951
7.75 -0.374491
7.76 -0.360612
7.77 -0.346384
7.78 -0.331878
7.79 -0.317171
7.8 -0.302342
7.81 -0.287492
7.82 -0.272707
7.83 -0.258075
7.84 -0.243677
7.85 -0.229599
7.86 -0.215938
7.87 -0.202802
7.88 -0.19023
7.89 -0.178288
7.9 -0.167038
7.91 -0.156532
7.92 -0.146818
7.93 -0.138011
7.94 -0.130092
7.95 -0.123057
7.96 -0.116914
7.97 -0.111666
7.98 -0.107302
7.99 -0.103828
8 -0.101268
8.01 -0.0995086
8.02 -0.0985077
8.03 -0.0982179
8.04 -0.0985877
8.05 -0.0995624
8.06 -0.101124
8.07 -0.103187
8.08 -0.105676
8.09 -0.108537
8.1 -0.111724
8.11 -0.115192
8.12 -0.118907
8.13 -0.122851
8.14 -0.126978
8.15 -0.131268
8.16 -0.13571
8.17 -0.140296
8.18 -0.145021
8.19 -0.149893
8.2 -0.154907
8.21 -0.160052
8.22 -0.165323
8.23 -0.170707
8.24 -0.176183
8.25 -0.181725
8.26 -0.187291
8.27 -0.192822
8.28 -0.198253
8.29 -0.203508
8.3 -0.208499
8.31 -0.213126
8.32 -0.217247
8.33 -0.220724
8.34 -0.223461
8.35 -0.225333
8.36 -0.226212
8.37 -0.225977
8.38 -0.22451
8.39 -0.221545
8.4 -0.217119
8.41 -0.211164
8.42 -0.203624
8.43 -0.194459
8.44 -0.183652
8.45 -0.171135
8.46 -0.156898
8.47 -0.141111
8.48 -0.123844
8.49 -0.105189
8.5 -0.0852488
8.51 -0.0641408
8.52 -0.0419015
8.53 -0.0187603
8.54 0.00513022
8.55 0.029639
8.56 0.0546408
8.57 0.0800189
8.58 0.105674
8.59 0.131511
8.6 0.157437
8.61 0.183394
8.62 0.209339
8.63 0.235245
8.64 0.261098
8.65 0.286891
8.66 0.312635
8.67 0.338344
8.68 0.364032
8.69 0.389711
8.7 0.415385
8.71 0.441053
8.72 0.466691
8.73 0.492266
8.74 0.517724
8.75 0.542992
8.76 0.567978
8.77 0.592567
8.78 0.616576
8.79 0.639849
8.8 0.662239
8.81 0.683565
8.82 0.703637
8.83 0.722262
8.84 0.739223
8.85 0.754141
8.86 0.767014
8.87 0.777682
8.88 0.786001
8.89 0.79185
8.9 0.795133
8.91 0.795606
8.92 0.793259
8.93 0.788226
8.94 0.78053
8.95 0.770221
8.96 0.757376
8.97 0.742089
8.98 0.724229
8.99 0.704212
9 0.682189
9.01 0.658315
9.02 0.63275
9.03 0.605655
9.04 0.57712
9.05 0.547306
9.06 0.516437
9.07 0.48464
9.08 0.452033
9.09 0.41872
9.1 0.384794
9.11 0.350292
9.12 0.315346
9.13 0.280029
9.14 0.244405
9.15 0.208539
9.16 0.172498
9.17 0.136354
9.18 0.1002
9.19 0.0641366
9.2 0.0282695
9.21 -0.00728157
9.22 -0.0423835
9.23 -0.0768893
9.24 -0.110551
9.25 -0.143232
9.26 -0.174767
9.27 -0.204971
9.28 -0.233654
9.29 -0.260628
9.3 -0.285647
9.31 -0.308405
9.32 -0.32891
9.33 -0.347027
9.34 -0.362636
9.35 -0.375645
9.36 -0.385986
9.37 -0.393385
9.38 -0.397973
9.39 -0.399858
9.4 -0.399087
9.41 -0.39573
9.42 -0.38988
9.43 -0.381606
9.44 -0.370883
9.45 -0.358086
9.46 -0.343368
9.47 -0.326889
9.48 -0.308811
9.49 -0.289293
9.5 -0.268408
9.51 -0.246363
9.52 -0.223353
9.53 -0.199506
9.54 -0.174941
9.55 -0.149768
9.56 -0.124084
9.57 -0.0979487
9.58 -0.0715007
9.59 -0.0448202
9.6 -0.017986
9.61 0.00892234
9.62 0.0358231
9.63 0.0626181
9.64 0.0892003
9.65 0.115474
9.66 0.141328
9.67 0.166646
9.68 0.1913
9.69 0.215159
9.7 0.237961
9.71 0.259658
9.72 0.280111
9.73 0.299185
9.74 0.316748
9.75 0.332681
9.76 0.346782
9.77 0.358923
9.78 0.369152
9.79 0.377426
9.8 0.383721
9.81 0.388041
9.82 0.390413
9.83 0.390699
9.84 0.389161
9.85 0.385923
9.86 0.381107
9.87 0.374847
9.88 0.367293
9.89 0.358559
9.9 0.348793
9.91 0.338238
9.92 0.327047
9.93 0.315366
9.94 0.303327
9.95 0.291046
9.96 0.278619
9.97 0.266143
9.98 0.253678
9.99 0.241261
10 0.228908
10.01 0.216622
10.02 0.204388
10.03 0.192174
10.04 0.179937
10.05 0.16763
10.06 0.155206
10.07 0.142618
10.08 0.129823
10.09 0.116766
10.1 0.103431
10.11 0.0898177
10.12 0.0759314
10.13 0.0617921
10.14 0.0474352
10.15 0.0329087
10.16 0.0182775
10.17 0.00363572
10.18 -0.0109293
10.19 -0.0253238
10.2 -0.0394505
10.21 -0.053212
10.22 -0.0664743
10.23 -0.0791494
10.24 -0.0911823
10.25 -0.102509
10.26 -0.113078
10.27 -0.122856
10.28 -0.13182
10.29 -0.139889
10.3 -0.147173
10.31 -0.153712
10.32 -0.159557
10.33 -0.164774
10.34 -0.169441
10.35 -0.17362
10.36 -0.177415
10.37 -0.180946
10.38 -0.184303
10.39 -0.187572
10.4 -0.190836
10.41 -0.194164
10.42 -0.197637
10.43 -0.201293
10.44 -0.205163
10.45 -0.209267
10.46 -0.21361
10.47 -0.218187
10.48 -0.222987
10.49 -0.227983
10.5 -0.233122
10.51 -0.238362
10.52 -0.243655
10.53 -0.248956
10.54 -0.254216
10.55 -0.259379
10.56 -0.26441
10.57 -0.269278
10.58 -0.273958
10.59 -0.278432
10.6 -0.282691
10.61 -0.286726
10.62 -0.290534
10.63 -0.294148
10.64 -0.297586
10.65 -0.30087
10.66 -0.304026
10.67 -0.307081
10.68 -0.310055
10.69 -0.31298
10.7 -0.315877
10.71 -0.318763
10.72 -0.321649
10.73 -0.324539
10.74 -0.327435
10.75 -0.330329
10.76 -0.33321
10.77 -0.336063
10.78 -0.338869
10.79 -0.341608
10.8 -0.344259
10.81 -0.346792
10.82 -0.349191
10.83 -0.351444
10.84 -0.35354
10.85 -0.355473
10.86 -0.357242
10.87 -0.358848
10.88 -0.360289
10.89 -0.361596
10.9 -0.362788
10.91 -0.363888
10.92 -0.364918
10.93 -0.365903
10.94 -0.366866
10.95 -0.36783
10.96 -0.368812
10.97 -0.369822
10.98 -0.370863
10.99 -0.37193
11 -0.373011
11.01 -0.374079
11.02 -0.3751
11.03 -0.376033
11.04 -0.376829
11.05 -0.377431
11.06 -0.37778
11.07 -0.377788
11.08 -0.377375
11.09 -0.376495
11.1 -0.375081
11.11 -0.373073
11.12 -0.370414
11.13 -0.367058
11.14 -0.36288
11.15 -0.357927
11.16 -0.35219
11.17 -0.345667
11.18 -0.338367
11.19 -0.330311
11.2 -0.321502
11.21 -0.311973
11.22 -0.301832
11.23 -0.291141
11.24 -0.27997
11.25 -0.268392
11.26 -0.256484
11.27 -0.244305
11.28 -0.231959
11.29 -0.219523
11.3 -0.207064
11.31 -0.194643
11.32 -0.182313
11.33 -0.170128
11.34 -0.158135
11.35 -0.146348
11.36 -0.134784
11.37 -0.12345
11.38 -0.112345
11.39 -0.10146
11.4 -0.0907942
11.41 -0.0803098
11.42 -0.0699716
11.43 -0.0597462
11.44 -0.0495973
11.45 -0.0394861
11.46 -0.0293715
11.47 -0.0192046
11.48 -0.00894599
11.49 0.00144356
11.5 0.012002
11.51 0.0227654
11.52 0.0337678
11.53 0.045064
11.54 0.0566764
11.55 0.0686195
11.56 0.0809158
11.57 0.0935847
11.58 0.106642
11.59 0.120106
11.6 0.134023
11.61 0.148353
11.62 0.163096
11.63 0.178245
11.64 0.193788
11.65 0.209707
11.66 0.225998
11.67 0.242621
11.68 0.259517
11.69 0.27664
11.7 0.293936
11.71 0.311345
11.72 0.328799
11.73 0.346213
11.74 0.363502
11.75 0.380582
11.76 0.397364
11.77 0.413758
11.78 0.429672
11.79 0.444977
11.8 0.459564
11.81 0.473384
11.82 0.486354
11.83 0.498397
11.84 0.509443
11.85 0.51943
11.86 0.528177
11.87 0.535747
11.88 0.542116
11.89 0.547258
11.9 0.551159
11.91 0.553809
11.92 0.555156
11.93 0.555173
11.94 0.553967
11.95 0.551558
11.96 0.547971
11.97 0.543233
11.98 0.537375
11.99 0.530323
12 0.522196
12.01 0.513047
12.02 0.502904
12.03 0.491796
12.04 0.479753
12.05 0.466771
12.06 0.452837
12.07 0.438055
12.08 0.422454
12.09 0.406068
12.1 0.388933
12.11 0.371089
12.12 0.352532
12.13 0.333359
12.14 0.313653
12.15 0.293487
12.16 0.272941
12.17 0.252104
12.18 0.231071
12.19 0.209958
12.2 0.188895
12.21 0.168004
12.22 0.147409
12.23 0.127238
12.24 0.10762
12.25 0.0887433
12.26 0.0707251
12.27 0.0536526
