# xPDFsuite Configuration #
[PDF]
wavelength = 0.1
dataformat = QA
inputfile = BiMsol6_insitu_700 C-00098.xy
backgroundfile = Quartz2mm-dist500-00000.xy
mode = xray
bgscale = 0.0042
composition = Bi2Fe4O9
outputtype = gr
qmaxinst = 24.998449118
qmin = 0.1
qmax = 21.4986662415
rmax = 80.0
rmin = 0.0
rstep = 0.01
rpoly = 0.9

[Misc]
inputdir = C:/Data/Seafile/CPH/Beamtime/Desy Oct 20/In situ data/Processed/BiMsol6/PDF
savedir = C:/Data/Seafile/CPH/Beamtime/Desy Oct 20/In situ data/PDF/BiMsol6
backgroundfilefull = C:/Data/Seafile/CPH/Beamtime/Desy Oct 20/In situ data/Processed/Standard_Empty_Cap/Quartz2mm-dist500-00000.xy

#### start data
#S 1
#L r($\AA$)  G($\AA^{-2}$)
0 0
0.01 0.00665601
0.02 0.0129404
0.03 0.018535
0.04 0.0231543
0.05 0.0265586
0.06 0.0285649
0.07 0.0289727
0.08 0.027723
0.09 0.0249624
0.1 0.0208107
0.11 0.0154549
0.12 0.00914003
0.13 0.00215904
0.14 -0.00515961
0.15 -0.0124001
0.16 -0.0192119
0.17 -0.0252658
0.18 -0.0302665
0.19 -0.0339666
0.2 -0.036112
0.21 -0.0365277
0.22 -0.0353117
0.23 -0.0325295
0.24 -0.0283263
0.25 -0.0229226
0.26 -0.0166056
0.27 -0.00970083
0.28 -0.00268188
0.29 0.00403013
0.3 0.0100264
0.31 0.0149179
0.32 0.0183547
0.33 0.0199824
0.34 0.0194541
0.35 0.0168193
0.36 0.0120725
0.37 0.00531379
0.38 -0.00324925
0.39 -0.0133051
0.4 -0.0244936
0.41 -0.0361902
0.42 -0.0477824
0.43 -0.0586477
0.44 -0.0681426
0.45 -0.0756265
0.46 -0.080423
0.47 -0.0816633
0.48 -0.0791582
0.49 -0.0725582
0.5 -0.0616378
0.51 -0.04631
0.52 -0.0266361
0.53 -0.0025585
0.54 0.0253606
0.55 0.0563851
0.56 0.0898289
0.57 0.124892
0.58 0.160682
0.59 0.196228
0.6 0.230289
0.61 0.26191
0.62 0.290124
0.63 0.314032
0.64 0.332824
0.65 0.345814
0.66 0.352044
0.67 0.351143
0.68 0.343315
0.69 0.328595
0.7 0.307205
0.71 0.279546
0.72 0.246192
0.73 0.207398
0.74 0.164682
0.75 0.119043
0.76 0.0715364
0.77 0.0232514
0.78 -0.0247196
0.79 -0.0711906
0.8 -0.114985
0.81 -0.155325
0.82 -0.191454
0.83 -0.22276
0.84 -0.248788
0.85 -0.269252
0.86 -0.283459
0.87 -0.292016
0.88 -0.295268
0.89 -0.293629
0.9 -0.287642
0.91 -0.277956
0.92 -0.26522
0.93 -0.250252
0.94 -0.234088
0.95 -0.217529
0.96 -0.201343
0.97 -0.186233
0.98 -0.172822
0.99 -0.161872
1 -0.153665
1.01 -0.148389
1.02 -0.146162
1.03 -0.146976
1.04 -0.150703
1.05 -0.157172
1.06 -0.166136
1.07 -0.176939
1.08 -0.189102
1.09 -0.202121
1.1 -0.21548
1.11 -0.228681
1.12 -0.241169
1.13 -0.252512
1.14 -0.262405
1.15 -0.270597
1.16 -0.276924
1.17 -0.281311
1.18 -0.283743
1.19 -0.284191
1.2 -0.283041
1.21 -0.280549
1.22 -0.27702
1.23 -0.272788
1.24 -0.268204
1.25 -0.263639
1.26 -0.259466
1.27 -0.255966
1.28 -0.253372
1.29 -0.251859
1.3 -0.251531
1.31 -0.25243
1.32 -0.254628
1.33 -0.257864
1.34 -0.26195
1.35 -0.266647
1.36 -0.271676
1.37 -0.27673
1.38 -0.281455
1.39 -0.285491
1.4 -0.288571
1.41 -0.290444
1.42 -0.29091
1.43 -0.289829
1.44 -0.287128
1.45 -0.282632
1.46 -0.27661
1.47 -0.269234
1.48 -0.260736
1.49 -0.251402
1.5 -0.241564
1.51 -0.231602
1.52 -0.22196
1.53 -0.213026
1.54 -0.205163
1.55 -0.198698
1.56 -0.19391
1.57 -0.191016
1.58 -0.190373
1.59 -0.191865
1.6 -0.195414
1.61 -0.200894
1.62 -0.208093
1.63 -0.216726
1.64 -0.226465
1.65 -0.23687
1.66 -0.247404
1.67 -0.257594
1.68 -0.266966
1.69 -0.275061
1.7 -0.281452
1.71 -0.285546
1.72 -0.287133
1.73 -0.286054
1.74 -0.282177
1.75 -0.275462
1.76 -0.265962
1.77 -0.253758
1.78 -0.238963
1.79 -0.222143
1.8 -0.203689
1.81 -0.18404
1.82 -0.163667
1.83 -0.143059
1.84 -0.122761
1.85 -0.103288
1.86 -0.0850493
1.87 -0.0684097
1.88 -0.0536692
1.89 -0.0410515
1.9 -0.0307318
1.91 -0.0229637
1.92 -0.0174577
1.93 -0.0140768
1.94 -0.0126095
1.95 -0.0127801
1.96 -0.0142609
1.97 -0.0167228
1.98 -0.0197024
1.99 -0.0227643
2 -0.0255324
2.01 -0.0276615
2.02 -0.0288521
2.03 -0.0288569
2.04 -0.0273407
2.05 -0.0243653
2.06 -0.0199333
2.07 -0.0141275
2.08 -0.00710765
2.09 0.000894964
2.1 0.00960504
2.11 0.0186187
2.12 0.0275063
2.13 0.0358582
2.14 0.0432622
2.15 0.0493187
2.16 0.0536566
2.17 0.0556932
2.18 0.055351
2.19 0.0524602
2.2 0.0469129
2.21 0.0386825
2.22 0.0278261
2.23 0.0143804
2.24 -0.00145332
2.25 -0.0191923
2.26 -0.0384717
2.27 -0.0588807
2.28 -0.0799759
2.29 -0.101297
2.3 -0.122311
2.31 -0.142542
2.32 -0.161583
2.33 -0.179068
2.34 -0.194684
2.35 -0.208185
2.36 -0.219315
2.37 -0.227857
2.38 -0.234003
2.39 -0.237829
2.4 -0.23948
2.41 -0.239166
2.42 -0.23715
2.43 -0.233646
2.44 -0.229121
2.45 -0.223971
2.46 -0.218559
2.47 -0.213232
2.48 -0.208317
2.49 -0.204128
2.5 -0.201006
2.51 -0.199062
2.52 -0.198423
2.53 -0.199153
2.54 -0.20126
2.55 -0.204693
2.56 -0.209429
2.57 -0.215247
2.58 -0.221898
2.59 -0.229154
2.6 -0.236771
2.61 -0.244495
2.62 -0.252069
2.63 -0.259193
2.64 -0.265674
2.65 -0.271331
2.66 -0.276018
2.67 -0.27963
2.68 -0.282105
2.69 -0.283347
2.7 -0.283406
2.71 -0.282412
2.72 -0.280471
2.73 -0.277715
2.74 -0.274298
2.75 -0.270386
2.76 -0.266136
2.77 -0.26177
2.78 -0.257447
2.79 -0.253308
2.8 -0.249471
2.81 -0.246028
2.82 -0.243066
2.83 -0.240619
2.84 -0.238647
2.85 -0.237109
2.86 -0.235938
2.87 -0.235042
2.88 -0.234311
2.89 -0.233613
2.9 -0.2328
2.91 -0.231742
2.92 -0.230313
2.93 -0.228403
2.94 -0.225915
2.95 -0.222744
2.96 -0.218814
2.97 -0.214153
2.98 -0.208771
2.99 -0.202699
3 -0.195994
3.01 -0.188732
3.02 -0.180974
3.03 -0.172873
3.04 -0.164556
3.05 -0.156137
3.06 -0.14773
3.07 -0.139437
3.08 -0.131357
3.09 -0.123586
3.1 -0.11615
3.11 -0.109073
3.12 -0.102354
3.13 -0.0959685
3.14 -0.0898688
3.15 -0.0839978
3.16 -0.078244
3.17 -0.0724965
3.18 -0.0666421
3.19 -0.0605627
3.2 -0.05414
3.21 -0.0472482
3.22 -0.039728
3.23 -0.0315368
3.24 -0.0226035
3.25 -0.0128758
3.26 -0.00232265
3.27 0.00906554
3.28 0.0213347
3.29 0.0344184
3.3 0.048224
3.31 0.0626781
3.32 0.0776943
3.33 0.0931764
3.34 0.109025
3.35 0.125147
3.36 0.141405
3.37 0.157701
3.38 0.173949
3.39 0.19007
3.4 0.206002
3.41 0.221676
3.42 0.237055
3.43 0.252135
3.44 0.266911
3.45 0.281388
3.46 0.295581
3.47 0.309512
3.48 0.323181
3.49 0.336642
3.5 0.349917
3.51 0.363022
3.52 0.375963
3.53 0.388739
3.54 0.401322
3.55 0.413674
3.56 0.425762
3.57 0.437525
3.58 0.448893
3.59 0.459782
3.6 0.470101
3.61 0.47967
3.62 0.488437
3.63 0.496308
3.64 0.503181
3.65 0.508963
3.66 0.513566
3.67 0.516862
3.68 0.518736
3.69 0.51924
3.7 0.51835
3.71 0.516057
3.72 0.512371
3.73 0.507318
3.74 0.500825
3.75 0.493052
3.76 0.484108
3.77 0.474082
3.78 0.463071
3.79 0.451182
3.8 0.438508
3.81 0.425141
3.82 0.411261
3.83 0.396984
3.84 0.38242
3.85 0.367677
3.86 0.352857
3.87 0.338062
3.88 0.32339
3.89 0.308917
3.9 0.294712
3.91 0.280836
3.92 0.267342
3.93 0.254283
3.94 0.241736
3.95 0.229683
3.96 0.218143
3.97 0.207126
3.98 0.196635
3.99 0.186665
4 0.177237
4.01 0.168316
4.02 0.159847
4.03 0.151797
4.04 0.144121
4.05 0.136771
4.06 0.129697
4.07 0.122853
4.08 0.116151
4.09 0.109526
4.1 0.102917
4.11 0.096263
4.12 0.0895062
4.13 0.082583
4.14 0.0754442
4.15 0.0680665
4.16 0.0604284
4.17 0.052521
4.18 0.0443481
4.19 0.0359279
4.2 0.027273
4.21 0.0184597
4.22 0.00955066
4.23 0.000618964
4.24 -0.00825309
4.25 -0.0169762
4.26 -0.0254398
4.27 -0.0335285
4.28 -0.0411673
4.29 -0.04827
4.3 -0.054759
4.31 -0.0605688
4.32 -0.0656485
4.33 -0.0698842
4.34 -0.0733293
4.35 -0.0760051
4.36 -0.077942
4.37 -0.0791902
4.38 -0.0798189
4.39 -0.0798982
4.4 -0.0795275
4.41 -0.0788632
4.42 -0.0780279
4.43 -0.0771476
4.44 -0.0763474
4.45 -0.0757475
4.46 -0.0754967
4.47 -0.0756821
4.48 -0.0763721
4.49 -0.0776236
4.5 -0.0794717
4.51 -0.0819281
4.52 -0.0849955
4.53 -0.0886655
4.54 -0.0928205
4.55 -0.0973765
4.56 -0.102233
4.57 -0.107274
4.58 -0.112378
4.59 -0.117398
4.6 -0.122192
4.61 -0.126639
4.62 -0.130625
4.63 -0.13405
4.64 -0.136831
4.65 -0.138892
4.66 -0.140129
4.67 -0.140602
4.68 -0.140327
4.69 -0.139341
4.7 -0.137704
4.71 -0.135496
4.72 -0.132789
4.73 -0.129721
4.74 -0.126436
4.75 -0.12306
4.76 -0.119718
4.77 -0.11653
4.78 -0.11361
4.79 -0.111105
4.8 -0.10906
4.81 -0.107536
4.82 -0.106569
4.83 -0.106177
4.84 -0.106356
4.85 -0.107108
4.86 -0.108383
4.87 -0.110083
4.88 -0.112132
4.89 -0.114443
4.9 -0.116926
4.91 -0.119486
4.92 -0.122023
4.93 -0.124447
4.94 -0.126685
4.95 -0.128677
4.96 -0.130381
4.97 -0.131768
4.98 -0.132811
4.99 -0.133512
5 -0.133922
5.01 -0.13408
5.02 -0.134038
5.03 -0.133859
5.04 -0.133608
5.05 -0.133364
5.06 -0.133201
5.07 -0.133182
5.08 -0.133361
5.09 -0.133783
5.1 -0.134477
5.11 -0.135471
5.12 -0.136774
5.13 -0.138345
5.14 -0.140147
5.15 -0.142134
5.16 -0.144244
5.17 -0.146409
5.18 -0.148545
5.19 -0.150564
5.2 -0.152391
5.21 -0.153953
5.22 -0.155184
5.23 -0.15603
5.24 -0.15644
5.25 -0.156353
5.26 -0.155805
5.27 -0.154806
5.28 -0.153382
5.29 -0.151575
5.3 -0.14944
5.31 -0.147029
5.32 -0.144436
5.33 -0.141752
5.34 -0.139057
5.35 -0.136429
5.36 -0.133939
5.37 -0.131652
5.38 -0.129647
5.39 -0.127931
5.4 -0.126522
5.41 -0.125415
5.42 -0.124594
5.43 -0.124022
5.44 -0.12366
5.45 -0.12343
5.46 -0.123248
5.47 -0.123034
5.48 -0.122704
5.49 -0.122178
5.5 -0.121377
5.51 -0.120189
5.52 -0.118595
5.53 -0.116557
5.54 -0.114056
5.55 -0.111088
5.56 -0.107671
5.57 -0.103821
5.58 -0.0995979
5.59 -0.0951004
5.6 -0.0904126
5.61 -0.0856277
5.62 -0.0808443
5.63 -0.076162
5.64 -0.071709
5.65 -0.0675623
5.66 -0.0637954
5.67 -0.060468
5.68 -0.057622
5.69 -0.0552789
5.7 -0.0534602
5.71 -0.0521515
5.72 -0.0512672
5.73 -0.0507385
5.74 -0.0504792
5.75 -0.0503891
5.76 -0.0503573
5.77 -0.0502489
5.78 -0.0499365
5.79 -0.0493069
5.8 -0.0482547
5.81 -0.0466874
5.82 -0.0445296
5.83 -0.0417038
5.84 -0.0381425
5.85 -0.0339003
5.86 -0.0290025
5.87 -0.0234991
5.88 -0.0174643
5.89 -0.010993
5.9 -0.00418248
5.91 0.00280394
5.92 0.00981734
5.93 0.0167149
5.94 0.0233558
5.95 0.0296058
5.96 0.0353288
5.97 0.0403627
5.98 0.0446794
5.99 0.0482245
6 0.0509706
6.01 0.0529178
6.02 0.0540949
6.03 0.0545104
6.04 0.0542846
6.05 0.0535572
6.06 0.0524561
6.07 0.0511228
6.08 0.0497072
6.09 0.0483652
6.1 0.0472866
6.11 0.0466012
6.12 0.046435
6.13 0.0468957
6.14 0.0480683
6.15 0.0500125
6.16 0.0528119
6.17 0.0564569
6.18 0.060871
6.19 0.0659929
6.2 0.071736
6.21 0.0779911
6.22 0.0846305
6.23 0.0915223
6.24 0.0984715
6.25 0.105322
6.26 0.111919
6.27 0.118117
6.28 0.123782
6.29 0.128756
6.3 0.132921
6.31 0.136253
6.32 0.138708
6.33 0.14027
6.34 0.14095
6.35 0.140782
6.36 0.139751
6.37 0.138021
6.38 0.135703
6.39 0.13291
6.4 0.129765
6.41 0.126394
6.42 0.122924
6.43 0.119492
6.44 0.116214
6.45 0.113185
6.46 0.110485
6.47 0.108177
6.48 0.106302
6.49 0.104925
6.5 0.104013
6.51 0.103532
6.52 0.103443
6.53 0.103691
6.54 0.104208
6.55 0.104923
6.56 0.105747
6.57 0.10658
6.58 0.107339
6.59 0.107946
6.6 0.10833
6.61 0.10843
6.62 0.108167
6.63 0.107519
6.64 0.106479
6.65 0.105045
6.66 0.103227
6.67 0.101046
6.68 0.0985313
6.69 0.0957111
6.7 0.0926687
6.71 0.0894609
6.72 0.0861465
6.73 0.0827841
6.74 0.0794297
6.75 0.076143
6.76 0.0729733
6.77 0.0699538
6.78 0.0671125
6.79 0.0644681
6.8 0.0620309
6.81 0.0598041
6.82 0.0578003
6.83 0.0559822
6.84 0.05433
6.85 0.0528203
6.86 0.0514274
6.87 0.0501248
6.88 0.0488891
6.89 0.047693
6.9 0.0465133
6.91 0.045334
6.92 0.0441439
6.93 0.0429364
6.94 0.0417092
6.95 0.0404633
6.96 0.0392072
6.97 0.0379501
6.98 0.0367023
6.99 0.0354746
7 0.0342772
7.01 0.0331204
7.02 0.0320109
7.03 0.0309467
7.04 0.0299242
7.05 0.0289353
7.06 0.0279672
7.07 0.0270026
7.08 0.0260158
7.09 0.0249808
7.1 0.0238708
7.11 0.0226577
7.12 0.0213141
7.13 0.0198144
7.14 0.0181281
7.15 0.0162275
7.16 0.014116
7.17 0.0117892
7.18 0.0092502
7.19 0.00650968
7.2 0.00358625
7.21 0.00049476
7.22 -0.00271578
7.23 -0.00600037
7.24 -0.00931294
7.25 -0.0126038
7.26 -0.0158211
7.27 -0.0189075
7.28 -0.0217942
7.29 -0.0244459
7.3 -0.0268197
7.31 -0.0288789
7.32 -0.0305937
7.33 -0.0319426
7.34 -0.0328818
7.35 -0.033426
7.36 -0.0335967
7.37 -0.0334109
7.38 -0.0328935
7.39 -0.0320769
7.4 -0.0309963
7.41 -0.0296836
7.42 -0.0282122
7.43 -0.0266324
7.44 -0.0249948
7.45 -0.0233489
7.46 -0.0217422
7.47 -0.0202274
7.48 -0.0188471
7.49 -0.01763
7.5 -0.0166031
7.51 -0.0157873
7.52 -0.0151973
7.53 -0.014843
7.54 -0.0147518
7.55 -0.0148937
7.56 -0.0152601
7.57 -0.0158388
7.58 -0.0166145
7.59 -0.0175695
7.6 -0.0186927
7.61 -0.0199604
7.62 -0.021343
7.63 -0.0228202
7.64 -0.0243724
7.65 -0.0259809
7.66 -0.0276279
7.67 -0.0292976
7.68 -0.0309708
7.69 -0.0326332
7.7 -0.0342713
7.71 -0.0358723
7.72 -0.0374241
7.73 -0.0389116
7.74 -0.0403203
7.75 -0.0416439
7.76 -0.0428727
7.77 -0.0439973
7.78 -0.0450097
7.79 -0.0459033
7.8 -0.0466601
7.81 -0.0472877
7.82 -0.0477882
7.83 -0.0481645
7.84 -0.0484221
7.85 -0.0485697
7.86 -0.0486159
7.87 -0.0485737
7.88 -0.0484682
7.89 -0.0483188
7.9 -0.048146
7.91 -0.0479707
7.92 -0.0478135
7.93 -0.0476988
7.94 -0.0476429
7.95 -0.0476577
7.96 -0.0477519
7.97 -0.0479293
7.98 -0.0481883
7.99 -0.0485229
8 -0.048921
8.01 -0.0493551
8.02 -0.0497989
8.03 -0.0502215
8.04 -0.0505882
8.05 -0.0508623
8.06 -0.0509921
8.07 -0.0509406
8.08 -0.0506786
8.09 -0.0501756
8.1 -0.0494071
8.11 -0.0483561
8.12 -0.0470097
8.13 -0.045345
8.14 -0.0434062
8.15 -0.0412188
8.16 -0.0388184
8.17 -0.0362509
8.18 -0.0335713
8.19 -0.030844
8.2 -0.0281492
8.21 -0.0255624
8.22 -0.0231579
8.23 -0.0210084
8.24 -0.0191827
8.25 -0.0177441
8.26 -0.0167989
8.27 -0.0163398
8.28 -0.0163911
8.29 -0.0169618
8.3 -0.0180451
8.31 -0.0196173
8.32 -0.0216607
8.33 -0.0241106
8.34 -0.0268664
8.35 -0.0298426
8.36 -0.0329438
8.37 -0.0360681
8.38 -0.0391095
8.39 -0.0419292
8.4 -0.0444336
8.41 -0.0465289
8.42 -0.0481301
8.43 -0.049165
8.44 -0.0495771
8.45 -0.0492957
8.46 -0.048282
8.47 -0.0465882
8.48 -0.0442381
8.49 -0.0412743
8.5 -0.0377567
8.51 -0.0337611
8.52 -0.0293477
8.53 -0.024659
8.54 -0.0198095
8.55 -0.0149091
8.56 -0.0100665
8.57 -0.00538627
8.58 -0.000977216
8.59 0.00304772
8.6 0.0066428
8.61 0.00975535
8.62 0.0123499
8.63 0.0144091
8.64 0.0159335
8.65 0.0168991
8.66 0.0173772
8.67 0.0174356
8.68 0.0171388
8.69 0.0165598
8.7 0.0157778
8.71 0.0148738
8.72 0.0139367
8.73 0.013053
8.74 0.0122919
8.75 0.0117131
8.76 0.0113647
8.77 0.0112818
8.78 0.0115076
8.79 0.0120373
8.8 0.0128474
8.81 0.0139137
8.82 0.0152001
8.83 0.016661
8.84 0.018244
8.85 0.0198894
8.86 0.0215253
8.87 0.0230927
8.88 0.0245363
8.89 0.0258074
8.9 0.0268654
8.91 0.0276627
8.92 0.0281821
8.93 0.0284327
8.94 0.0284228
8.95 0.028172
8.96 0.0277108
8.97 0.0270783
8.98 0.0263132
8.99 0.025487
9 0.0246543
9.01 0.0238691
9.02 0.0231823
9.03 0.0226394
9.04 0.0222898
9.05 0.0221667
9.06 0.0222729
9.07 0.0226111
9.08 0.0231721
9.09 0.0239347
9.1 0.024867
9.11 0.0259353
9.12 0.027071
9.13 0.0282161
9.14 0.0293109
9.15 0.0302955
9.16 0.0311124
9.17 0.0316979
9.18 0.0319932
9.19 0.031983
9.2 0.0316465
9.21 0.0309756
9.22 0.029976
9.23 0.0286668
9.24 0.027058
9.25 0.0252219
9.26 0.0232218
9.27 0.0211233
9.28 0.0189972
9.29 0.0169175
9.3 0.0149639
9.31 0.0132266
9.32 0.0117569
9.33 0.0106085
9.34 0.00982364
9.35 0.00943149
9.36 0.00944665
9.37 0.00990155
9.38 0.0107541
9.39 0.0119559
9.4 0.0134583
9.41 0.0152008
9.42 0.0171129
9.43 0.0191172
9.44 0.0211217
9.45 0.0230361
9.46 0.0247802
9.47 0.0262797
9.48 0.0274686
9.49 0.0282922
9.5 0.0286768
9.51 0.0286064
9.52 0.0280924
9.53 0.0271442
9.54 0.0257871
9.55 0.0240612
9.56 0.0220179
9.57 0.0197064
9.58 0.0172354
9.59 0.0146859
9.6 0.0121411
9.61 0.00968333
9.62 0.00739112
9.63 0.00535494
9.64 0.0036426
9.65 0.00228734
9.66 0.00132193
9.67 0.000764147
9.68 0.000616248
9.69 0.000865045
9.7 0.00152034
9.71 0.00249227
9.72 0.00372416
9.73 0.00515109
9.74 0.00670199
9.75 0.00830241
9.76 0.00987227
9.77 0.0113277
9.78 0.0126065
9.79 0.0136524
9.8 0.0144203
9.81 0.0148775
9.82 0.0150052
9.83 0.0147651
9.84 0.0142017
9.85 0.0133473
9.86 0.0122423
9.87 0.010938
9.88 0.00949472
9.89 0.00797925
9.9 0.0064723
9.91 0.00504969
9.92 0.00377992
9.93 0.00272612
9.94 0.00194365
9.95 0.00147792
9.96 0.00139734
9.97 0.00169809
9.98 0.00237471
9.99 0.00341612
10 0.00479764
10.01 0.00648192
10.02 0.0084259
10.03 0.010574
10.04 0.0128377
10.05 0.0151458
10.06 0.0174256
10.07 0.0196053
10.08 0.0216167
10.09 0.0233739
10.1 0.0248284
10.11 0.0259471
10.12 0.0267001
10.13 0.02707
10.14 0.027052
10.15 0.0266476
10.16 0.0258512
10.17 0.0247341
10.18 0.023339
10.19 0.0217159
10.2 0.0199203
10.21 0.0180106
10.22 0.0160471
10.23 0.0140973
10.24 0.0122172
10.25 0.0104553
10.26 0.00885279
10.27 0.00744285
10.28 0.00625111
10.29 0.00531654
10.3 0.00461721
10.31 0.00414645
10.32 0.00388933
10.33 0.00382371
10.34 0.00392149
10.35 0.00415571
10.36 0.00448477
10.37 0.00486472
10.38 0.00525953
10.39 0.00563538
10.4 0.00596185
10.41 0.00621302
10.42 0.00635569
10.43 0.00638519
10.44 0.00629466
10.45 0.00608267
10.46 0.00575315
10.47 0.00531477
10.48 0.00477616
10.49 0.00415382
10.5 0.00347166
10.51 0.00274757
10.52 0.00199868
10.53 0.00124048
10.54 0.000485989
10.55 -0.000252886
10.56 -0.000971044
10.57 -0.00166717
10.58 -0.00234337
10.59 -0.00300497
10.6 -0.00366003
10.61 -0.00431916
10.62 -0.00499566
10.63 -0.00570014
10.64 -0.00644241
10.65 -0.00723006
10.66 -0.00806763
10.67 -0.00895578
10.68 -0.00989426
10.69 -0.0108696
10.7 -0.0118658
10.71 -0.0128635
10.72 -0.0138393
10.73 -0.0147662
10.74 -0.0156122
10.75 -0.0163356
10.76 -0.016914
10.77 -0.017319
10.78 -0.0175259
10.79 -0.0175144
10.8 -0.0172703
10.81 -0.0167672
10.82 -0.0160174
10.83 -0.0150413
10.84 -0.0138589
10.85 -0.0124988
10.86 -0.0109972
10.87 -0.00939693
10.88 -0.00774973
10.89 -0.00611911
10.9 -0.00456153
10.91 -0.00313362
10.92 -0.00189009
10.93 -0.000881833
10.94 -0.000175829
10.95 0.000192222
10.96 0.000210818
10.97 -0.000134606
10.98 -0.00084696
10.99 -0.00191705
11 -0.00332489
11.01 -0.0050648
11.02 -0.00705255
11.03 -0.00923188
11.04 -0.0115389
11.05 -0.013904
11.06 -0.0162542
11.07 -0.0185055
11.08 -0.0205737
11.09 -0.0223968
11.1 -0.0239133
11.11 -0.0250705
11.12 -0.0258257
11.13 -0.026148
11.14 -0.0259688
11.15 -0.0253323
11.16 -0.0242537
11.17 -0.0227582
11.18 -0.0208828
11.19 -0.0186754
11.2 -0.0161833
11.21 -0.0134759
11.22 -0.0106419
11.23 -0.00775342
11.24 -0.00488226
11.25 -0.00209758
11.26 0.000536169
11.27 0.0029355
11.28 0.00506445
11.29 0.00689008
11.3 0.00838655
11.31 0.00953928
11.32 0.010345
11.33 0.0108002
11.34 0.0109116
11.35 0.010736
11.36 0.01031
11.37 0.00967535
11.38 0.00887773
11.39 0.00796447
11.4 0.00698092
11.41 0.00598139
11.42 0.00500802
11.43 0.00409575
11.44 0.00327294
11.45 0.00256069
11.46 0.00197544
11.47 0.00153121
11.48 0.00121209
11.49 0.00100706
11.5 0.000899249
11.51 0.000867053
11.52 0.000885505
11.53 0.000927352
11.54 0.000960863
11.55 0.000959615
11.56 0.00090086
11.57 0.00076593
11.58 0.000541213
11.59 0.000217585
11.6 -0.000214896
11.61 -0.000739329
11.62 -0.00134294
11.63 -0.00200737
11.64 -0.00270944
11.65 -0.00342223
11.66 -0.0041129
11.67 -0.0047465
11.68 -0.00529416
11.69 -0.00572787
11.7 -0.0060231
11.71 -0.00615992
11.72 -0.00612372
11.73 -0.00588627
11.74 -0.00546898
11.75 -0.00488036
11.76 -0.00413599
11.77 -0.00325809
11.78 -0.00227469
11.79 -0.00121683
11.8 -0.000126797
11.81 0.000952207
11.82 0.00198096
11.83 0.00292159
