# xPDFsuite Configuration #
[PDF]
wavelength = 0.1
dataformat = QA
inputfile = BiMsol6_insitu_700 C-00674.xy
backgroundfile = Quartz2mm-dist500-00000.xy
mode = xray
bgscale = 0.0042
composition = Bi2Fe4O9
outputtype = gr
qmaxinst = 24.998449118
qmin = 0.1
qmax = 21.4986662415
rmax = 80.0
rmin = 0.0
rstep = 0.01
rpoly = 0.9

[Misc]
inputdir = C:/Data/Seafile/CPH/Beamtime/Desy Oct 20/In situ data/Processed/BiMsol6/PDF
savedir = C:/Data/Seafile/CPH/Beamtime/Desy Oct 20/In situ data/PDF/BiMsol6
backgroundfilefull = C:/Data/Seafile/CPH/Beamtime/Desy Oct 20/In situ data/Processed/Standard_Empty_Cap/Quartz2mm-dist500-00000.xy

#### start data
#S 1
#L r($\AA$)  G($\AA^{-2}$)
0 0
0.01 0.00641995
0.02 0.0124759
0.03 0.0178564
0.04 0.022282
0.05 0.0255182
0.06 0.0273863
0.07 0.0276912
0.08 0.0263763
0.09 0.0235861
0.1 0.0194396
0.11 0.0141212
0.12 0.00787241
0.13 0.00098136
0.14 -0.00622792
0.15 -0.0133485
0.16 -0.0200372
0.17 -0.0259719
0.18 -0.0308645
0.19 -0.0344743
0.2 -0.0365544
0.21 -0.036937
0.22 -0.035722
0.23 -0.0329774
0.24 -0.0288498
0.25 -0.0235597
0.26 -0.0173926
0.27 -0.0106738
0.28 -0.00386968
0.29 0.00260505
0.3 0.00834803
0.31 0.0129773
0.32 0.0161503
0.33 0.0175205
0.34 0.0167499
0.35 0.0138935
0.36 0.00895148
0.37 0.00202843
0.38 -0.00666517
0.39 -0.0168161
0.4 -0.0280614
0.41 -0.0397802
0.42 -0.0513645
0.43 -0.0621967
0.44 -0.071639
0.45 -0.0790576
0.46 -0.0837835
0.47 -0.0849565
0.48 -0.0823952
0.49 -0.0757565
0.5 -0.0648206
0.51 -0.0495048
0.52 -0.029873
0.53 -0.00587019
0.54 0.0219443
0.55 0.0528401
0.56 0.0861377
0.57 0.121046
0.58 0.156683
0.59 0.192091
0.6 0.226046
0.61 0.257607
0.62 0.285823
0.63 0.309806
0.64 0.328762
0.65 0.342016
0.66 0.348626
0.67 0.348229
0.68 0.341025
0.69 0.327048
0.7 0.306513
0.71 0.279816
0.72 0.247514
0.73 0.209851
0.74 0.168316
0.75 0.123881
0.76 0.0775733
0.77 0.030454
0.78 -0.0164151
0.79 -0.0618852
0.8 -0.104815
0.81 -0.144449
0.82 -0.180055
0.83 -0.211042
0.84 -0.236972
0.85 -0.257571
0.86 -0.272176
0.87 -0.281375
0.88 -0.2855
0.89 -0.284953
0.9 -0.280258
0.91 -0.272042
0.92 -0.260928
0.93 -0.247703
0.94 -0.233354
0.95 -0.218646
0.96 -0.204308
0.97 -0.191005
0.98 -0.179324
0.99 -0.169982
1 -0.163234
1.01 -0.159247
1.02 -0.158121
1.03 -0.159835
1.04 -0.164253
1.05 -0.171197
1.06 -0.180419
1.07 -0.191289
1.08 -0.203348
1.09 -0.216115
1.1 -0.229099
1.11 -0.241829
1.12 -0.253777
1.13 -0.26455
1.14 -0.273872
1.15 -0.28152
1.16 -0.287353
1.17 -0.29132
1.18 -0.29342
1.19 -0.293647
1.2 -0.292381
1.21 -0.289881
1.22 -0.286444
1.23 -0.282396
1.24 -0.278074
1.25 -0.273837
1.26 -0.270032
1.27 -0.266918
1.28 -0.264707
1.29 -0.263553
1.3 -0.263541
1.31 -0.264697
1.32 -0.267071
1.33 -0.2704
1.34 -0.274492
1.35 -0.279108
1.36 -0.283974
1.37 -0.288793
1.38 -0.293219
1.39 -0.296911
1.4 -0.299623
1.41 -0.301125
1.42 -0.301237
1.43 -0.299836
1.44 -0.296867
1.45 -0.292179
1.46 -0.286044
1.47 -0.278642
1.48 -0.270203
1.49 -0.261009
1.5 -0.251385
1.51 -0.241698
1.52 -0.23237
1.53 -0.223764
1.54 -0.216215
1.55 -0.210025
1.56 -0.205443
1.57 -0.20266
1.58 -0.201994
1.59 -0.203315
1.6 -0.206533
1.61 -0.211509
1.62 -0.218029
1.63 -0.22581
1.64 -0.234531
1.65 -0.243764
1.66 -0.253015
1.67 -0.261842
1.68 -0.269811
1.69 -0.276503
1.7 -0.281539
1.71 -0.284384
1.72 -0.284876
1.73 -0.282895
1.74 -0.27835
1.75 -0.271236
1.76 -0.261631
1.77 -0.249645
1.78 -0.235422
1.79 -0.219495
1.8 -0.202243
1.81 -0.184081
1.82 -0.165448
1.83 -0.146794
1.84 -0.128623
1.85 -0.111381
1.86 -0.0954118
1.87 -0.0810211
1.88 -0.0684482
1.89 -0.0578593
1.9 -0.0493733
1.91 -0.0431717
1.92 -0.0389501
1.93 -0.0365461
1.94 -0.0357343
1.95 -0.0362366
1.96 -0.0377351
1.97 -0.0399054
1.98 -0.0423295
1.99 -0.044633
2 -0.0464948
2.01 -0.0476324
2.02 -0.0478132
2.03 -0.0468603
2.04 -0.0445304
2.05 -0.0409449
2.06 -0.0361684
2.07 -0.0303385
2.08 -0.023661
2.09 -0.016402
2.1 -0.00888422
2.11 -0.00152283
2.12 0.00528547
2.13 0.0111515
2.14 0.0156957
2.15 0.0185631
2.16 0.0194374
2.17 0.0177834
2.18 0.0136223
2.19 0.00686015
2.2 -0.0025361
2.21 -0.0145194
2.22 -0.0289632
2.23 -0.0457541
2.24 -0.0646211
2.25 -0.0850562
2.26 -0.106663
2.27 -0.129013
2.28 -0.151655
2.29 -0.174135
2.3 -0.195907
2.31 -0.216558
2.32 -0.235731
2.33 -0.253106
2.34 -0.268429
2.35 -0.28151
2.36 -0.292154
2.37 -0.30021
2.38 -0.30593
2.39 -0.309437
2.4 -0.31092
2.41 -0.31062
2.42 -0.308824
2.43 -0.305781
2.44 -0.301941
2.45 -0.297689
2.46 -0.293365
2.47 -0.289289
2.48 -0.285753
2.49 -0.283032
2.5 -0.281423
2.51 -0.280984
2.52 -0.281797
2.53 -0.283888
2.54 -0.287228
2.55 -0.291738
2.56 -0.297358
2.57 -0.303859
2.58 -0.310997
2.59 -0.318553
2.6 -0.326296
2.61 -0.333996
2.62 -0.341426
2.63 -0.348315
2.64 -0.354524
2.65 -0.359913
2.66 -0.364376
2.67 -0.367845
2.68 -0.370293
2.69 -0.371664
2.7 -0.372027
2.71 -0.371519
2.72 -0.370245
2.73 -0.368332
2.74 -0.365919
2.75 -0.36315
2.76 -0.360158
2.77 -0.357114
2.78 -0.354137
2.79 -0.351326
2.8 -0.34876
2.81 -0.34649
2.82 -0.344564
2.83 -0.342983
2.84 -0.3417
2.85 -0.340668
2.86 -0.339823
2.87 -0.339088
2.88 -0.33838
2.89 -0.337594
2.9 -0.336641
2.91 -0.335445
2.92 -0.333937
2.93 -0.332062
2.94 -0.329781
2.95 -0.327049
2.96 -0.323848
2.97 -0.320219
2.98 -0.316184
2.99 -0.311774
3 -0.307025
3.01 -0.301973
3.02 -0.296625
3.03 -0.291027
3.04 -0.28519
3.05 -0.279103
3.06 -0.272735
3.07 -0.266031
3.08 -0.258899
3.09 -0.251195
3.1 -0.242827
3.11 -0.233651
3.12 -0.22351
3.13 -0.212235
3.14 -0.199657
3.15 -0.185471
3.16 -0.169584
3.17 -0.151911
3.18 -0.132347
3.19 -0.110818
3.2 -0.0872899
3.21 -0.0617276
3.22 -0.0340502
3.23 -0.00456138
3.24 0.026579
3.25 0.0591653
3.26 0.0929491
3.27 0.127643
3.28 0.162946
3.29 0.198441
3.3 0.233738
3.31 0.268462
3.32 0.302241
3.33 0.334711
3.34 0.365508
3.35 0.394089
3.36 0.420363
3.37 0.4441
3.38 0.465114
3.39 0.483269
3.4 0.498478
3.41 0.510521
3.42 0.519447
3.43 0.525492
3.44 0.528771
3.45 0.529437
3.46 0.52767
3.47 0.523676
3.48 0.517471
3.49 0.509538
3.5 0.500113
3.51 0.489423
3.52 0.477683
3.53 0.465094
3.54 0.451809
3.55 0.438
3.56 0.423834
3.57 0.409413
3.58 0.394818
3.59 0.380105
3.6 0.365313
3.61 0.350463
3.62 0.335571
3.63 0.320644
3.64 0.305685
3.65 0.290701
3.66 0.275706
3.67 0.260727
3.68 0.24581
3.69 0.23101
3.7 0.216401
3.71 0.202073
3.72 0.188132
3.73 0.174697
3.74 0.161974
3.75 0.150076
3.76 0.139136
3.77 0.129301
3.78 0.120716
3.79 0.113518
3.8 0.107882
3.81 0.104026
3.82 0.101903
3.83 0.101582
3.84 0.103106
3.85 0.106496
3.86 0.111748
3.87 0.118982
3.88 0.12805
3.89 0.13881
3.9 0.151165
3.91 0.165003
3.92 0.180197
3.93 0.196629
3.94 0.214222
3.95 0.232706
3.96 0.25193
3.97 0.27174
3.98 0.291989
3.99 0.31253
4 0.333224
4.01 0.353916
4.02 0.374474
4.03 0.394778
4.04 0.414714
4.05 0.434173
4.06 0.453048
4.07 0.471157
4.08 0.488471
4.09 0.504896
4.1 0.520343
4.11 0.534721
4.12 0.547947
4.13 0.559855
4.14 0.570358
4.15 0.579454
4.16 0.587072
4.17 0.593151
4.18 0.597637
4.19 0.600487
4.2 0.601475
4.21 0.600762
4.22 0.598352
4.23 0.594251
4.24 0.588481
4.25 0.581078
4.26 0.572014
4.27 0.561329
4.28 0.549202
4.29 0.535713
4.3 0.520945
4.31 0.504988
4.32 0.487932
4.33 0.469771
4.34 0.450689
4.35 0.43078
4.36 0.410117
4.37 0.388767
4.38 0.366785
4.39 0.344201
4.4 0.321037
4.41 0.297368
4.42 0.273221
4.43 0.248614
4.44 0.223569
4.45 0.198102
4.46 0.172201
4.47 0.145923
4.48 0.119313
4.49 0.0924147
4.5 0.065285
4.51 0.0379913
4.52 0.0106145
4.53 -0.0167372
4.54 -0.0439488
4.55 -0.070901
4.56 -0.0974655
4.57 -0.123508
4.58 -0.14889
4.59 -0.173398
4.6 -0.196915
4.61 -0.219344
4.62 -0.240571
4.63 -0.260494
4.64 -0.27903
4.65 -0.296092
4.66 -0.311508
4.67 -0.325415
4.68 -0.337826
4.69 -0.348775
4.7 -0.358323
4.71 -0.36655
4.72 -0.37348
4.73 -0.379271
4.74 -0.384114
4.75 -0.388147
4.76 -0.391513
4.77 -0.394355
4.78 -0.396812
4.79 -0.399
4.8 -0.401076
4.81 -0.403142
4.82 -0.405282
4.83 -0.407561
4.84 -0.410025
4.85 -0.412712
4.86 -0.415628
4.87 -0.418742
4.88 -0.422022
4.89 -0.425421
4.9 -0.428881
4.91 -0.432336
4.92 -0.435696
4.93 -0.438888
4.94 -0.441839
4.95 -0.444482
4.96 -0.446752
4.97 -0.448595
4.98 -0.449942
4.99 -0.450741
5 -0.451004
5.01 -0.450721
5.02 -0.449888
5.03 -0.448512
5.04 -0.446605
5.05 -0.444139
5.06 -0.441178
5.07 -0.437757
5.08 -0.433897
5.09 -0.429619
5.1 -0.424942
5.11 -0.419866
5.12 -0.414383
5.13 -0.408527
5.14 -0.402297
5.15 -0.39569
5.16 -0.388699
5.17 -0.381316
5.18 -0.373502
5.19 -0.365276
5.2 -0.356654
5.21 -0.347646
5.22 -0.338271
5.23 -0.328558
5.24 -0.318539
5.25 -0.308254
5.26 -0.297796
5.27 -0.287237
5.28 -0.276659
5.29 -0.266151
5.3 -0.25581
5.31 -0.245759
5.32 -0.236099
5.33 -0.226911
5.34 -0.218284
5.35 -0.210294
5.36 -0.203007
5.37 -0.196487
5.38 -0.190843
5.39 -0.186013
5.4 -0.181993
5.41 -0.178764
5.42 -0.176289
5.43 -0.174517
5.44 -0.173419
5.45 -0.172895
5.46 -0.172826
5.47 -0.173119
5.48 -0.173681
5.49 -0.174419
5.5 -0.175244
5.51 -0.176067
5.52 -0.17681
5.53 -0.177417
5.54 -0.177843
5.55 -0.178056
5.56 -0.178039
5.57 -0.177773
5.58 -0.177266
5.59 -0.176548
5.6 -0.175645
5.61 -0.174582
5.62 -0.173388
5.63 -0.172089
5.64 -0.170695
5.65 -0.169228
5.66 -0.167685
5.67 -0.166053
5.68 -0.164302
5.69 -0.16239
5.7 -0.160247
5.71 -0.157783
5.72 -0.154929
5.73 -0.151593
5.74 -0.147678
5.75 -0.143082
5.76 -0.137709
5.77 -0.131374
5.78 -0.124057
5.79 -0.11571
5.8 -0.106292
5.81 -0.0957771
5.82 -0.0841675
5.83 -0.0714552
5.84 -0.0576509
5.85 -0.0429288
5.86 -0.0273975
5.87 -0.0111879
5.88 0.00555036
5.89 0.0226523
5.9 0.0399422
5.91 0.0572047
5.92 0.0742526
5.93 0.0909096
5.94 0.10701
5.95 0.122404
5.96 0.136941
5.97 0.150434
5.98 0.162892
5.99 0.17427
6 0.184554
6.01 0.193756
6.02 0.201917
6.03 0.209038
6.04 0.215252
6.05 0.220712
6.06 0.225538
6.07 0.22986
6.08 0.233807
6.09 0.237504
6.1 0.241069
6.11 0.244626
6.12 0.248252
6.13 0.252006
6.14 0.25592
6.15 0.26
6.16 0.264229
6.17 0.268549
6.18 0.272872
6.19 0.277099
6.2 0.28111
6.21 0.284774
6.22 0.287949
6.23 0.2904
6.24 0.292042
6.25 0.292743
6.26 0.29238
6.27 0.290848
6.28 0.288064
6.29 0.283896
6.3 0.278295
6.31 0.271348
6.32 0.263083
6.33 0.253558
6.34 0.242854
6.35 0.231075
6.36 0.218257
6.37 0.204645
6.38 0.1904
6.39 0.175677
6.4 0.160631
6.41 0.145412
6.42 0.130166
6.43 0.115038
6.44 0.100137
6.45 0.0855483
6.46 0.0713379
6.47 0.0575489
6.48 0.0442025
6.49 0.0313386
6.5 0.0189
6.51 0.00683534
6.52 -0.00491025
6.53 -0.016402
6.54 -0.0277115
6.55 -0.0389127
6.56 -0.0500867
6.57 -0.0613089
6.58 -0.0726378
6.59 -0.0841205
6.6 -0.0957903
6.61 -0.107666
6.62 -0.119765
6.63 -0.132058
6.64 -0.144503
6.65 -0.157051
6.66 -0.169638
6.67 -0.18219
6.68 -0.19462
6.69 -0.206809
6.7 -0.218678
6.71 -0.230133
6.72 -0.241081
6.73 -0.251435
6.74 -0.261115
6.75 -0.269989
6.76 -0.278004
6.77 -0.285144
6.78 -0.291365
6.79 -0.296634
6.8 -0.300925
6.81 -0.304212
6.82 -0.306379
6.83 -0.307528
6.84 -0.307654
6.85 -0.30675
6.86 -0.304811
6.87 -0.301829
6.88 -0.297726
6.89 -0.292492
6.9 -0.286165
6.91 -0.278723
6.92 -0.270139
6.93 -0.260386
6.94 -0.249437
6.95 -0.237124
6.96 -0.223559
6.97 -0.208731
6.98 -0.19263
6.99 -0.175259
7 -0.15663
7.01 -0.136709
7.02 -0.115523
7.03 -0.0932096
7.04 -0.06984
7.05 -0.045498
7.06 -0.0202803
7.07 0.0057051
7.08 0.0323945
7.09 0.0595903
7.1 0.0871523
7.11 0.114947
7.12 0.142842
7.13 0.170706
7.14 0.198404
7.15 0.225793
7.16 0.252779
7.17 0.279269
7.18 0.305177
7.19 0.330431
7.2 0.35497
7.21 0.378671
7.22 0.401539
7.23 0.423566
7.24 0.444725
7.25 0.464996
7.26 0.484359
7.27 0.502769
7.28 0.52014
7.29 0.536527
7.3 0.551895
7.31 0.566201
7.32 0.579392
7.33 0.591408
7.34 0.602075
7.35 0.61136
7.36 0.619224
7.37 0.625579
7.38 0.630337
7.39 0.633407
7.4 0.634673
7.41 0.633892
7.42 0.631178
7.43 0.626475
7.44 0.619745
7.45 0.610967
7.46 0.600137
7.47 0.587134
7.48 0.572054
7.49 0.555059
7.5 0.536235
7.51 0.515692
7.52 0.493553
7.53 0.469956
7.54 0.444941
7.55 0.418838
7.56 0.391825
7.57 0.364088
7.58 0.335813
7.59 0.307186
7.6 0.27839
7.61 0.249628
7.62 0.221074
7.63 0.192884
7.64 0.165201
7.65 0.138156
7.66 0.111867
7.67 0.0865456
7.68 0.0621982
7.69 0.0388958
7.7 0.0167023
7.71 -0.0043291
7.72 -0.0241549
7.73 -0.0426799
7.74 -0.0598472
7.75 -0.0757248
7.76 -0.0903004
7.77 -0.103567
7.78 -0.115524
7.79 -0.126173
7.8 -0.135392
7.81 -0.143308
7.82 -0.149961
7.83 -0.155375
7.84 -0.159585
7.85 -0.162626
7.86 -0.164507
7.87 -0.16524
7.88 -0.164976
7.89 -0.163784
7.9 -0.161738
7.91 -0.158917
7.92 -0.155406
7.93 -0.151247
7.94 -0.146578
7.95 -0.141504
7.96 -0.136115
7.97 -0.130494
7.98 -0.12472
7.99 -0.118867
8 -0.113005
8.01 -0.107193
8.02 -0.101473
8.03 -0.0958787
8.04 -0.0904298
8.05 -0.0851375
8.06 -0.0800145
8.07 -0.0750448
8.08 -0.0702055
8.09 -0.065475
8.1 -0.0608283
8.11 -0.0562391
8.12 -0.051682
8.13 -0.0471326
8.14 -0.0425714
8.15 -0.0379883
8.16 -0.033381
8.17 -0.0287556
8.18 -0.0241277
8.19 -0.0195252
8.2 -0.0149871
8.21 -0.0105548
8.22 -0.00627695
8.23 -0.00220639
8.24 0.00160174
8.25 0.00509104
8.26 0.00816213
8.27 0.0108059
8.28 0.0129836
8.29 0.0146657
8.3 0.015834
8.31 0.0164828
8.32 0.0165918
8.33 0.0161851
8.34 0.0153319
8.35 0.014082
8.36 0.0124964
8.37 0.010645
8.38 0.00860395
8.39 0.00645065
8.4 0.00428531
8.41 0.00218678
8.42 0.000227158
8.43 -0.00153028
8.44 -0.00303365
8.45 -0.00423049
8.46 -0.00508903
8.47 -0.00562977
8.48 -0.00586939
8.49 -0.00584206
8.5 -0.00559862
8.51 -0.00520523
8.52 -0.00474351
8.53 -0.00432113
8.54 -0.00403903
8.55 -0.00400059
8.56 -0.00430924
8.57 -0.00506499
8.58 -0.00638241
8.59 -0.00838427
8.6 -0.0110899
8.61 -0.0145483
8.62 -0.0187903
8.63 -0.0238275
8.64 -0.0296517
8.65 -0.0362968
8.66 -0.0436637
8.67 -0.0516615
8.68 -0.0602074
8.69 -0.069207
8.7 -0.0785576
8.71 -0.088154
8.72 -0.097882
8.73 -0.107614
8.74 -0.117251
8.75 -0.126702
8.76 -0.135888
8.77 -0.144746
8.78 -0.153195
8.79 -0.161215
8.8 -0.168811
8.81 -0.175989
8.82 -0.18277
8.83 -0.189186
8.84 -0.19528
8.85 -0.201084
8.86 -0.206691
8.87 -0.212158
8.88 -0.217542
8.89 -0.222894
8.9 -0.228257
8.91 -0.233668
8.92 -0.239146
8.93 -0.244692
8.94 -0.250291
8.95 -0.255918
8.96 -0.26153
8.97 -0.267075
8.98 -0.272462
8.99 -0.277627
9 -0.282491
9.01 -0.286972
9.02 -0.290991
9.03 -0.294474
9.04 -0.297319
9.05 -0.299455
9.06 -0.300884
9.07 -0.301582
9.08 -0.301543
9.09 -0.300776
9.1 -0.299309
9.11 -0.297124
9.12 -0.294352
9.13 -0.291075
9.14 -0.28738
9.15 -0.283359
9.16 -0.279109
9.17 -0.274727
9.18 -0.270319
9.19 -0.265983
9.2 -0.261794
9.21 -0.257818
9.22 -0.254107
9.23 -0.250697
9.24 -0.247638
9.25 -0.244908
9.26 -0.242483
9.27 -0.240332
9.28 -0.238411
9.29 -0.236665
9.3 -0.235035
9.31 -0.233447
9.32 -0.231824
9.33 -0.230101
9.34 -0.228216
9.35 -0.226118
9.36 -0.223764
9.37 -0.221097
9.38 -0.218117
9.39 -0.214833
9.4 -0.211259
9.41 -0.207425
9.42 -0.20337
9.43 -0.199142
9.44 -0.194797
9.45 -0.190416
9.46 -0.186063
9.47 -0.181801
9.48 -0.177686
9.49 -0.173769
9.5 -0.170107
9.51 -0.16672
9.52 -0.163603
9.53 -0.160746
9.54 -0.158121
9.55 -0.155684
9.56 -0.153374
9.57 -0.151111
9.58 -0.14879
9.59 -0.14631
9.6 -0.143563
9.61 -0.140439
9.62 -0.136827
9.63 -0.132575
9.64 -0.127573
9.65 -0.121768
9.66 -0.115086
9.67 -0.107468
9.68 -0.0988741
9.69 -0.0892823
9.7 -0.0785757
9.71 -0.0668898
9.72 -0.0542652
9.73 -0.0407578
9.74 -0.0264377
9.75 -0.0113874
9.76 0.00432854
9.77 0.0206034
9.78 0.0372935
9.79 0.0542961
9.8 0.0715113
9.81 0.0888445
9.82 0.106209
9.83 0.123513
9.84 0.14069
9.85 0.157687
9.86 0.174461
9.87 0.19098
9.88 0.207223
9.89 0.223164
9.9 0.238785
9.91 0.254107
9.92 0.269131
9.93 0.283857
9.94 0.298283
9.95 0.312402
9.96 0.326173
9.97 0.339593
9.98 0.352643
9.99 0.365283
10 0.37747
10.01 0.38915
10.02 0.400246
10.03 0.41065
10.04 0.420347
10.05 0.429271
10.06 0.43736
10.07 0.444558
10.08 0.450817
10.09 0.456017
10.1 0.460178
10.11 0.463327
10.12 0.465475
10.13 0.466649
10.14 0.46689
10.15 0.466246
10.16 0.464738
10.17 0.462545
10.18 0.459771
10.19 0.456529
10.2 0.452937
10.21 0.449117
10.22 0.445192
10.23 0.441295
10.24 0.437539
10.25 0.43402
10.26 0.430819
10.27 0.428004
10.28 0.425627
10.29 0.423766
10.3 0.422378
10.31 0.421448
10.32 0.420944
10.33 0.420813
10.34 0.42099
10.35 0.421401
10.36 0.421939
10.37 0.42249
10.38 0.422948
10.39 0.423204
10.4 0.423152
10.41 0.42269
10.42 0.421655
10.43 0.420008
10.44 0.417679
10.45 0.414607
10.46 0.410745
10.47 0.406059
10.48 0.400487
10.49 0.394007
10.5 0.386684
10.51 0.378538
10.52 0.369595
10.53 0.359891
10.54 0.349467
10.55 0.338304
10.56 0.326511
10.57 0.314147
10.58 0.301258
10.59 0.287887
10.6 0.274077
10.61 0.25985
10.62 0.245231
10.63 0.230279
10.64 0.215022
10.65 0.199484
10.66 0.183686
10.67 0.16765
10.68 0.151379
10.69 0.134912
10.7 0.11828
10.71 0.101508
10.72 0.0846266
10.73 0.0676685
10.74 0.0506695
10.75 0.0336741
10.76 0.016727
10.77 -0.000128478
10.78 -0.0168485
10.79 -0.0333899
10.8 -0.0497113
10.81 -0.0657512
10.82 -0.0814829
10.83 -0.0968896
10.84 -0.111951
10.85 -0.126656
10.86 -0.140999
10.87 -0.154978
10.88 -0.16858
10.89 -0.181862
10.9 -0.194854
10.91 -0.207589
10.92 -0.220107
10.93 -0.23245
10.94 -0.244653
10.95 -0.256766
10.96 -0.268832
10.97 -0.280884
10.98 -0.292946
10.99 -0.305033
11 -0.317151
11.01 -0.329296
11.02 -0.341443
11.03 -0.353559
11.04 -0.365601
11.05 -0.377513
11.06 -0.389228
11.07 -0.400654
11.08 -0.411695
11.09 -0.422282
11.1 -0.432327
11.11 -0.441743
11.12 -0.450444
11.13 -0.458353
11.14 -0.465294
11.15 -0.471293
11.16 -0.476307
11.17 -0.480301
11.18 -0.483255
11.19 -0.485162
11.2 -0.48598
11.21 -0.485711
11.22 -0.484463
11.23 -0.482283
11.24 -0.479228
11.25 -0.475358
11.26 -0.470741
11.27 -0.465385
11.28 -0.459424
11.29 -0.452934
11.3 -0.445975
11.31 -0.438603
11.32 -0.430862
11.33 -0.422778
11.34 -0.414363
11.35 -0.405656
11.36 -0.396659
11.37 -0.387363
11.38 -0.37775
11.39 -0.367796
11.4 -0.357436
11.41 -0.346652
11.42 -0.335422
11.43 -0.323712
11.44 -0.311493
11.45 -0.298742
11.46 -0.285431
11.47 -0.271518
11.48 -0.257063
11.49 -0.242091
11.5 -0.226636
11.51 -0.210747
11.52 -0.194488
11.53 -0.177915
11.54 -0.161139
11.55 -0.144267
11.56 -0.127402
11.57 -0.110653
11.58 -0.0941267
11.59 -0.0779388
11.6 -0.0622456
11.61 -0.0471072
11.62 -0.0326111
11.63 -0.0188339
11.64 -0.00583893
11.65 0.00632446
11.66 0.0175639
11.67 0.0278745
11.68 0.0373029
11.69 0.0458667
11.7 0.0535978
11.71 0.0605414
11.72 0.0667525
11.73 0.0722306
11.74 0.0771328
11.75 0.0815376
11.76 0.0855249
11.77 0.0891738
11.78 0.0925599
11.79 0.0957464
11.8 0.0988032
11.81 0.101792
11.82 0.104752
11.83 0.107712
11.84 0.110686
11.85 0.113679
11.86 0.116678
11.87 0.11966
11.88 0.122591
11.89 0.125429
11.9 0.128125
11.91 0.130624
11.92 0.132855
11.93 0.134742
11.94 0.136244
11.95 0.137307
11.96 0.137879
11.97 0.137913
11.98 0.137369
11.99 0.136154
12 0.134289
12.01 0.131771
12.02 0.128593
12.03 0.124756
12.04 0.120265
12.05 0.115114
12.06 0.109289
12.07 0.102864
12.08 0.0958619
12.09 0.0883051
12.1 0.0802154
12.11 0.071613
12.12 0.0624747
12.13 0.0528433
12.14 0.0427449
12.15 0.0321866
12.16 0.0211727
12.17 0.00970515
12.18 -0.00222552
