# xPDFsuite Configuration #
[PDF]
wavelength = 0.1
dataformat = QA
inputfile = BiMsol6_insitu_700 C-00392.xy
backgroundfile = Quartz2mm-dist500-00000.xy
mode = xray
bgscale = 0.0042
composition = Bi2Fe4O9
outputtype = gr
qmaxinst = 24.998449118
qmin = 0.1
qmax = 21.4986662415
rmax = 80.0
rmin = 0.0
rstep = 0.01
rpoly = 0.9

[Misc]
inputdir = C:/Data/Seafile/CPH/Beamtime/Desy Oct 20/In situ data/Processed/BiMsol6/PDF
savedir = C:/Data/Seafile/CPH/Beamtime/Desy Oct 20/In situ data/PDF/BiMsol6
backgroundfilefull = C:/Data/Seafile/CPH/Beamtime/Desy Oct 20/In situ data/Processed/Standard_Empty_Cap/Quartz2mm-dist500-00000.xy

#### start data
#S 1
#L r($\AA$)  G($\AA^{-2}$)
0 0
0.01 0.00663544
0.02 0.0128987
0.03 0.0184711
0.04 0.0230666
0.05 0.0264448
0.06 0.0284223
0.07 0.0287976
0.08 0.0275113
0.09 0.0247094
0.1 0.0205116
0.11 0.0151044
0.12 0.00873292
0.13 0.0016902
0.14 -0.00569527
0.15 -0.0130064
0.16 -0.0198916
0.17 -0.0260204
0.18 -0.0310959
0.19 -0.0348694
0.2 -0.0370846
0.21 -0.0375648
0.22 -0.0364072
0.23 -0.0336762
0.24 -0.0295169
0.25 -0.0241502
0.26 -0.0178645
0.27 -0.010987
0.28 -0.00399527
0.29 0.00268554
0.3 0.00864176
0.31 0.0134789
0.32 0.0168409
0.33 0.0183662
0.34 0.0176994
0.35 0.0148865
0.36 0.00991769
0.37 0.00289008
0.38 -0.00599021
0.39 -0.0164107
0.4 -0.0280109
0.41 -0.0401564
0.42 -0.0522228
0.43 -0.0635742
0.44 -0.0735503
0.45 -0.0814907
0.46 -0.086695
0.47 -0.0882608
0.48 -0.085977
0.49 -0.0794664
0.5 -0.0684761
0.51 -0.0528927
0.52 -0.0327531
0.53 -0.00796001
0.54 0.0209368
0.55 0.0532016
0.56 0.0881528
0.57 0.124988
0.58 0.162807
0.59 0.200622
0.6 0.237184
0.61 0.271479
0.62 0.302499
0.63 0.329295
0.64 0.351005
0.65 0.366885
0.66 0.375906
0.67 0.377629
0.68 0.372201
0.69 0.3596
0.7 0.339993
0.71 0.313735
0.72 0.28136
0.73 0.243038
0.74 0.200317
0.75 0.154193
0.76 0.105726
0.77 0.0560215
0.78 0.00620237
0.79 -0.0425229
0.8 -0.0889239
0.81 -0.132138
0.82 -0.171341
0.83 -0.20585
0.84 -0.235136
0.85 -0.258839
0.86 -0.276178
0.87 -0.287696
0.88 -0.293679
0.89 -0.294492
0.9 -0.290639
0.91 -0.282742
0.92 -0.27142
0.93 -0.257477
0.94 -0.241991
0.95 -0.225791
0.96 -0.209683
0.97 -0.194419
0.98 -0.180675
0.99 -0.169276
1 -0.160583
1.01 -0.154855
1.02 -0.152278
1.03 -0.152904
1.04 -0.156661
1.05 -0.163434
1.06 -0.173037
1.07 -0.184807
1.08 -0.198278
1.09 -0.212939
1.1 -0.228259
1.11 -0.243707
1.12 -0.258703
1.13 -0.272743
1.14 -0.28545
1.15 -0.296506
1.16 -0.305675
1.17 -0.312811
1.18 -0.317823
1.19 -0.32059
1.2 -0.32146
1.21 -0.320641
1.22 -0.318403
1.23 -0.315056
1.24 -0.310942
1.25 -0.306409
1.26 -0.301862
1.27 -0.297637
1.28 -0.294015
1.29 -0.291225
1.3 -0.289438
1.31 -0.288767
1.32 -0.289364
1.33 -0.291053
1.34 -0.293719
1.35 -0.29719
1.36 -0.301246
1.37 -0.305633
1.38 -0.310055
1.39 -0.314182
1.4 -0.317734
1.41 -0.320457
1.42 -0.322133
1.43 -0.322589
1.44 -0.321711
1.45 -0.31929
1.46 -0.315504
1.47 -0.310456
1.48 -0.304307
1.49 -0.297275
1.5 -0.289626
1.51 -0.281664
1.52 -0.273769
1.53 -0.266298
1.54 -0.259581
1.55 -0.253926
1.56 -0.249605
1.57 -0.246839
1.58 -0.245975
1.59 -0.246957
1.6 -0.249755
1.61 -0.254291
1.62 -0.260412
1.63 -0.26789
1.64 -0.276462
1.65 -0.285759
1.66 -0.295301
1.67 -0.304668
1.68 -0.313429
1.69 -0.321162
1.7 -0.327467
1.71 -0.331794
1.72 -0.33392
1.73 -0.33367
1.74 -0.3309
1.75 -0.325543
1.76 -0.317623
1.77 -0.307189
1.78 -0.294323
1.79 -0.279533
1.8 -0.263174
1.81 -0.245649
1.82 -0.227403
1.83 -0.2089
1.84 -0.190668
1.85 -0.173215
1.86 -0.156956
1.87 -0.142268
1.88 -0.129468
1.89 -0.118807
1.9 -0.11049
1.91 -0.104815
1.92 -0.10152
1.93 -0.100501
1.94 -0.101575
1.95 -0.104488
1.96 -0.108925
1.97 -0.114577
1.98 -0.120966
1.99 -0.127623
2 -0.134137
2.01 -0.140114
2.02 -0.145194
2.03 -0.14906
2.04 -0.151272
2.05 -0.151808
2.06 -0.150576
2.07 -0.147564
2.08 -0.142838
2.09 -0.136541
2.1 -0.128825
2.11 -0.12001
2.12 -0.110514
2.13 -0.100709
2.14 -0.0909898
2.15 -0.0817546
2.16 -0.0733948
2.17 -0.0664522
2.18 -0.0611558
2.19 -0.0577643
2.2 -0.0564854
2.21 -0.0574587
2.22 -0.0607516
2.23 -0.0664584
2.24 -0.0745341
2.25 -0.0846443
2.26 -0.0965578
2.27 -0.10999
2.28 -0.124615
2.29 -0.140075
2.3 -0.156
2.31 -0.171932
2.32 -0.187496
2.33 -0.20235
2.34 -0.216186
2.35 -0.228742
2.36 -0.239754
2.37 -0.248981
2.38 -0.256479
2.39 -0.262242
2.4 -0.266327
2.41 -0.268846
2.42 -0.269965
2.43 -0.26981
2.44 -0.268728
2.45 -0.267028
2.46 -0.264992
2.47 -0.262906
2.48 -0.26104
2.49 -0.259665
2.5 -0.259078
2.51 -0.259403
2.52 -0.260773
2.53 -0.263271
2.54 -0.266931
2.55 -0.27174
2.56 -0.277712
2.57 -0.284684
2.58 -0.292462
2.59 -0.300866
2.6 -0.309696
2.61 -0.318737
2.62 -0.327767
2.63 -0.336523
2.64 -0.344808
2.65 -0.352439
2.66 -0.359258
2.67 -0.365137
2.68 -0.369978
2.69 -0.373643
2.7 -0.376117
2.71 -0.377466
2.72 -0.377728
2.73 -0.376965
2.74 -0.375258
2.75 -0.3727
2.76 -0.36932
2.77 -0.365319
2.78 -0.360793
2.79 -0.355832
2.8 -0.350508
2.81 -0.344876
2.82 -0.338954
2.83 -0.332751
2.84 -0.326266
2.85 -0.319463
2.86 -0.312286
2.87 -0.304664
2.88 -0.296515
2.89 -0.287677
2.9 -0.278113
2.91 -0.267745
2.92 -0.256502
2.93 -0.244327
2.94 -0.231182
2.95 -0.217011
2.96 -0.201797
2.97 -0.185656
2.98 -0.168658
2.99 -0.150896
3 -0.132487
3.01 -0.113566
3.02 -0.0942659
3.03 -0.0747966
3.04 -0.0553335
3.05 -0.0360434
3.06 -0.0170866
3.07 0.00138872
3.08 0.019228
3.09 0.0362706
3.1 0.0524922
3.11 0.0678418
3.12 0.082297
3.13 0.0958642
3.14 0.108577
3.15 0.120436
3.16 0.131579
3.17 0.142138
3.18 0.152232
3.19 0.161989
3.2 0.171539
3.21 0.181011
3.22 0.190543
3.23 0.200243
3.24 0.210196
3.25 0.220466
3.26 0.231092
3.27 0.242088
3.28 0.253466
3.29 0.265165
3.3 0.2771
3.31 0.28918
3.32 0.301294
3.33 0.313318
3.34 0.325113
3.35 0.336485
3.36 0.347322
3.37 0.35749
3.38 0.366866
3.39 0.375341
3.4 0.382824
3.41 0.389179
3.42 0.394367
3.43 0.398435
3.44 0.401397
3.45 0.403293
3.46 0.404188
3.47 0.40417
3.48 0.403267
3.49 0.401709
3.5 0.399638
3.51 0.397203
3.52 0.394555
3.53 0.391849
3.54 0.389244
3.55 0.386907
3.56 0.384958
3.57 0.38351
3.58 0.382662
3.59 0.382494
3.6 0.383069
3.61 0.384515
3.62 0.386782
3.63 0.389863
3.64 0.393745
3.65 0.398396
3.66 0.403776
3.67 0.409855
3.68 0.416581
3.69 0.423833
3.7 0.431535
3.71 0.439606
3.72 0.447967
3.73 0.456537
3.74 0.465241
3.75 0.473982
3.76 0.482682
3.77 0.49127
3.78 0.499673
3.79 0.507825
3.8 0.515646
3.81 0.523042
3.82 0.529977
3.83 0.536387
3.84 0.542211
3.85 0.547385
3.86 0.551844
3.87 0.555457
3.88 0.558188
3.89 0.560002
3.9 0.560835
3.91 0.560627
3.92 0.559319
3.93 0.556833
3.94 0.553014
3.95 0.547931
3.96 0.541543
3.97 0.533817
3.98 0.524727
3.99 0.514254
4 0.502287
4.01 0.488862
4.02 0.474053
4.03 0.457879
4.04 0.440367
4.05 0.421556
4.06 0.401484
4.07 0.38009
4.08 0.357579
4.09 0.334024
4.1 0.309507
4.11 0.28412
4.12 0.257959
4.13 0.231094
4.14 0.203654
4.15 0.175794
4.16 0.147633
4.17 0.119298
4.18 0.0909146
4.19 0.0626135
4.2 0.0345641
4.21 0.00688572
4.22 -0.0202945
4.23 -0.046852
4.24 -0.0726671
4.25 -0.0976268
4.26 -0.121574
4.27 -0.144382
4.28 -0.166036
4.29 -0.186469
4.3 -0.205629
4.31 -0.223478
4.32 -0.239997
4.33 -0.255046
4.34 -0.268758
4.35 -0.281188
4.36 -0.292386
4.37 -0.302416
4.38 -0.311356
4.39 -0.319261
4.4 -0.326206
4.41 -0.332377
4.42 -0.337882
4.43 -0.342831
4.44 -0.347333
4.45 -0.351491
4.46 -0.355384
4.47 -0.359124
4.48 -0.362785
4.49 -0.366424
4.5 -0.370082
4.51 -0.373784
4.52 -0.37754
4.53 -0.381345
4.54 -0.385168
4.55 -0.388974
4.56 -0.392715
4.57 -0.396335
4.58 -0.399773
4.59 -0.40294
4.6 -0.405774
4.61 -0.408225
4.62 -0.410238
4.63 -0.411769
4.64 -0.412784
4.65 -0.413252
4.66 -0.41312
4.67 -0.412453
4.68 -0.411277
4.69 -0.409632
4.7 -0.407571
4.71 -0.40516
4.72 -0.402459
4.73 -0.39957
4.74 -0.396596
4.75 -0.393627
4.76 -0.390752
4.77 -0.388059
4.78 -0.385628
4.79 -0.383576
4.8 -0.381929
4.81 -0.380734
4.82 -0.380022
4.83 -0.379814
4.84 -0.380113
4.85 -0.380939
4.86 -0.382265
4.87 -0.384028
4.88 -0.386181
4.89 -0.388672
4.9 -0.391443
4.91 -0.394433
4.92 -0.397589
4.93 -0.400826
4.94 -0.404085
4.95 -0.407311
4.96 -0.410455
4.97 -0.413472
4.98 -0.416316
4.99 -0.418948
5 -0.421354
5.01 -0.423516
5.02 -0.425416
5.03 -0.427039
5.04 -0.428371
5.05 -0.429363
5.06 -0.430018
5.07 -0.430318
5.08 -0.430229
5.09 -0.429714
5.1 -0.428726
5.11 -0.42719
5.12 -0.425005
5.13 -0.422143
5.14 -0.418525
5.15 -0.414067
5.16 -0.408682
5.17 -0.402282
5.18 -0.394672
5.19 -0.385826
5.2 -0.375696
5.21 -0.364213
5.22 -0.351316
5.23 -0.336958
5.24 -0.321067
5.25 -0.303516
5.26 -0.284444
5.27 -0.263865
5.28 -0.241807
5.29 -0.218315
5.3 -0.193444
5.31 -0.167171
5.32 -0.139636
5.33 -0.110985
5.34 -0.0813161
5.35 -0.0507335
5.36 -0.0193459
5.37 0.0127437
5.38 0.045462
5.39 0.0786273
5.4 0.112128
5.41 0.145854
5.42 0.179695
5.43 0.213542
5.44 0.247269
5.45 0.280749
5.46 0.313876
5.47 0.346529
5.48 0.378586
5.49 0.409918
5.5 0.440387
5.51 0.46972
5.52 0.497868
5.53 0.524675
5.54 0.549978
5.55 0.573609
5.56 0.595402
5.57 0.615067
5.58 0.6324
5.59 0.647371
5.6 0.659835
5.61 0.669658
5.62 0.676727
5.63 0.680947
5.64 0.681928
5.65 0.679916
5.66 0.674931
5.67 0.666994
5.68 0.656159
5.69 0.642513
5.7 0.626057
5.71 0.606887
5.72 0.585375
5.73 0.561722
5.74 0.536145
5.75 0.508878
5.76 0.480164
5.77 0.450159
5.78 0.419234
5.79 0.387655
5.8 0.355655
5.81 0.323453
5.82 0.291252
5.83 0.259246
5.84 0.227633
5.85 0.196524
5.86 0.166026
5.87 0.136222
5.88 0.107175
5.89 0.078927
5.9 0.0515739
5.91 0.0250812
5.92 -0.000578329
5.93 -0.0254117
5.94 -0.0494275
5.95 -0.0726324
5.96 -0.0950098
5.97 -0.11649
5.98 -0.137129
5.99 -0.156891
6 -0.175728
6.01 -0.193576
6.02 -0.210359
6.03 -0.225893
6.04 -0.240101
6.05 -0.252925
6.06 -0.264254
6.07 -0.273976
6.08 -0.281987
6.09 -0.288169
6.1 -0.29225
6.11 -0.294361
6.12 -0.294463
6.13 -0.292538
6.14 -0.288596
6.15 -0.282675
6.16 -0.274724
6.17 -0.264874
6.18 -0.253353
6.19 -0.240315
6.2 -0.22593
6.21 -0.21039
6.22 -0.193898
6.23 -0.176609
6.24 -0.158847
6.25 -0.140828
6.26 -0.122764
6.27 -0.104853
6.28 -0.0872794
6.29 -0.0702413
6.3 -0.0539058
6.31 -0.0383483
6.32 -0.0236506
6.33 -0.00986663
6.34 0.00297806
6.35 0.0148853
6.36 0.0257924
6.37 0.0358469
6.38 0.0451377
6.39 0.0537607
6.4 0.0618257
6.41 0.0694524
6.42 0.0767599
6.43 0.0838894
6.44 0.0909899
6.45 0.0981834
6.46 0.105584
6.47 0.113296
6.48 0.121411
6.49 0.130059
6.5 0.139274
6.51 0.149091
6.52 0.159538
6.53 0.170634
6.54 0.182381
6.55 0.194789
6.56 0.20787
6.57 0.22154
6.58 0.235759
6.59 0.250485
6.6 0.26567
6.61 0.281265
6.62 0.29724
6.63 0.313517
6.64 0.330028
6.65 0.346719
6.66 0.36353
6.67 0.380405
6.68 0.397283
6.69 0.41409
6.7 0.430762
6.71 0.447231
6.72 0.463427
6.73 0.479273
6.74 0.494691
6.75 0.509552
6.76 0.52377
6.77 0.537275
6.78 0.549971
6.79 0.561761
6.8 0.572546
6.81 0.582216
6.82 0.590541
6.83 0.59755
6.84 0.603152
6.85 0.607264
6.86 0.609807
6.87 0.610713
6.88 0.609815
6.89 0.607064
6.9 0.602518
6.91 0.596152
6.92 0.587947
6.93 0.5779
6.94 0.566013
6.95 0.552097
6.96 0.536381
6.97 0.518906
6.98 0.499712
6.99 0.478847
7 0.456368
7.01 0.432259
7.02 0.406572
7.03 0.37948
7.04 0.351061
7.05 0.321393
7.06 0.290562
7.07 0.258657
7.08 0.225681
7.09 0.191833
7.1 0.157233
7.11 0.121992
7.12 0.0862279
7.13 0.0500649
7.14 0.0136272
7.15 -0.0229359
7.16 -0.0594647
7.17 -0.0958153
7.18 -0.131841
7.19 -0.167395
7.2 -0.202329
7.21 -0.236416
7.22 -0.269551
7.23 -0.30162
7.24 -0.3325
7.25 -0.362078
7.26 -0.390251
7.27 -0.416889
7.28 -0.441818
7.29 -0.465118
7.3 -0.486758
7.31 -0.506718
7.32 -0.525001
7.33 -0.541623
7.34 -0.556488
7.35 -0.569726
7.36 -0.581457
7.37 -0.591755
7.38 -0.600701
7.39 -0.608382
7.4 -0.614871
7.41 -0.620181
7.42 -0.624515
7.43 -0.627961
7.44 -0.630597
7.45 -0.632495
7.46 -0.633719
7.47 -0.634283
7.48 -0.634247
7.49 -0.633673
7.5 -0.63258
7.51 -0.63098
7.52 -0.628875
7.53 -0.62626
7.54 -0.623068
7.55 -0.61934
7.56 -0.615059
7.57 -0.610209
7.58 -0.604771
7.59 -0.598732
7.6 -0.592043
7.61 -0.584698
7.62 -0.576731
7.63 -0.568149
7.64 -0.558962
7.65 -0.549186
7.66 -0.538843
7.67 -0.527902
7.68 -0.516454
7.69 -0.504536
7.7 -0.492185
7.71 -0.479437
7.72 -0.46633
7.73 -0.452889
7.74 -0.439149
7.75 -0.425165
7.76 -0.410973
7.77 -0.396604
7.78 -0.382089
7.79 -0.367459
7.8 -0.352738
7.81 -0.337967
7.82 -0.323182
7.83 -0.308418
7.84 -0.293712
7.85 -0.279109
7.86 -0.264662
7.87 -0.250441
7.88 -0.236492
7.89 -0.222878
7.9 -0.209666
7.91 -0.19693
7.92 -0.184744
7.93 -0.173246
7.94 -0.162483
7.95 -0.152512
7.96 -0.143403
7.97 -0.13522
7.98 -0.128022
7.99 -0.121884
8 -0.116917
8.01 -0.113051
8.02 -0.110293
8.03 -0.10864
8.04 -0.108073
8.05 -0.10856
8.06 -0.11013
8.07 -0.112673
8.08 -0.116079
8.09 -0.120265
8.1 -0.12514
8.11 -0.130608
8.12 -0.136575
8.13 -0.142962
8.14 -0.149619
8.15 -0.156449
8.16 -0.163359
8.17 -0.170262
8.18 -0.17708
8.19 -0.183726
8.2 -0.190133
8.21 -0.196258
8.22 -0.202057
8.23 -0.207495
8.24 -0.212542
8.25 -0.217172
8.26 -0.221315
8.27 -0.224999
8.28 -0.228206
8.29 -0.230915
8.3 -0.233102
8.31 -0.234739
8.32 -0.235756
8.33 -0.236104
8.34 -0.235768
8.35 -0.234693
8.36 -0.232818
8.37 -0.230076
8.38 -0.226396
8.39 -0.221584
8.4 -0.215663
8.41 -0.208567
8.42 -0.200228
8.43 -0.190583
8.44 -0.179576
8.45 -0.167097
8.46 -0.153071
8.47 -0.137581
8.48 -0.120626
8.49 -0.102216
8.5 -0.082377
8.51 -0.0611509
8.52 -0.0384681
8.53 -0.0145119
8.54 0.0106104
8.55 0.0368074
8.56 0.0639802
8.57 0.0920245
8.58 0.120855
8.59 0.150379
8.6 0.180429
8.61 0.210899
8.62 0.241689
8.63 0.272706
8.64 0.303861
8.65 0.335071
8.66 0.366248
8.67 0.397326
8.68 0.428241
8.69 0.458935
8.7 0.489352
8.71 0.519428
8.72 0.549072
8.73 0.578255
8.74 0.606912
8.75 0.634971
8.76 0.662352
8.77 0.688967
8.78 0.714642
8.79 0.739283
8.8 0.762806
8.81 0.785081
8.82 0.805972
8.83 0.825335
8.84 0.843
8.85 0.858632
8.86 0.872263
8.87 0.883748
8.88 0.892953
8.89 0.899752
8.9 0.904032
8.91 0.905519
8.92 0.904158
8.93 0.900031
8.94 0.893101
8.95 0.883357
8.96 0.870809
8.97 0.855486
8.98 0.837137
8.99 0.816164
9 0.792666
9.01 0.76676
9.02 0.738578
9.03 0.708265
9.04 0.675878
9.05 0.64159
9.06 0.605696
9.07 0.568367
9.08 0.529779
9.09 0.490103
9.1 0.449512
9.11 0.408108
9.12 0.366144
9.13 0.323781
9.14 0.281172
9.15 0.238462
9.16 0.195793
9.17 0.153316
9.18 0.111195
9.19 0.0695465
9.2 0.0285018
9.21 -0.0118084
9.22 -0.051253
9.23 -0.0896997
9.24 -0.126894
9.25 -0.162769
9.26 -0.197213
9.27 -0.230089
9.28 -0.261262
9.29 -0.290595
9.3 -0.317891
9.31 -0.342891
9.32 -0.365646
9.33 -0.386045
9.34 -0.403986
9.35 -0.419378
9.36 -0.432146
9.37 -0.441997
9.38 -0.449024
9.39 -0.45329
9.4 -0.454791
9.41 -0.453542
9.42 -0.449574
9.43 -0.442885
9.44 -0.433359
9.45 -0.421342
9.46 -0.406939
9.47 -0.390272
9.48 -0.371472
9.49 -0.350682
9.5 -0.327932
9.51 -0.303461
9.52 -0.277512
9.53 -0.250255
9.54 -0.221862
9.55 -0.192503
9.56 -0.162344
9.57 -0.13151
9.58 -0.100248
9.59 -0.0687175
9.6 -0.0370742
9.61 -0.00546862
9.62 0.0259538
9.63 0.0570238
9.64 0.0875896
9.65 0.117542
9.66 0.146759
9.67 0.175122
9.68 0.202522
9.69 0.228851
9.7 0.253864
9.71 0.277594
9.72 0.299957
9.73 0.320875
9.74 0.340278
9.75 0.358103
9.76 0.374211
9.77 0.388528
9.78 0.401131
9.79 0.411998
9.8 0.421118
9.81 0.42849
9.82 0.434126
9.83 0.437869
9.84 0.439913
9.85 0.440325
9.86 0.439155
9.87 0.436465
9.88 0.432321
9.89 0.426745
9.9 0.419779
9.91 0.411612
9.92 0.402326
9.93 0.39201
9.94 0.380746
9.95 0.368621
9.96 0.35565
9.97 0.341975
9.98 0.32769
9.99 0.312864
10 0.297564
10.01 0.281851
10.02 0.265773
10.03 0.249372
10.04 0.232728
10.05 0.215886
10.06 0.198889
10.07 0.181777
10.08 0.16459
10.09 0.147367
10.1 0.130153
10.11 0.112986
10.12 0.0959067
10.13 0.0789532
10.14 0.0621657
10.15 0.0455889
10.16 0.0292886
10.17 0.0132839
10.18 -0.00238545
10.19 -0.0176812
10.2 -0.0325668
10.21 -0.0470083
10.22 -0.0609392
10.23 -0.0743414
10.24 -0.0872158
10.25 -0.0995459
10.26 -0.111321
10.27 -0.122536
10.28 -0.133187
10.29 -0.143226
10.3 -0.152727
10.31 -0.161709
10.32 -0.170196
10.33 -0.178214
10.34 -0.185797
10.35 -0.192955
10.36 -0.199733
10.37 -0.206191
10.38 -0.212369
10.39 -0.218303
10.4 -0.224031
10.41 -0.229589
10.42 -0.234998
10.43 -0.240307
10.44 -0.245542
10.45 -0.250727
10.46 -0.255884
10.47 -0.261029
10.48 -0.266177
10.49 -0.271341
10.5 -0.276527
10.51 -0.281741
10.52 -0.286985
10.53 -0.29226
10.54 -0.297565
10.55 -0.302899
10.56 -0.308256
10.57 -0.31363
10.58 -0.319016
10.59 -0.324407
10.6 -0.329795
10.61 -0.335172
10.62 -0.340525
10.63 -0.345845
10.64 -0.351123
10.65 -0.356345
10.66 -0.361498
10.67 -0.36657
10.68 -0.371535
10.69 -0.376383
10.7 -0.381101
10.71 -0.385672
10.72 -0.390082
10.73 -0.394315
10.74 -0.398353
10.75 -0.402168
10.76 -0.405769
10.77 -0.409147
10.78 -0.412298
10.79 -0.415221
10.8 -0.417916
10.81 -0.420373
10.82 -0.422612
10.83 -0.424653
10.84 -0.426514
10.85 -0.428214
10.86 -0.429773
10.87 -0.431214
10.88 -0.432557
10.89 -0.433837
10.9 -0.435078
10.91 -0.4363
10.92 -0.437524
10.93 -0.438763
10.94 -0.44003
10.95 -0.44133
10.96 -0.442659
10.97 -0.444006
10.98 -0.445357
10.99 -0.446687
11 -0.447965
11.01 -0.44914
11.02 -0.450172
11.03 -0.451012
11.04 -0.451605
11.05 -0.45189
11.06 -0.451809
11.07 -0.451271
11.08 -0.450203
11.09 -0.448574
11.1 -0.446328
11.11 -0.443414
11.12 -0.439788
11.13 -0.435413
11.14 -0.430173
11.15 -0.424127
11.16 -0.417273
11.17 -0.409614
11.18 -0.401161
11.19 -0.391938
11.2 -0.381942
11.21 -0.371205
11.22 -0.359829
11.23 -0.34787
11.24 -0.335391
11.25 -0.322457
11.26 -0.309138
11.27 -0.295479
11.28 -0.281583
11.29 -0.267523
11.3 -0.253361
11.31 -0.239156
11.32 -0.224963
11.33 -0.210829
11.34 -0.196802
11.35 -0.182905
11.36 -0.169157
11.37 -0.155569
11.38 -0.142142
11.39 -0.12887
11.4 -0.115749
11.41 -0.102747
11.42 -0.0898292
11.43 -0.0769615
11.44 -0.0641053
11.45 -0.0512188
11.46 -0.0382554
11.47 -0.0251568
11.48 -0.0118866
11.49 0.00159739
11.5 0.0153348
11.51 0.0293617
11.52 0.0437103
11.53 0.0584363
11.54 0.0735505
11.55 0.0890535
11.56 0.104954
11.57 0.121254
11.58 0.13795
11.59 0.155039
11.6 0.172535
11.61 0.190379
11.62 0.208542
11.63 0.226995
11.64 0.245702
11.65 0.264624
11.66 0.28373
11.67 0.302965
11.68 0.322274
11.69 0.341606
11.7 0.360911
11.71 0.380138
11.72 0.39923
11.73 0.418107
11.74 0.436727
11.75 0.455033
11.76 0.472967
11.77 0.490467
11.78 0.507473
11.79 0.523889
11.8 0.539637
11.81 0.554687
11.82 0.568975
11.83 0.582435
11.84 0.595002
11.85 0.60661
11.86 0.617078
11.87 0.626438
11.88 0.634637
11.89 0.641619
11.9 0.64733
11.91 0.651717
11.92 0.654676
11.93 0.656119
11.94 0.656115
11.95 0.654639
11.96 0.651676
11.97 0.647214
11.98 0.641253
11.99 0.633658
12 0.624564
12.01 0.614028
12.02 0.602086
12.03 0.588782
12.04 0.574169
12.05 0.558268
12.06 0.541095
12.07 0.522829
12.08 0.50355
12.09 0.483345
12.1 0.462302
12.11 0.440514
12.12 0.418031
12.13 0.394999
12.14 0.371538
12.15 0.34775
12.16 0.323737
12.17 0.299602
12.18 0.275449
12.19 0.251401
12.2 0.227558
12.21 0.204022
12.22 0.180892
12.23 0.158267
12.24 0.136243
12.25 0.114975
12.26 0.0945439
