# xPDFsuite Configuration #
[PDF]
wavelength = 0.1
dataformat = QA
inputfile = BiMsol6_insitu_700 C-00443.xy
backgroundfile = Quartz2mm-dist500-00000.xy
mode = xray
bgscale = 0.0042
composition = Bi2Fe4O9
outputtype = gr
qmaxinst = 24.998449118
qmin = 0.1
qmax = 21.4986662415
rmax = 80.0
rmin = 0.0
rstep = 0.01
rpoly = 0.9

[Misc]
inputdir = C:/Data/Seafile/CPH/Beamtime/Desy Oct 20/In situ data/Processed/BiMsol6/PDF
savedir = C:/Data/Seafile/CPH/Beamtime/Desy Oct 20/In situ data/PDF/BiMsol6
backgroundfilefull = C:/Data/Seafile/CPH/Beamtime/Desy Oct 20/In situ data/Processed/Standard_Empty_Cap/Quartz2mm-dist500-00000.xy

#### start data
#S 1
#L r($\AA$)  G($\AA^{-2}$)
0 0
0.01 0.005821
0.02 0.0113072
0.03 0.0161722
0.04 0.0201594
0.05 0.0230538
0.06 0.0246923
0.07 0.0248972
0.08 0.0236192
0.09 0.0209932
0.1 0.0171317
0.11 0.0122073
0.12 0.00644505
0.13 0.000112776
0.14 -0.00648654
0.15 -0.0129791
0.16 -0.019049
0.17 -0.0244005
0.18 -0.0287706
0.19 -0.0319411
0.2 -0.0336895
0.21 -0.0338682
0.22 -0.0325785
0.23 -0.0298921
0.24 -0.025954
0.25 -0.0209778
0.26 -0.0152373
0.27 -0.00904882
0.28 -0.00284863
0.29 0.00297418
0.3 0.00804263
0.31 0.0120009
0.32 0.014532
0.33 0.0153162
0.34 0.0140446
0.35 0.0107853
0.36 0.00555235
0.37 -0.00153986
0.38 -0.0102758
0.39 -0.020342
0.4 -0.0313698
0.41 -0.0427551
0.42 -0.0539065
0.43 -0.0642223
0.44 -0.0730823
0.45 -0.0798711
0.46 -0.0839382
0.47 -0.0844427
0.48 -0.0812209
0.49 -0.0739429
0.5 -0.0623986
0.51 -0.0465112
0.52 -0.026347
0.53 -0.00185193
0.54 0.0264224
0.55 0.0577562
0.56 0.0914817
0.57 0.126821
0.58 0.162906
0.59 0.198793
0.6 0.233278
0.61 0.265424
0.62 0.294288
0.63 0.318983
0.64 0.338716
0.65 0.352802
0.66 0.360292
0.67 0.360799
0.68 0.354501
0.69 0.341404
0.7 0.321695
0.71 0.295736
0.72 0.264053
0.73 0.22684
0.74 0.185567
0.75 0.141183
0.76 0.0946949
0.77 0.0471477
0.78 -0.000404102
0.79 -0.0468246
0.8 -0.0909668
0.81 -0.13204
0.82 -0.169286
0.83 -0.202081
0.84 -0.229948
0.85 -0.252567
0.86 -0.269227
0.87 -0.280454
0.88 -0.286529
0.89 -0.287805
0.9 -0.28476
0.91 -0.277979
0.92 -0.26804
0.93 -0.25569
0.94 -0.241922
0.95 -0.227497
0.96 -0.21315
0.97 -0.199563
0.98 -0.187347
0.99 -0.177239
1 -0.169558
1.01 -0.16453
1.02 -0.162307
1.03 -0.162926
1.04 -0.166311
1.05 -0.172343
1.06 -0.180843
1.07 -0.191214
1.08 -0.203035
1.09 -0.215849
1.1 -0.229184
1.11 -0.242573
1.12 -0.255507
1.13 -0.267555
1.14 -0.278403
1.15 -0.287785
1.16 -0.295516
1.17 -0.301487
1.18 -0.305641
1.19 -0.3079
1.2 -0.308585
1.21 -0.307893
1.22 -0.306071
1.23 -0.303401
1.24 -0.300181
1.25 -0.296722
1.26 -0.293362
1.27 -0.290374
1.28 -0.28798
1.29 -0.286354
1.3 -0.285616
1.31 -0.285831
1.32 -0.287088
1.33 -0.289202
1.34 -0.292042
1.35 -0.295428
1.36 -0.299146
1.37 -0.302953
1.38 -0.30657
1.39 -0.309701
1.4 -0.312123
1.41 -0.313625
1.42 -0.314036
1.43 -0.313234
1.44 -0.311151
1.45 -0.307637
1.46 -0.302901
1.47 -0.297074
1.48 -0.290339
1.49 -0.282925
1.5 -0.275099
1.51 -0.267166
1.52 -0.259488
1.53 -0.252379
1.54 -0.246135
1.55 -0.24102
1.56 -0.237262
1.57 -0.235036
1.58 -0.234628
1.59 -0.23594
1.6 -0.238906
1.61 -0.243417
1.62 -0.249295
1.63 -0.2563
1.64 -0.264158
1.65 -0.272499
1.66 -0.280886
1.67 -0.288928
1.68 -0.296237
1.69 -0.302436
1.7 -0.307181
1.71 -0.309985
1.72 -0.310689
1.73 -0.309174
1.74 -0.305345
1.75 -0.299181
1.76 -0.29074
1.77 -0.280107
1.78 -0.267392
1.79 -0.253074
1.8 -0.237486
1.81 -0.220999
1.82 -0.204013
1.83 -0.186933
1.84 -0.170221
1.85 -0.154295
1.86 -0.139483
1.87 -0.126079
1.88 -0.114319
1.89 -0.104373
1.9 -0.0963725
1.91 -0.0905081
1.92 -0.0865185
1.93 -0.084272
1.94 -0.0835761
1.95 -0.0841861
1.96 -0.0858165
1.97 -0.0881767
1.98 -0.0908745
1.99 -0.0935477
2 -0.0958826
2.01 -0.0975946
2.02 -0.0984396
2.03 -0.0982195
2.04 -0.0966594
2.05 -0.0938313
2.06 -0.0897503
2.07 -0.0844986
2.08 -0.0782218
2.09 -0.0711245
2.1 -0.063447
2.11 -0.0555351
2.12 -0.047751
2.13 -0.0404385
2.14 -0.0339409
2.15 -0.0285882
2.16 -0.0246842
2.17 -0.0227072
2.18 -0.022711
2.19 -0.0248269
2.2 -0.0291349
2.21 -0.0356477
2.22 -0.0443098
2.23 -0.0550824
2.24 -0.0677934
2.25 -0.0820447
2.26 -0.0975374
2.27 -0.113938
2.28 -0.13089
2.29 -0.148027
2.3 -0.164931
2.31 -0.18123
2.32 -0.196613
2.33 -0.210803
2.34 -0.22357
2.35 -0.234739
2.36 -0.244131
2.37 -0.251605
2.38 -0.257327
2.39 -0.261377
2.4 -0.263886
2.41 -0.265035
2.42 -0.265042
2.43 -0.264102
2.44 -0.262568
2.45 -0.260744
2.46 -0.258903
2.47 -0.257303
2.48 -0.256179
2.49 -0.255755
2.5 -0.256275
2.51 -0.257781
2.52 -0.260339
2.53 -0.263967
2.54 -0.268638
2.55 -0.27428
2.56 -0.280838
2.57 -0.288115
2.58 -0.295899
2.59 -0.304
2.6 -0.312216
2.61 -0.320345
2.62 -0.328184
2.63 -0.33549
2.64 -0.342139
2.65 -0.348003
2.66 -0.352982
2.67 -0.357008
2.68 -0.360046
2.69 -0.362029
2.7 -0.363007
2.71 -0.363089
2.72 -0.362358
2.73 -0.360911
2.74 -0.358856
2.75 -0.356306
2.76 -0.353342
2.77 -0.350122
2.78 -0.346738
2.79 -0.343265
2.8 -0.33976
2.81 -0.336258
2.82 -0.332774
2.83 -0.329294
2.84 -0.325785
2.85 -0.322195
2.86 -0.31846
2.87 -0.314505
2.88 -0.310249
2.89 -0.305559
2.9 -0.300388
2.91 -0.294669
2.92 -0.288344
2.93 -0.281371
2.94 -0.273723
2.95 -0.265364
2.96 -0.256288
2.97 -0.246579
2.98 -0.236288
2.99 -0.225477
3 -0.21422
3.01 -0.202596
3.02 -0.190669
3.03 -0.178549
3.04 -0.166315
3.05 -0.154028
3.06 -0.141736
3.07 -0.129469
3.08 -0.117242
3.09 -0.105045
3.1 -0.0928436
3.11 -0.0805865
3.12 -0.0682084
3.13 -0.0556301
3.14 -0.0427637
3.15 -0.0294753
3.16 -0.0156805
3.17 -0.00130574
3.18 0.0137242
3.19 0.0294687
3.2 0.0459672
3.21 0.0632515
3.22 0.0813634
3.23 0.100182
3.24 0.119632
3.25 0.139609
3.26 0.159981
3.27 0.180595
3.28 0.201264
3.29 0.221765
3.3 0.241892
3.31 0.261436
3.32 0.280189
3.33 0.297952
3.34 0.314528
3.35 0.3296
3.36 0.343165
3.37 0.355115
3.38 0.365376
3.39 0.373907
3.4 0.380699
3.41 0.385677
3.42 0.388928
3.43 0.390642
3.44 0.390942
3.45 0.389974
3.46 0.387899
3.47 0.384892
3.48 0.381069
3.49 0.376716
3.5 0.372012
3.51 0.367125
3.52 0.362212
3.53 0.357411
3.54 0.352863
3.55 0.348683
3.56 0.34493
3.57 0.341654
3.58 0.338889
3.59 0.336648
3.6 0.334929
3.61 0.333768
3.62 0.333086
3.63 0.332843
3.64 0.333
3.65 0.333521
3.66 0.334368
3.67 0.335521
3.68 0.336963
3.69 0.338657
3.7 0.340597
3.71 0.342783
3.72 0.345224
3.73 0.347937
3.74 0.35097
3.75 0.354328
3.76 0.358029
3.77 0.362092
3.78 0.366533
3.79 0.371363
3.8 0.376593
3.81 0.382234
3.82 0.388228
3.83 0.394541
3.84 0.401126
3.85 0.407927
3.86 0.414874
3.87 0.421893
3.88 0.428884
3.89 0.435757
3.9 0.442422
3.91 0.44879
3.92 0.454774
3.93 0.460282
3.94 0.465187
3.95 0.469473
3.96 0.473085
3.97 0.475979
3.98 0.478123
3.99 0.479492
4 0.480016
4.01 0.479712
4.02 0.478618
4.03 0.476743
4.04 0.474098
4.05 0.470696
4.06 0.466545
4.07 0.461581
4.08 0.455891
4.09 0.449478
4.1 0.442338
4.11 0.434465
4.12 0.425845
4.13 0.416417
4.14 0.406162
4.15 0.395103
4.16 0.383224
4.17 0.37051
4.18 0.356953
4.19 0.342551
4.2 0.327219
4.21 0.311072
4.22 0.294147
4.23 0.27649
4.24 0.258163
4.25 0.239238
4.26 0.219778
4.27 0.199887
4.28 0.179702
4.29 0.159336
4.3 0.138899
4.31 0.118505
4.32 0.0982616
4.33 0.0783071
4.34 0.0587194
4.35 0.0395709
4.36 0.020923
4.37 0.00282032
4.38 -0.0147103
4.39 -0.0316385
4.4 -0.0479539
4.41 -0.0637335
4.42 -0.0790231
4.43 -0.0938811
4.44 -0.108376
4.45 -0.122583
4.46 -0.136568
4.47 -0.150433
4.48 -0.164253
4.49 -0.178093
4.5 -0.192005
4.51 -0.206027
4.52 -0.220185
4.53 -0.234487
4.54 -0.248901
4.55 -0.263389
4.56 -0.277893
4.57 -0.292339
4.58 -0.306641
4.59 -0.32067
4.6 -0.334316
4.61 -0.347475
4.62 -0.360036
4.63 -0.371891
4.64 -0.382942
4.65 -0.393086
4.66 -0.402161
4.67 -0.410209
4.68 -0.4172
4.69 -0.423126
4.7 -0.428001
4.71 -0.431858
4.72 -0.434693
4.73 -0.436612
4.74 -0.437756
4.75 -0.438233
4.76 -0.438159
4.77 -0.437656
4.78 -0.436848
4.79 -0.435853
4.8 -0.434818
4.81 -0.433849
4.82 -0.43304
4.83 -0.43247
4.84 -0.432203
4.85 -0.432308
4.86 -0.432813
4.87 -0.433704
4.88 -0.43497
4.89 -0.436585
4.9 -0.438509
4.91 -0.440691
4.92 -0.443086
4.93 -0.445601
4.94 -0.448164
4.95 -0.450705
4.96 -0.453158
4.97 -0.455456
4.98 -0.457529
4.99 -0.459312
5 -0.460777
5.01 -0.461891
5.02 -0.462625
5.03 -0.462958
5.04 -0.462875
5.05 -0.462322
5.06 -0.461323
5.07 -0.459879
5.08 -0.457981
5.09 -0.455619
5.1 -0.452778
5.11 -0.449419
5.12 -0.44549
5.13 -0.440998
5.14 -0.435906
5.15 -0.43017
5.16 -0.423744
5.17 -0.416578
5.18 -0.408546
5.19 -0.39964
5.2 -0.389838
5.21 -0.379098
5.22 -0.367389
5.23 -0.354685
5.24 -0.34095
5.25 -0.326116
5.26 -0.310292
5.27 -0.293508
5.28 -0.275808
5.29 -0.257248
5.3 -0.237895
5.31 -0.217781
5.32 -0.197033
5.33 -0.175776
5.34 -0.154109
5.35 -0.132135
5.36 -0.109955
5.37 -0.0876671
5.38 -0.0653752
5.39 -0.043174
5.4 -0.0211408
5.41 0.000656219
5.42 0.0221577
5.43 0.0433139
5.44 0.0640554
5.45 0.0843511
5.46 0.104195
5.47 0.123566
5.48 0.142445
5.49 0.160814
5.5 0.178652
5.51 0.19587
5.52 0.212498
5.53 0.228501
5.54 0.243835
5.55 0.258446
5.56 0.272274
5.57 0.2852
5.58 0.29713
5.59 0.308037
5.6 0.317838
5.61 0.326448
5.62 0.333787
5.63 0.339778
5.64 0.344194
5.65 0.347114
5.66 0.34851
5.67 0.348357
5.68 0.34665
5.69 0.3434
5.7 0.338574
5.71 0.332192
5.72 0.32444
5.73 0.31541
5.74 0.305213
5.75 0.293969
5.76 0.281813
5.77 0.268825
5.78 0.255226
5.79 0.241177
5.8 0.226821
5.81 0.212295
5.82 0.197724
5.83 0.183229
5.84 0.168935
5.85 0.154914
5.86 0.141234
5.87 0.127944
5.88 0.11508
5.89 0.102663
5.9 0.0907392
5.91 0.0792803
5.92 0.0682602
5.93 0.0576627
5.94 0.0474698
5.95 0.0376647
5.96 0.0282421
5.97 0.0192215
5.98 0.0105705
5.99 0.0023016
6 -0.00556225
6.01 -0.0129876
6.02 -0.0199309
6.03 -0.0262948
6.04 -0.0320274
6.05 -0.0370847
6.06 -0.0413978
6.07 -0.0448982
6.08 -0.0475212
6.09 -0.0491976
6.1 -0.0497801
6.11 -0.0493368
6.12 -0.04785
6.13 -0.0453194
6.14 -0.0417631
6.15 -0.0372181
6.16 -0.031686
6.17 -0.0252656
6.18 -0.0181024
6.19 -0.0103077
6.2 -0.00200464
6.21 0.00667403
6.22 0.0155899
6.23 0.0245968
6.24 0.0335321
6.25 0.042263
6.26 0.0506663
6.27 0.0586312
6.28 0.0660618
6.29 0.0728439
6.3 0.0789039
6.31 0.0842477
6.32 0.0888609
6.33 0.0927488
6.34 0.0959351
6.35 0.09846
6.36 0.100322
6.37 0.101653
6.38 0.10254
6.39 0.103065
6.4 0.103314
6.41 0.103371
6.42 0.103317
6.43 0.103234
6.44 0.103194
6.45 0.10325
6.46 0.103445
6.47 0.103809
6.48 0.10436
6.49 0.105123
6.5 0.106079
6.51 0.107209
6.52 0.108491
6.53 0.1099
6.54 0.111407
6.55 0.112985
6.56 0.114605
6.57 0.116239
6.58 0.117869
6.59 0.119486
6.6 0.121086
6.61 0.122675
6.62 0.124266
6.63 0.125884
6.64 0.127556
6.65 0.129313
6.66 0.131193
6.67 0.133231
6.68 0.135467
6.69 0.137955
6.7 0.140703
6.71 0.14373
6.72 0.147046
6.73 0.150653
6.74 0.154539
6.75 0.158702
6.76 0.163094
6.77 0.16766
6.78 0.172344
6.79 0.177082
6.8 0.181805
6.81 0.186437
6.82 0.190873
6.83 0.195049
6.84 0.198888
6.85 0.20232
6.86 0.205281
6.87 0.207714
6.88 0.209534
6.89 0.210706
6.9 0.211238
6.91 0.21112
6.92 0.210352
6.93 0.208945
6.94 0.206919
6.95 0.204239
6.96 0.201011
6.97 0.197277
6.98 0.193083
6.99 0.188474
7 0.183495
7.01 0.178175
7.02 0.172555
7.03 0.16669
7.04 0.160609
7.05 0.154335
7.06 0.147888
7.07 0.141279
7.08 0.1345
7.09 0.12757
7.1 0.120491
7.11 0.113262
7.12 0.105883
7.13 0.0983539
7.14 0.090672
7.15 0.0828394
7.16 0.0748791
7.17 0.0668078
7.18 0.0586472
7.19 0.0504244
7.2 0.0421712
7.21 0.033928
7.22 0.0257388
7.23 0.0176452
7.24 0.00968942
7.25 0.00191249
7.26 -0.00564723
7.27 -0.0129477
7.28 -0.0199407
7.29 -0.0266301
7.3 -0.0330051
7.31 -0.0390645
7.32 -0.0448167
7.33 -0.05028
7.34 -0.0554645
7.35 -0.0604254
7.36 -0.0652197
7.37 -0.0699015
7.38 -0.0745303
7.39 -0.0791688
7.4 -0.0838839
7.41 -0.0887586
7.42 -0.0938448
7.43 -0.099198
7.44 -0.104867
7.45 -0.110892
7.46 -0.117305
7.47 -0.124154
7.48 -0.131439
7.49 -0.139135
7.5 -0.147224
7.51 -0.155677
7.52 -0.164454
7.53 -0.173507
7.54 -0.182792
7.55 -0.192214
7.56 -0.201699
7.57 -0.211172
7.58 -0.220555
7.59 -0.229768
7.6 -0.238715
7.61 -0.247309
7.62 -0.255494
7.63 -0.263204
7.64 -0.270377
7.65 -0.276961
7.66 -0.282905
7.67 -0.288089
7.68 -0.292549
7.69 -0.296263
7.7 -0.299211
7.71 -0.301381
7.72 -0.302766
7.73 -0.303329
7.74 -0.30306
7.75 -0.302025
7.76 -0.300244
7.77 -0.29774
7.78 -0.294542
7.79 -0.290685
7.8 -0.286153
7.81 -0.281048
7.82 -0.275435
7.83 -0.269372
7.84 -0.262922
7.85 -0.256153
7.86 -0.249133
7.87 -0.241942
7.88 -0.234676
7.89 -0.227417
7.9 -0.220245
7.91 -0.21324
7.92 -0.206478
7.93 -0.200065
7.94 -0.194056
7.95 -0.188497
7.96 -0.183438
7.97 -0.178915
7.98 -0.174956
7.99 -0.171589
8 -0.168854
8.01 -0.166686
8.02 -0.165061
8.03 -0.163943
8.04 -0.163287
8.05 -0.16304
8.06 -0.163165
8.07 -0.163574
8.08 -0.164188
8.09 -0.164939
8.1 -0.165763
8.11 -0.166601
8.12 -0.167396
8.13 -0.168092
8.14 -0.168659
8.15 -0.169074
8.16 -0.169323
8.17 -0.169403
8.18 -0.169322
8.19 -0.169086
8.2 -0.168726
8.21 -0.168277
8.22 -0.167772
8.23 -0.167244
8.24 -0.166721
8.25 -0.166229
8.26 -0.165793
8.27 -0.165414
8.28 -0.165087
8.29 -0.164791
8.3 -0.164495
8.31 -0.164149
8.32 -0.163683
8.33 -0.163007
8.34 -0.162039
8.35 -0.160678
8.36 -0.15882
8.37 -0.156355
8.38 -0.153172
8.39 -0.149062
8.4 -0.143998
8.41 -0.1379
8.42 -0.130693
8.43 -0.122318
8.44 -0.112736
8.45 -0.101873
8.46 -0.0897066
8.47 -0.0763556
8.48 -0.0618755
8.49 -0.0463425
8.5 -0.0298521
8.51 -0.0125172
8.52 0.00559195
8.53 0.0242634
8.54 0.0433375
8.55 0.0626658
8.56 0.0821014
8.57 0.101503
8.58 0.120729
8.59 0.13963
8.6 0.158123
8.61 0.176126
8.62 0.193576
8.63 0.210429
8.64 0.226661
8.65 0.242215
8.66 0.257142
8.67 0.271491
8.68 0.285304
8.69 0.29863
8.7 0.311524
8.71 0.324032
8.72 0.336189
8.73 0.348072
8.74 0.359713
8.75 0.371132
8.76 0.38233
8.77 0.393295
8.78 0.403969
8.79 0.414304
8.8 0.424237
8.81 0.433681
8.82 0.442534
8.83 0.450685
8.84 0.458001
8.85 0.464255
8.86 0.469411
8.87 0.473348
8.88 0.475952
8.89 0.477124
8.9 0.476775
8.91 0.474727
8.92 0.470944
8.93 0.465485
8.94 0.458343
8.95 0.449536
8.96 0.4391
8.97 0.427088
8.98 0.41341
8.99 0.398338
9 0.381972
9.01 0.364423
9.02 0.345804
9.03 0.326232
9.04 0.305783
9.05 0.284578
9.06 0.262772
9.07 0.240461
9.08 0.217731
9.09 0.194658
9.1 0.17131
9.11 0.147726
9.12 0.12398
9.13 0.100116
9.14 0.0761708
9.15 0.0521795
9.16 0.0281779
9.17 0.00420733
9.18 -0.0196798
9.19 -0.0434337
9.2 -0.0669934
9.21 -0.0902876
9.22 -0.113234
9.23 -0.135741
9.24 -0.157642
9.25 -0.17885
9.26 -0.199256
9.27 -0.218734
9.28 -0.237153
9.29 -0.254386
9.3 -0.270262
9.31 -0.28457
9.32 -0.297319
9.33 -0.308417
9.34 -0.317788
9.35 -0.325374
9.36 -0.331136
9.37 -0.334901
9.38 -0.336772
9.39 -0.33684
9.4 -0.335153
9.41 -0.331778
9.42 -0.3268
9.43 -0.320286
9.44 -0.31225
9.45 -0.302953
9.46 -0.292511
9.47 -0.281042
9.48 -0.268661
9.49 -0.255473
9.5 -0.241533
9.51 -0.22696
9.52 -0.211854
9.53 -0.196275
9.54 -0.180266
9.55 -0.163862
9.56 -0.147077
9.57 -0.129889
9.58 -0.112339
9.59 -0.094423
9.6 -0.0761373
9.61 -0.0574789
9.62 -0.0384486
9.63 -0.019033
9.64 0.000743398
9.65 0.0208286
9.66 0.0411772
9.67 0.0617296
9.68 0.0824121
9.69 0.103137
9.7 0.123784
9.71 0.144236
9.72 0.16437
9.73 0.184058
9.74 0.20317
9.75 0.221575
9.76 0.239101
9.77 0.255599
9.78 0.271023
9.79 0.285285
9.8 0.298315
9.81 0.31006
9.82 0.320489
9.83 0.329454
9.84 0.337092
9.85 0.343456
9.86 0.3486
9.87 0.352594
9.88 0.35552
9.89 0.357437
9.9 0.358428
9.91 0.35867
9.92 0.358266
9.93 0.357311
9.94 0.355895
9.95 0.354094
9.96 0.351948
9.97 0.349531
9.98 0.346878
9.99 0.343998
10 0.340888
10.01 0.337524
10.02 0.333861
10.03 0.329827
10.04 0.325388
10.05 0.320482
10.06 0.315046
10.07 0.309017
10.08 0.302339
10.09 0.294903
10.1 0.286704
10.11 0.277749
10.12 0.268036
10.13 0.257582
10.14 0.246423
10.15 0.234602
10.16 0.222155
10.17 0.20924
10.18 0.19596
10.19 0.182436
10.2 0.168791
10.21 0.155158
10.22 0.141687
10.23 0.128523
10.24 0.115779
10.25 0.103568
10.26 0.0919882
10.27 0.0811224
10.28 0.0710417
10.29 0.0618804
10.3 0.0535717
10.31 0.0461154
10.32 0.0394913
10.33 0.0336605
10.34 0.0285666
10.35 0.0241727
10.36 0.0203772
10.37 0.0170462
10.38 0.0140762
10.39 0.0113606
10.4 0.00879239
10.41 0.00626681
10.42 0.00366715
10.43 0.000900016
10.44 -0.00211464
10.45 -0.00544607
10.46 -0.00915146
10.47 -0.0132755
10.48 -0.0178732
10.49 -0.0229746
10.5 -0.0285536
10.51 -0.0346053
10.52 -0.0411157
10.53 -0.0480638
10.54 -0.0554225
10.55 -0.0631962
10.56 -0.0713147
10.57 -0.0797379
10.58 -0.0884322
10.59 -0.0973656
10.6 -0.106509
10.61 -0.115842
10.62 -0.125345
10.63 -0.134986
10.64 -0.144749
10.65 -0.154621
10.66 -0.164591
10.67 -0.17465
10.68 -0.184794
10.69 -0.195008
10.7 -0.205279
10.71 -0.215594
10.72 -0.225938
10.73 -0.236293
10.74 -0.246639
10.75 -0.256948
10.76 -0.267195
10.77 -0.277355
10.78 -0.287399
10.79 -0.297299
10.8 -0.307029
10.81 -0.316546
10.82 -0.325834
10.83 -0.334881
10.84 -0.343675
10.85 -0.352207
10.86 -0.360474
10.87 -0.368472
10.88 -0.376189
10.89 -0.383664
10.9 -0.390915
10.91 -0.397961
10.92 -0.404824
10.93 -0.411527
10.94 -0.418083
10.95 -0.424518
10.96 -0.430854
10.97 -0.437102
10.98 -0.443265
10.99 -0.44934
11 -0.455316
11.01 -0.461158
11.02 -0.466847
11.03 -0.472343
11.04 -0.477602
11.05 -0.482569
11.06 -0.487186
11.07 -0.491361
11.08 -0.495015
11.09 -0.498107
11.1 -0.50057
11.11 -0.502342
11.12 -0.503363
11.13 -0.503582
11.14 -0.502858
11.15 -0.501245
11.16 -0.498726
11.17 -0.495294
11.18 -0.490951
11.19 -0.485711
11.2 -0.479561
11.21 -0.472524
11.22 -0.464708
11.23 -0.456171
11.24 -0.446972
11.25 -0.437177
11.26 -0.426855
11.27 -0.416034
11.28 -0.404824
11.29 -0.393296
11.3 -0.381504
11.31 -0.369498
11.32 -0.357317
11.33 -0.344988
11.34 -0.332529
11.35 -0.319958
11.36 -0.307274
11.37 -0.294466
11.38 -0.281515
11.39 -0.268394
11.4 -0.255048
11.41 -0.241448
11.42 -0.227558
11.43 -0.213337
11.44 -0.198745
11.45 -0.183745
11.46 -0.168291
11.47 -0.152321
11.48 -0.135861
11.49 -0.118898
11.5 -0.101434
11.51 -0.0834761
11.52 -0.0650432
11.53 -0.0461309
11.54 -0.0267989
11.55 -0.00711182
11.56 0.0128765
11.57 0.0331063
11.58 0.0535129
11.59 0.0740291
11.6 0.0945799
11.61 0.115085
11.62 0.135476
11.63 0.155687
11.64 0.175654
11.65 0.19532
11.66 0.214607
11.67 0.233466
11.68 0.251879
11.69 0.269814
11.7 0.287247
11.71 0.304161
11.72 0.320542
11.73 0.336322
11.74 0.351563
11.75 0.366268
11.76 0.380442
11.77 0.394091
11.78 0.407225
11.79 0.419821
11.8 0.431883
11.81 0.443445
11.82 0.454505
11.83 0.465057
11.84 0.475091
11.85 0.484592
11.86 0.493476
11.87 0.501765
11.88 0.509432
11.89 0.516436
11.9 0.522734
11.91 0.528274
11.92 0.532968
11.93 0.536724
11.94 0.539544
11.95 0.54137
11.96 0.542142
11.97 0.541802
11.98 0.540298
11.99 0.537454
12 0.533315
12.01 0.527868
12.02 0.521082
12.03 0.512937
12.04 0.503419
12.05 0.492481
12.06 0.480065
12.07 0.466308
12.08 0.451243
12.09 0.434917
12.1 0.417384
12.11 0.398711
12.12 0.378892
12.13 0.358085
12.14 0.336418
12.15 0.313997
12.16 0.290934
12.17 0.267343
12.18 0.24334
12.19 0.21904
12.2 0.194604
12.21 0.170154
12.22 0.14581
12.23 0.121689
