# xPDFsuite Configuration #
[PDF]
wavelength = 0.1
dataformat = QA
inputfile = BiMsol6_insitu_700 C-00119.xy
backgroundfile = Quartz2mm-dist500-00000.xy
mode = xray
bgscale = 0.0042
composition = Bi2Fe4O9
outputtype = gr
qmaxinst = 24.998449118
qmin = 0.1
qmax = 21.4986662415
rmax = 80.0
rmin = 0.0
rstep = 0.01
rpoly = 0.9

[Misc]
inputdir = C:/Data/Seafile/CPH/Beamtime/Desy Oct 20/In situ data/Processed/BiMsol6/PDF
savedir = C:/Data/Seafile/CPH/Beamtime/Desy Oct 20/In situ data/PDF/BiMsol6
backgroundfilefull = C:/Data/Seafile/CPH/Beamtime/Desy Oct 20/In situ data/Processed/Standard_Empty_Cap/Quartz2mm-dist500-00000.xy

#### start data
#S 1
#L r($\AA$)  G($\AA^{-2}$)
0 0
0.01 0.00655913
0.02 0.0127524
0.03 0.0182666
0.04 0.0228207
0.05 0.0261784
0.06 0.0281595
0.07 0.0285663
0.08 0.0273406
0.09 0.0246259
0.1 0.0205402
0.11 0.0152668
0.12 0.00904687
0.13 0.00216814
0.14 -0.00504663
0.15 -0.012188
0.16 -0.018911
0.17 -0.0248914
0.18 -0.0298384
0.19 -0.0335081
0.2 -0.0356498
0.21 -0.0360907
0.22 -0.0349263
0.23 -0.0322202
0.24 -0.0281146
0.25 -0.0228256
0.26 -0.0166353
0.27 -0.00986297
0.28 -0.00297444
0.29 0.00361601
0.3 0.00950612
0.31 0.014313
0.32 0.0176918
0.33 0.0192934
0.34 0.018776
0.35 0.0161871
0.36 0.0115206
0.37 0.00487445
0.38 -0.00354772
0.39 -0.0134397
0.4 -0.0244473
0.41 -0.0359557
0.42 -0.0473612
0.43 -0.0580505
0.44 -0.0673888
0.45 -0.0747438
0.46 -0.0794478
0.47 -0.0806421
0.48 -0.0781386
0.49 -0.0715906
0.5 -0.0607733
0.51 -0.0455987
0.52 -0.0261247
0.53 -0.00229096
0.54 0.0253499
0.55 0.0560727
0.56 0.0892017
0.57 0.123948
0.58 0.159431
0.59 0.194693
0.6 0.228507
0.61 0.259927
0.62 0.287996
0.63 0.311819
0.64 0.330595
0.65 0.343639
0.66 0.349998
0.67 0.349298
0.68 0.341736
0.69 0.327339
0.7 0.30632
0.71 0.279069
0.72 0.246148
0.73 0.207799
0.74 0.165523
0.75 0.120306
0.76 0.0731897
0.77 0.0252509
0.78 -0.0224291
0.79 -0.0686774
0.8 -0.112327
0.81 -0.1526
0.82 -0.188744
0.83 -0.220145
0.84 -0.246348
0.85 -0.267061
0.86 -0.281591
0.87 -0.29053
0.88 -0.294211
0.89 -0.293037
0.9 -0.28754
0.91 -0.278357
0.92 -0.266122
0.93 -0.251641
0.94 -0.235935
0.95 -0.219799
0.96 -0.203989
0.97 -0.189201
0.98 -0.176049
0.99 -0.165286
1 -0.157192
1.01 -0.151957
1.02 -0.149696
1.03 -0.150404
1.04 -0.153952
1.05 -0.160171
1.06 -0.168817
1.07 -0.179241
1.08 -0.190973
1.09 -0.203512
1.1 -0.216352
1.11 -0.229
1.12 -0.240908
1.13 -0.251656
1.14 -0.260946
1.15 -0.268539
1.16 -0.27428
1.17 -0.278105
1.18 -0.28001
1.19 -0.279981
1.2 -0.278412
1.21 -0.275571
1.22 -0.27177
1.23 -0.267355
1.24 -0.262685
1.25 -0.258147
1.26 -0.254115
1.27 -0.250871
1.28 -0.248648
1.29 -0.247619
1.3 -0.247884
1.31 -0.249478
1.32 -0.252471
1.33 -0.256575
1.34 -0.261587
1.35 -0.267248
1.36 -0.273257
1.37 -0.279284
1.38 -0.284947
1.39 -0.289856
1.4 -0.293723
1.41 -0.296272
1.42 -0.297283
1.43 -0.296595
1.44 -0.294119
1.45 -0.289648
1.46 -0.283462
1.47 -0.275733
1.48 -0.266697
1.49 -0.256649
1.5 -0.245935
1.51 -0.234949
1.52 -0.224161
1.53 -0.213996
1.54 -0.204849
1.55 -0.197081
1.56 -0.191006
1.57 -0.186874
1.58 -0.18509
1.59 -0.185562
1.6 -0.188242
1.61 -0.193022
1.62 -0.199712
1.63 -0.208037
1.64 -0.217683
1.65 -0.228216
1.66 -0.239075
1.67 -0.249772
1.68 -0.259811
1.69 -0.268707
1.7 -0.276004
1.71 -0.281079
1.72 -0.283677
1.73 -0.283602
1.74 -0.280687
1.75 -0.274859
1.76 -0.26614
1.77 -0.254583
1.78 -0.240268
1.79 -0.223762
1.8 -0.205448
1.81 -0.185767
1.82 -0.165198
1.83 -0.144244
1.84 -0.123463
1.85 -0.103405
1.86 -0.0845142
1.87 -0.0671904
1.88 -0.0517692
1.89 -0.0385101
1.9 -0.027625
1.91 -0.019413
1.92 -0.013604
1.93 -0.0100835
1.94 -0.00865653
1.95 -0.00905724
1.96 -0.0109605
1.97 -0.0140442
1.98 -0.0178268
1.99 -0.0218424
2 -0.025688
2.01 -0.0289862
2.02 -0.031401
2.03 -0.0326456
2.04 -0.0323367
2.05 -0.0304944
2.06 -0.0270827
2.07 -0.0221491
2.08 -0.0158226
2.09 -0.0083094
2.1 0.000146861
2.11 0.00915458
2.12 0.0182714
2.13 0.0270805
2.14 0.0351547
2.15 0.042072
2.16 0.0474324
2.17 0.0506281
2.18 0.0515249
2.19 0.0499095
2.2 0.0456298
2.21 0.0386159
2.22 0.0288829
2.23 0.0164215
2.24 0.0013909
2.25 -0.0157424
2.26 -0.0346325
2.27 -0.0548797
2.28 -0.0760441
2.29 -0.0976597
2.3 -0.119201
2.31 -0.140149
2.32 -0.160065
2.33 -0.178548
2.34 -0.195246
2.35 -0.209874
2.36 -0.222129
2.37 -0.231745
2.38 -0.238875
2.39 -0.243558
2.4 -0.245909
2.41 -0.24611
2.42 -0.244408
2.43 -0.240987
2.44 -0.236322
2.45 -0.230825
2.46 -0.224872
2.47 -0.218835
2.48 -0.213066
2.49 -0.207913
2.5 -0.203756
2.51 -0.200756
2.52 -0.199082
2.53 -0.19884
2.54 -0.200079
2.55 -0.202783
2.56 -0.206977
2.57 -0.212461
2.58 -0.218997
2.59 -0.226369
2.6 -0.234332
2.61 -0.242629
2.62 -0.250993
2.63 -0.259116
2.64 -0.266756
2.65 -0.273698
2.66 -0.27976
2.67 -0.284796
2.68 -0.2887
2.69 -0.291331
2.7 -0.29269
2.71 -0.292874
2.72 -0.291954
2.73 -0.290033
2.74 -0.287241
2.75 -0.283729
2.76 -0.279615
2.77 -0.275148
2.78 -0.270492
2.79 -0.265802
2.8 -0.261215
2.81 -0.256845
2.82 -0.252804
2.83 -0.249161
2.84 -0.245921
2.85 -0.24308
2.86 -0.240605
2.87 -0.238439
2.88 -0.236506
2.89 -0.234714
2.9 -0.232934
2.91 -0.231051
2.92 -0.228955
2.93 -0.226543
2.94 -0.22372
2.95 -0.220384
2.96 -0.216451
2.97 -0.211926
2.98 -0.206796
2.99 -0.201071
3 -0.194781
3.01 -0.187977
3.02 -0.180688
3.03 -0.173037
3.04 -0.165121
3.05 -0.157033
3.06 -0.148863
3.07 -0.140695
3.08 -0.13261
3.09 -0.124683
3.1 -0.116948
3.11 -0.109431
3.12 -0.102135
3.13 -0.0950462
3.14 -0.0881315
3.15 -0.081346
3.16 -0.0746083
3.17 -0.0678357
3.18 -0.0609421
3.19 -0.0538377
3.2 -0.0464326
3.21 -0.0386313
3.22 -0.0303114
3.23 -0.021447
3.24 -0.0119875
3.25 -0.00189762
3.26 0.00884111
3.27 0.0202303
3.28 0.0322993
3.29 0.0449913
3.3 0.058231
3.31 0.0719593
3.32 0.0861094
3.33 0.100609
3.34 0.115385
3.35 0.130376
3.36 0.145486
3.37 0.160652
3.38 0.175824
3.39 0.190959
3.4 0.206025
3.41 0.220995
3.42 0.235862
3.43 0.250631
3.44 0.265311
3.45 0.279914
3.46 0.294455
3.47 0.308948
3.48 0.323399
3.49 0.337813
3.5 0.352181
3.51 0.366482
3.52 0.380681
3.53 0.394727
3.54 0.40854
3.55 0.422023
3.56 0.435095
3.57 0.447646
3.58 0.459563
3.59 0.470722
3.6 0.480999
3.61 0.490156
3.62 0.498156
3.63 0.504907
3.64 0.510319
3.65 0.514317
3.66 0.516846
3.67 0.517811
3.68 0.51715
3.69 0.514998
3.7 0.511397
3.71 0.506411
3.72 0.500128
3.73 0.492648
3.74 0.484002
3.75 0.474409
3.76 0.464034
3.77 0.453016
3.78 0.441495
3.79 0.429603
3.8 0.417462
3.81 0.405192
3.82 0.392907
3.83 0.380688
3.84 0.368595
3.85 0.356673
3.86 0.344951
3.87 0.333456
3.88 0.322174
3.89 0.311079
3.9 0.300145
3.91 0.289338
3.92 0.278624
3.93 0.267966
3.94 0.257328
3.95 0.246678
3.96 0.235995
3.97 0.225269
3.98 0.214498
3.99 0.203691
4 0.192866
4.01 0.182057
4.02 0.171301
4.03 0.160642
4.04 0.150125
4.05 0.139798
4.06 0.129709
4.07 0.119936
4.08 0.110487
4.09 0.101389
4.1 0.0926619
4.11 0.084313
4.12 0.0763398
4.13 0.0687493
4.14 0.0615113
4.15 0.0545701
4.16 0.0478837
4.17 0.0414045
4.18 0.0350825
4.19 0.0288672
4.2 0.0227117
4.21 0.0165633
4.22 0.0103873
4.23 0.0041589
4.24 -0.0021356
4.25 -0.008498
4.26 -0.0149191
4.27 -0.0213708
4.28 -0.0278113
4.29 -0.0341922
4.3 -0.0404568
4.31 -0.0465426
4.32 -0.0523836
4.33 -0.0578749
4.34 -0.0629739
4.35 -0.0676289
4.36 -0.0717928
4.37 -0.0754299
4.38 -0.0785181
4.39 -0.0810297
4.4 -0.082955
4.41 -0.0843681
4.42 -0.0853149
4.43 -0.0858561
4.44 -0.0860651
4.45 -0.0860261
4.46 -0.0858255
4.47 -0.0855818
4.48 -0.0853958
4.49 -0.0853611
4.5 -0.0855644
4.51 -0.0860821
4.52 -0.0869892
4.53 -0.0883642
4.54 -0.0901969
4.55 -0.0924932
4.56 -0.0952392
4.57 -0.098402
4.58 -0.10193
4.59 -0.105774
4.6 -0.109825
4.61 -0.113977
4.62 -0.118128
4.63 -0.122173
4.64 -0.126005
4.65 -0.129517
4.66 -0.132571
4.67 -0.135123
4.68 -0.13711
4.69 -0.138486
4.7 -0.139223
4.71 -0.139314
4.72 -0.13873
4.73 -0.137525
4.74 -0.135783
4.75 -0.133576
4.76 -0.130986
4.77 -0.128109
4.78 -0.125045
4.79 -0.121904
4.8 -0.118807
4.81 -0.115855
4.82 -0.11314
4.83 -0.110745
4.84 -0.108738
4.85 -0.107203
4.86 -0.106183
4.87 -0.105669
4.88 -0.105664
4.89 -0.106155
4.9 -0.107113
4.91 -0.108499
4.92 -0.110299
4.93 -0.112406
4.94 -0.114756
4.95 -0.117282
4.96 -0.119919
4.97 -0.122606
4.98 -0.125283
4.99 -0.127893
5 -0.1304
5.01 -0.132774
5.02 -0.134996
5.03 -0.137056
5.04 -0.138954
5.05 -0.140682
5.06 -0.142269
5.07 -0.143734
5.08 -0.1451
5.09 -0.146387
5.1 -0.147615
5.11 -0.1488
5.12 -0.149954
5.13 -0.151083
5.14 -0.152186
5.15 -0.153254
5.16 -0.15427
5.17 -0.155214
5.18 -0.156046
5.19 -0.156737
5.2 -0.157256
5.21 -0.157569
5.22 -0.157644
5.23 -0.157454
5.24 -0.156966
5.25 -0.156145
5.26 -0.155011
5.27 -0.15357
5.28 -0.151837
5.29 -0.149834
5.3 -0.147598
5.31 -0.145158
5.32 -0.14258
5.33 -0.139928
5.34 -0.137261
5.35 -0.134638
5.36 -0.132117
5.37 -0.129756
5.38 -0.127624
5.39 -0.12574
5.4 -0.12413
5.41 -0.122807
5.42 -0.121769
5.43 -0.121005
5.44 -0.120501
5.45 -0.120208
5.46 -0.120061
5.47 -0.119999
5.48 -0.119954
5.49 -0.119856
5.5 -0.119632
5.51 -0.119181
5.52 -0.118456
5.53 -0.1174
5.54 -0.115967
5.55 -0.114125
5.56 -0.111853
5.57 -0.109125
5.58 -0.105951
5.59 -0.102388
5.6 -0.0984799
5.61 -0.0942824
5.62 -0.0898613
5.63 -0.0852905
5.64 -0.0806499
5.65 -0.0760353
5.66 -0.0715257
5.67 -0.0671942
5.68 -0.0631058
5.69 -0.0593148
5.7 -0.0558784
5.71 -0.0528353
5.72 -0.0501665
5.73 -0.0478617
5.74 -0.0458947
5.75 -0.0442242
5.76 -0.0427954
5.77 -0.0415521
5.78 -0.0403962
5.79 -0.039243
5.8 -0.0380094
5.81 -0.0366145
5.82 -0.0349826
5.83 -0.033034
5.84 -0.0306881
5.85 -0.0279333
5.86 -0.024747
5.87 -0.021124
5.88 -0.0170767
5.89 -0.0126345
5.9 -0.00781881
5.91 -0.00271968
5.92 0.00257588
5.93 0.00798249
5.94 0.013409
5.95 0.0187621
5.96 0.0239438
5.97 0.0288382
5.98 0.0333868
5.99 0.0375263
6 0.0412083
6.01 0.0444014
6.02 0.0470928
6.03 0.0492536
6.04 0.050932
6.05 0.0521976
6.06 0.0531152
6.07 0.0537639
6.08 0.0542336
6.09 0.0546226
6.1 0.0550476
6.11 0.0556167
6.12 0.0564268
6.13 0.0575662
6.14 0.0591112
6.15 0.0611231
6.16 0.0636797
6.17 0.0667999
6.18 0.0704538
6.19 0.0746175
6.2 0.0792467
6.21 0.0842776
6.22 0.0896291
6.23 0.0952186
6.24 0.100901
6.25 0.106558
6.26 0.11207
6.27 0.117318
6.28 0.122187
6.29 0.126543
6.3 0.130273
6.31 0.133339
6.32 0.135686
6.33 0.137282
6.34 0.138116
6.35 0.138197
6.36 0.137488
6.37 0.136116
6.38 0.134166
6.39 0.131725
6.4 0.128896
6.41 0.125787
6.42 0.122511
6.43 0.119196
6.44 0.115962
6.45 0.112911
6.46 0.110133
6.47 0.107705
6.48 0.105686
6.49 0.104164
6.5 0.103128
6.51 0.102567
6.52 0.10246
6.53 0.102769
6.54 0.103441
6.55 0.104416
6.56 0.105615
6.57 0.106927
6.58 0.108259
6.59 0.109522
6.6 0.110625
6.61 0.111485
6.62 0.111997
6.63 0.112108
6.64 0.111781
6.65 0.110986
6.66 0.109706
6.67 0.10794
6.68 0.105696
6.69 0.102974
6.7 0.0998641
6.71 0.0964238
6.72 0.0927177
6.73 0.0888168
6.74 0.0847957
6.75 0.0807322
6.76 0.0767115
6.77 0.0728037
6.78 0.0690706
6.79 0.065566
6.8 0.0623337
6.81 0.0594096
6.82 0.0568497
6.83 0.0546274
6.84 0.0527389
6.85 0.05117
6.86 0.0498973
6.87 0.0488896
6.88 0.0481203
6.89 0.0475386
6.9 0.0470862
6.91 0.0467162
6.92 0.046383
6.93 0.0460429
6.94 0.0456562
6.95 0.045175
6.96 0.0445774
6.97 0.0438419
6.98 0.0429532
6.99 0.0419025
7 0.0406867
7.01 0.0393002
7.02 0.0377494
7.03 0.0360566
7.04 0.0342362
7.05 0.0323039
7.06 0.030276
7.07 0.0281687
7.08 0.0259915
7.09 0.0237644
7.1 0.0214985
7.11 0.0192015
7.12 0.0168784
7.13 0.0145318
7.14 0.0121609
7.15 0.00976311
7.16 0.00733753
7.17 0.00488123
7.18 0.00239179
7.19 -0.000131939
7.2 -0.00268913
7.21 -0.00527849
7.22 -0.00788998
7.23 -0.0105117
7.24 -0.0131285
7.25 -0.0157217
7.26 -0.0182687
7.27 -0.020741
7.28 -0.0230997
7.29 -0.0253208
7.3 -0.0273725
7.31 -0.0292232
7.32 -0.0308423
7.33 -0.0322016
7.34 -0.0332511
7.35 -0.0339813
7.36 -0.0343889
7.37 -0.0344662
7.38 -0.0342128
7.39 -0.0336354
7.4 -0.0327431
7.41 -0.0315376
7.42 -0.0300805
7.43 -0.0284092
7.44 -0.0265672
7.45 -0.024603
7.46 -0.0225689
7.47 -0.020523
7.48 -0.0185304
7.49 -0.0166475
7.5 -0.0149286
7.51 -0.013425
7.52 -0.0121833
7.53 -0.0112464
7.54 -0.0106873
7.55 -0.0104953
7.56 -0.0106861
7.57 -0.0112661
7.58 -0.0122323
7.59 -0.0135728
7.6 -0.0152854
7.61 -0.0173344
7.62 -0.01966
7.63 -0.0222165
7.64 -0.0249526
7.65 -0.0278128
7.66 -0.0307394
7.67 -0.0336671
7.68 -0.0365309
7.69 -0.0392748
7.7 -0.0418462
7.71 -0.044198
7.72 -0.0462893
7.73 -0.0480713
7.74 -0.0495099
7.75 -0.0506122
7.76 -0.0513743
7.77 -0.0518018
7.78 -0.0519098
7.79 -0.0517221
7.8 -0.0512484
7.81 -0.050556
7.82 -0.049696
7.83 -0.0487197
7.84 -0.0476809
7.85 -0.0466346
7.86 -0.0456388
7.87 -0.0447564
7.88 -0.0440289
7.89 -0.0434961
7.9 -0.0431904
7.91 -0.0431351
7.92 -0.0433437
7.93 -0.0438425
7.94 -0.0446042
7.95 -0.0455998
7.96 -0.0467972
7.97 -0.0481547
7.98 -0.0496224
7.99 -0.0511426
8 -0.0526433
8.01 -0.0540542
8.02 -0.055308
8.03 -0.056339
8.04 -0.0570856
8.05 -0.057492
8.06 -0.057477
8.07 -0.0570158
8.08 -0.0561014
8.09 -0.0547249
8.1 -0.0528919
8.11 -0.0506223
8.12 -0.0479459
8.13 -0.044888
8.14 -0.0415543
8.15 -0.038021
8.16 -0.0343734
8.17 -0.0307035
8.18 -0.0271075
8.19 -0.0237011
8.2 -0.0205904
8.21 -0.017855
8.22 -0.0155755
8.23 -0.013821
8.24 -0.0126469
8.25 -0.0120951
8.26 -0.0122589
8.27 -0.0130653
8.28 -0.0144934
8.29 -0.0165031
8.3 -0.0190362
8.31 -0.0220178
8.32 -0.025372
8.33 -0.0289798
8.34 -0.0327063
8.35 -0.036432
8.36 -0.0400356
8.37 -0.0433974
8.38 -0.0464031
8.39 -0.0488864
8.4 -0.0507944
8.41 -0.0520568
8.42 -0.0526179
8.43 -0.0524417
8.44 -0.0515128
8.45 -0.0498049
8.46 -0.0473332
8.47 -0.0442038
8.48 -0.0404876
8.49 -0.0362715
8.5 -0.0316551
8.51 -0.0267481
8.52 -0.0216613
8.53 -0.0165407
8.54 -0.011506
8.55 -0.00666816
8.56 -0.00212915
8.57 0.00202137
8.58 0.00569047
8.59 0.00878925
8.6 0.0113228
8.61 0.0132761
8.62 0.0146535
8.63 0.0154779
8.64 0.0157894
8.65 0.01561
8.66 0.0150451
8.67 0.0141893
8.68 0.0131299
8.69 0.011957
8.7 0.0107602
8.71 0.00962859
8.72 0.00866026
8.73 0.00791406
8.74 0.00744362
8.75 0.00728842
8.76 0.0074727
8.77 0.00800503
8.78 0.0089026
8.79 0.0101262
8.8 0.0116231
8.81 0.0133436
8.82 0.015229
8.83 0.0172149
8.84 0.0192329
8.85 0.0212034
8.86 0.0230604
8.87 0.0247456
8.88 0.0262095
8.89 0.0274129
8.9 0.0283287
8.91 0.028923
8.92 0.0292008
8.93 0.0291941
8.94 0.0289311
8.95 0.0284509
8.96 0.0278015
8.97 0.0270378
8.98 0.0262198
8.99 0.0254201
9 0.0246973
9.01 0.0241053
9.02 0.0236911
9.03 0.0234922
9.04 0.0235487
9.05 0.023877
9.06 0.0244587
9.07 0.0252773
9.08 0.0263034
9.09 0.0274959
9.1 0.0288035
9.11 0.0301655
9.12 0.031504
9.13 0.0327499
9.14 0.0338355
9.15 0.0346969
9.16 0.0352765
9.17 0.0355101
9.18 0.035346
9.19 0.0347895
9.2 0.033836
9.21 0.0324965
9.22 0.0307973
9.23 0.0287798
9.24 0.0264804
9.25 0.0239951
9.26 0.021408
9.27 0.0188038
9.28 0.0162697
9.29 0.0138928
9.3 0.0117664
9.31 0.00999286
9.32 0.00861328
9.33 0.00767705
9.34 0.0072181
9.35 0.00725335
9.36 0.00778181
9.37 0.00882126
9.38 0.0103023
9.39 0.0121518
9.4 0.0142979
9.41 0.016657
9.42 0.0191365
9.43 0.0216369
9.44 0.0240398
9.45 0.0262478
9.46 0.0281704
9.47 0.029727
9.48 0.0308496
9.49 0.0314854
9.5 0.0315595
9.51 0.0310719
9.52 0.0300537
9.53 0.0285323
9.54 0.0265534
9.55 0.0241792
9.56 0.0214843
9.57 0.0185463
9.58 0.0154959
9.59 0.0124353
9.6 0.00946636
9.61 0.00668721
9.62 0.00418869
9.63 0.00207785
9.64 0.00042586
9.65 -0.000742063
9.66 -0.00139866
9.67 -0.00153586
9.68 -0.00116501
9.69 -0.00031634
9.7 0.00100445
9.71 0.00267581
9.72 0.00461689
9.73 0.00673812
9.74 0.00894402
9.75 0.0111368
9.76 0.0132096
9.77 0.0150556
9.78 0.0166037
9.79 0.0177868
9.8 0.0185532
9.81 0.0188683
9.82 0.0187158
9.83 0.0180521
9.84 0.0169476
9.85 0.0154526
9.86 0.0136277
9.87 0.0115473
9.88 0.00929649
9.89 0.00696931
9.9 0.00467766
9.91 0.00252328
9.92 0.000598941
9.93 -0.00101032
9.94 -0.00223041
9.95 -0.00300096
9.96 -0.003229
9.97 -0.00292268
9.98 -0.00209144
9.99 -0.000751928
10 0.00106063
10.01 0.0032937
10.02 0.00588699
10.03 0.00876276
10.04 0.0117976
10.05 0.0148919
10.06 0.0179435
10.07 0.0208515
10.08 0.0235193
10.09 0.0258247
10.1 0.0276978
10.11 0.0290905
10.12 0.0299588
10.13 0.0302764
10.14 0.0300348
10.15 0.0292345
10.16 0.0278668
10.17 0.0260341
10.18 0.0237989
10.19 0.0212355
10.2 0.0184273
10.21 0.0154639
10.22 0.01244
10.23 0.00946216
10.24 0.00662009
10.25 0.00399414
10.26 0.00165513
10.27 -0.000337794
10.28 -0.00193582
10.29 -0.0030621
10.3 -0.00374875
10.31 -0.00399895
10.32 -0.00383032
10.33 -0.00327386
10.34 -0.00237237
10.35 -0.00116495
10.36 0.000276628
10.37 0.0018692
10.38 0.00354359
10.39 0.00523088
10.4 0.0068647
10.41 0.00838338
10.42 0.00970718
10.43 0.010805
10.44 0.0116424
10.45 0.0121949
10.46 0.0124479
10.47 0.0123974
10.48 0.0120351
10.49 0.0113736
10.5 0.0104572
10.51 0.00931602
10.52 0.00798444
10.53 0.00649975
10.54 0.0049004
10.55 0.00322055
10.56 0.00150675
10.57 -0.000207315
10.58 -0.0018931
10.59 -0.00352669
10.6 -0.00508921
10.61 -0.00656322
10.62 -0.00793523
10.63 -0.00920872
10.64 -0.0103838
10.65 -0.0114634
10.66 -0.0124522
10.67 -0.0133557
10.68 -0.0141729
10.69 -0.0149139
10.7 -0.0155832
10.71 -0.0161814
10.72 -0.0167059
10.73 -0.0171518
10.74 -0.0175091
10.75 -0.0177603
10.76 -0.0179016
10.77 -0.0179205
10.78 -0.0178047
10.79 -0.0175431
10.8 -0.0171267
10.81 -0.0165365
10.82 -0.0157779
10.83 -0.0148611
10.84 -0.0137956
10.85 -0.0125969
10.86 -0.0112859
10.87 -0.00988842
10.88 -0.00843622
10.89 -0.00697452
10.9 -0.00554346
10.91 -0.00418502
10.92 -0.0029416
10.93 -0.00185462
10.94 -0.000978851
10.95 -0.000349373
10.96 1.59281e-05
10.97 9.65045e-05
10.98 -0.000120131
10.99 -0.000637658
11 -0.00145175
11.01 -0.00257473
11.02 -0.00394679
11.03 -0.00553268
11.04 -0.00728957
11.05 -0.00916827
11.06 -0.0111147
11.07 -0.0130685
11.08 -0.0149616
11.09 -0.0167359
11.1 -0.0183362
11.11 -0.0197119
11.12 -0.0208185
11.13 -0.0216191
11.14 -0.0220466
11.15 -0.0221172
11.16 -0.0218278
11.17 -0.0211832
11.18 -0.0201983
11.19 -0.0188973
11.2 -0.017302
11.21 -0.0154537
11.22 -0.0134197
11.23 -0.0112513
11.24 -0.00900209
11.25 -0.00672618
11.26 -0.00447624
11.27 -0.0023142
11.28 -0.000283267
11.29 0.00158005
11.3 0.0032447
11.31 0.00468717
11.32 0.00589182
11.33 0.00684231
11.34 0.0075283
11.35 0.007979
11.36 0.00820956
11.37 0.00824026
11.38 0.0080953
11.39 0.0078016
11.4 0.00737947
11.41 0.00686792
11.42 0.00629729
11.43 0.00569221
11.44 0.00507413
11.45 0.00446071
11.46 0.00386614
11.47 0.00330203
11.48 0.00277023
11.49 0.00227064
11.5 0.00179991
11.51 0.00135216
11.52 0.000919747
11.53 0.000494099
11.54 6.56442e-05
11.55 -0.000372718
11.56 -0.000825804
11.57 -0.00129571
11.58 -0.00178135
11.59 -0.00227813
11.6 -0.00277666
11.61 -0.00326331
11.62 -0.00372255
11.63 -0.00413651
11.64 -0.00448575
11.65 -0.00475023
11.66 -0.00490208
11.67 -0.00492238
11.68 -0.00480186
11.69 -0.00452961
11.7 -0.00409941
11.71 -0.00351049
11.72 -0.00276765
11.73 -0.00186821
11.74 -0.000848827
11.75 0.000265507
11.76 0.00144465
11.77 0.00265412
11.78 0.00385621
11.79 0.00500625
11.8 0.00605724
11.81 0.00697366
11.82 0.00771959
