# xPDFsuite Configuration #
[PDF]
wavelength = 0.1
dataformat = QA
inputfile = BiMsol6_insitu_700 C-00629.xy
backgroundfile = Quartz2mm-dist500-00000.xy
mode = xray
bgscale = 0.0042
composition = Bi2Fe4O9
outputtype = gr
qmaxinst = 24.998449118
qmin = 0.1
qmax = 21.4986662415
rmax = 80.0
rmin = 0.0
rstep = 0.01
rpoly = 0.9

[Misc]
inputdir = C:/Data/Seafile/CPH/Beamtime/Desy Oct 20/In situ data/Processed/BiMsol6/PDF
savedir = C:/Data/Seafile/CPH/Beamtime/Desy Oct 20/In situ data/PDF/BiMsol6
backgroundfilefull = C:/Data/Seafile/CPH/Beamtime/Desy Oct 20/In situ data/Processed/Standard_Empty_Cap/Quartz2mm-dist500-00000.xy

#### start data
#S 1
#L r($\AA$)  G($\AA^{-2}$)
0 0
0.01 0.00663402
0.02 0.0128953
0.03 0.0184649
0.04 0.0230564
0.05 0.026429
0.06 0.0283991
0.07 0.0287654
0.08 0.027468
0.09 0.0246534
0.1 0.0204413
0.11 0.0150183
0.12 0.00862974
0.13 0.00156863
0.14 -0.00583677
0.15 -0.0131694
0.16 -0.020078
0.17 -0.0262324
0.18 -0.0313363
0.19 -0.0351411
0.2 -0.0373911
0.21 -0.0379099
0.22 -0.036794
0.23 -0.0341072
0.24 -0.0299935
0.25 -0.0246719
0.26 -0.0184285
0.27 -0.0115865
0.28 -0.00461944
0.29 0.00205178
0.3 0.00801847
0.31 0.0128913
0.32 0.0163196
0.33 0.0179478
0.34 0.0174276
0.35 0.0148052
0.36 0.0100722
0.37 0.00332561
0.38 -0.00523082
0.39 -0.0152895
0.4 -0.0264959
0.41 -0.0382297
0.42 -0.0498819
0.43 -0.060834
0.44 -0.070446
0.45 -0.0780798
0.46 -0.083062
0.47 -0.0845275
0.48 -0.0822833
0.49 -0.0759779
0.5 -0.0653829
0.51 -0.0504064
0.52 -0.0311035
0.53 -0.00740897
0.54 0.0201262
0.55 0.0507771
0.56 0.08387
0.57 0.118617
0.58 0.154141
0.59 0.189485
0.6 0.22343
0.61 0.255027
0.62 0.283323
0.63 0.307427
0.64 0.326539
0.65 0.339979
0.66 0.3468
0.67 0.346631
0.68 0.339666
0.69 0.325933
0.7 0.305642
0.71 0.279183
0.72 0.24711
0.73 0.209664
0.74 0.168331
0.75 0.124084
0.76 0.0779517
0.77 0.0309949
0.78 -0.0157219
0.79 -0.0610472
0.8 -0.103837
0.81 -0.14333
0.82 -0.178792
0.83 -0.209629
0.84 -0.235399
0.85 -0.255828
0.86 -0.27025
0.87 -0.279252
0.88 -0.28317
0.89 -0.282407
0.9 -0.27749
0.91 -0.269051
0.92 -0.257717
0.93 -0.244283
0.94 -0.229742
0.95 -0.214866
0.96 -0.200391
0.97 -0.186989
0.98 -0.175252
0.99 -0.165907
1 -0.15921
1.01 -0.155331
1.02 -0.154369
1.03 -0.156304
1.04 -0.160998
1.05 -0.16827
1.06 -0.177868
1.07 -0.189151
1.08 -0.201653
1.09 -0.214879
1.1 -0.22833
1.11 -0.241524
1.12 -0.25392
1.13 -0.26511
1.14 -0.27481
1.15 -0.282786
1.16 -0.28889
1.17 -0.293061
1.18 -0.295292
1.19 -0.295566
1.2 -0.29427
1.21 -0.291662
1.22 -0.288042
1.23 -0.283742
1.24 -0.279105
1.25 -0.274494
1.26 -0.27027
1.27 -0.266706
1.28 -0.264025
1.29 -0.262394
1.3 -0.261913
1.31 -0.262618
1.32 -0.264577
1.33 -0.267536
1.34 -0.271314
1.35 -0.27568
1.36 -0.280366
1.37 -0.285081
1.38 -0.289488
1.39 -0.293246
1.4 -0.296104
1.41 -0.297829
1.42 -0.298236
1.43 -0.297197
1.44 -0.294649
1.45 -0.290437
1.46 -0.284817
1.47 -0.277957
1.48 -0.270077
1.49 -0.261449
1.5 -0.252385
1.51 -0.24324
1.52 -0.234426
1.53 -0.226296
1.54 -0.219177
1.55 -0.213362
1.56 -0.209097
1.57 -0.206565
1.58 -0.206074
1.59 -0.207496
1.6 -0.210741
1.61 -0.21567
1.62 -0.222073
1.63 -0.229667
1.64 -0.238132
1.65 -0.247045
1.66 -0.255921
1.67 -0.264327
1.68 -0.271835
1.69 -0.278036
1.7 -0.28256
1.71 -0.284882
1.72 -0.284851
1.73 -0.28236
1.74 -0.277327
1.75 -0.269756
1.76 -0.259738
1.77 -0.247393
1.78 -0.232878
1.79 -0.21673
1.8 -0.199333
1.81 -0.181108
1.82 -0.162498
1.83 -0.143951
1.84 -0.12598
1.85 -0.109024
1.86 -0.0934175
1.87 -0.0794594
1.88 -0.0673799
1.89 -0.0573341
1.9 -0.0494284
1.91 -0.0438306
1.92 -0.0402175
1.93 -0.0384107
1.94 -0.0381688
1.95 -0.0391979
1.96 -0.0411653
1.97 -0.0437267
1.98 -0.0464525
1.99 -0.048962
2 -0.0509278
2.01 -0.0520633
2.02 -0.0521352
2.03 -0.0509687
2.04 -0.0483166
2.05 -0.0443217
2.06 -0.0390617
2.07 -0.0326896
2.08 -0.0254288
2.09 -0.0175647
2.1 -0.00944231
2.11 -0.00150094
2.12 0.00584199
2.13 0.0121776
2.14 0.0171085
2.15 0.0202645
2.16 0.0213166
2.17 0.0197077
2.18 0.0154667
2.19 0.00850166
2.2 -0.00121494
2.21 -0.013626
2.22 -0.0285903
2.23 -0.0459784
2.24 -0.065495
2.25 -0.086601
2.26 -0.108873
2.27 -0.131852
2.28 -0.155061
2.29 -0.178015
2.3 -0.20013
2.31 -0.220976
2.32 -0.240179
2.33 -0.257408
2.34 -0.272397
2.35 -0.284958
2.36 -0.29489
2.37 -0.302048
2.38 -0.306717
2.39 -0.309044
2.4 -0.309247
2.41 -0.307601
2.42 -0.30443
2.43 -0.300028
2.44 -0.294891
2.45 -0.289444
2.46 -0.284067
2.47 -0.279116
2.48 -0.274917
2.49 -0.271777
2.5 -0.270033
2.51 -0.269733
2.52 -0.270964
2.53 -0.273746
2.54 -0.278039
2.55 -0.283741
2.56 -0.29078
2.57 -0.298877
2.58 -0.307738
2.59 -0.317097
2.6 -0.326672
2.61 -0.336182
2.62 -0.345348
2.63 -0.353831
2.64 -0.361455
2.65 -0.368038
2.66 -0.373441
2.67 -0.37757
2.68 -0.380375
2.69 -0.381773
2.7 -0.381838
2.71 -0.380732
2.72 -0.378582
2.73 -0.375544
2.74 -0.371792
2.75 -0.367513
2.76 -0.362881
2.77 -0.358137
2.78 -0.353454
2.79 -0.348986
2.8 -0.344861
2.81 -0.341181
2.82 -0.338048
2.83 -0.335508
2.84 -0.333528
2.85 -0.332079
2.86 -0.331107
2.87 -0.330533
2.88 -0.330265
2.89 -0.330202
2.9 -0.330201
2.91 -0.330142
2.92 -0.329914
2.93 -0.329414
2.94 -0.328552
2.95 -0.32723
2.96 -0.325366
2.97 -0.322954
2.98 -0.319973
2.99 -0.316413
3 -0.312279
3.01 -0.307583
3.02 -0.30229
3.03 -0.296462
3.04 -0.290121
3.05 -0.283274
3.06 -0.275912
3.07 -0.268014
3.08 -0.259523
3.09 -0.250339
3.1 -0.240436
3.11 -0.22972
3.12 -0.218086
3.13 -0.205416
3.14 -0.191591
3.15 -0.176368
3.16 -0.159683
3.17 -0.141475
3.18 -0.121659
3.19 -0.100172
3.2 -0.0769816
3.21 -0.0520517
3.22 -0.0253024
3.23 0.00301656
3.24 0.0327792
3.25 0.0638197
3.26 0.0959342
3.27 0.128884
3.28 0.162418
3.29 0.196177
3.3 0.229822
3.31 0.26302
3.32 0.295438
3.33 0.326749
3.34 0.356617
3.35 0.384544
3.36 0.410425
3.37 0.43403
3.38 0.455166
3.39 0.473683
3.4 0.489473
3.41 0.502297
3.42 0.512165
3.43 0.519266
3.44 0.523675
3.45 0.525504
3.46 0.524895
3.47 0.522014
3.48 0.516831
3.49 0.509807
3.5 0.501152
3.51 0.491078
3.52 0.479788
3.53 0.46748
3.54 0.454301
3.55 0.440432
3.56 0.426069
3.57 0.411337
3.58 0.396341
3.59 0.381168
3.6 0.36589
3.61 0.350562
3.62 0.335237
3.63 0.319952
3.64 0.304736
3.65 0.289622
3.66 0.274642
3.67 0.259843
3.68 0.245286
3.69 0.231014
3.7 0.217094
3.71 0.203606
3.72 0.190636
3.73 0.178284
3.74 0.166732
3.75 0.156055
3.76 0.146351
3.77 0.137733
3.78 0.130313
3.79 0.124196
3.8 0.11952
3.81 0.116466
3.82 0.114974
3.83 0.115096
3.84 0.116862
3.85 0.120285
3.86 0.125361
3.87 0.132196
3.88 0.140662
3.89 0.150643
3.9 0.16206
3.91 0.174825
3.92 0.188837
3.93 0.204006
3.94 0.220285
3.95 0.23744
3.96 0.25535
3.97 0.273889
3.98 0.292934
3.99 0.312361
4 0.332059
4.01 0.351885
4.02 0.37171
4.03 0.39142
4.04 0.410901
4.05 0.430041
4.06 0.448723
4.07 0.466764
4.08 0.484106
4.09 0.500638
4.1 0.516248
4.11 0.530827
4.12 0.544267
4.13 0.556381
4.14 0.567059
4.15 0.576279
4.16 0.583955
4.17 0.590012
4.18 0.594384
4.19 0.59702
4.2 0.597679
4.21 0.596534
4.22 0.59359
4.23 0.588861
4.24 0.582381
4.25 0.574195
4.26 0.564291
4.27 0.552727
4.28 0.539705
4.29 0.525325
4.3 0.509691
4.31 0.492912
4.32 0.4751
4.33 0.456277
4.34 0.436639
4.35 0.416294
4.36 0.395329
4.37 0.373819
4.38 0.351829
4.39 0.329398
4.4 0.306555
4.41 0.283362
4.42 0.259839
4.43 0.235998
4.44 0.211846
4.45 0.187389
4.46 0.162603
4.47 0.137519
4.48 0.112159
4.49 0.0865462
4.5 0.0607141
4.51 0.0347077
4.52 0.00858435
4.53 -0.0175762
4.54 -0.0436761
4.55 -0.0696152
4.56 -0.0952824
4.57 -0.120558
4.58 -0.145317
4.59 -0.169367
4.6 -0.192591
4.61 -0.214889
4.62 -0.236147
4.63 -0.256258
4.64 -0.275133
4.65 -0.292675
4.66 -0.308709
4.67 -0.323341
4.68 -0.336565
4.69 -0.348397
4.7 -0.358874
4.71 -0.368055
4.72 -0.375938
4.73 -0.382658
4.74 -0.388382
4.75 -0.393229
4.76 -0.397323
4.77 -0.400791
4.78 -0.403755
4.79 -0.406308
4.8 -0.408613
4.81 -0.410765
4.82 -0.412849
4.83 -0.414932
4.84 -0.417065
4.85 -0.419288
4.86 -0.421619
4.87 -0.424051
4.88 -0.426566
4.89 -0.429135
4.9 -0.431719
4.91 -0.434271
4.92 -0.436722
4.93 -0.439021
4.94 -0.441113
4.95 -0.442948
4.96 -0.444477
4.97 -0.445658
4.98 -0.446439
4.99 -0.446782
5 -0.446697
5.01 -0.446176
5.02 -0.445218
5.03 -0.443828
5.04 -0.442016
5.05 -0.439755
5.06 -0.437095
5.07 -0.434056
5.08 -0.430652
5.09 -0.426891
5.1 -0.42278
5.11 -0.418306
5.12 -0.41345
5.13 -0.408229
5.14 -0.402631
5.15 -0.39664
5.16 -0.390239
5.17 -0.383412
5.18 -0.376102
5.19 -0.368327
5.2 -0.360094
5.21 -0.351408
5.22 -0.342283
5.23 -0.332744
5.24 -0.322819
5.25 -0.31254
5.26 -0.302005
5.27 -0.291285
5.28 -0.280465
5.29 -0.269634
5.3 -0.258889
5.31 -0.248351
5.32 -0.238129
5.33 -0.228312
5.34 -0.218991
5.35 -0.21025
5.36 -0.202163
5.37 -0.194799
5.38 -0.188275
5.39 -0.182542
5.4 -0.177606
5.41 -0.17346
5.42 -0.170077
5.43 -0.167416
5.44 -0.165462
5.45 -0.164129
5.46 -0.163305
5.47 -0.162906
5.48 -0.162849
5.49 -0.163046
5.5 -0.163415
5.51 -0.163882
5.52 -0.164361
5.53 -0.164795
5.54 -0.165136
5.55 -0.165351
5.56 -0.165415
5.57 -0.165307
5.58 -0.165022
5.59 -0.164578
5.6 -0.163987
5.61 -0.163264
5.62 -0.162426
5.63 -0.161484
5.64 -0.160439
5.65 -0.159299
5.66 -0.158054
5.67 -0.156683
5.68 -0.155152
5.69 -0.153417
5.7 -0.151403
5.71 -0.149023
5.72 -0.146215
5.73 -0.142896
5.74 -0.138974
5.75 -0.134361
5.76 -0.128972
5.77 -0.122637
5.78 -0.11535
5.79 -0.107078
5.8 -0.0977886
5.81 -0.0874715
5.82 -0.0761372
5.83 -0.0637894
5.84 -0.05045
5.85 -0.0362882
5.86 -0.0214126
5.87 -0.00595081
5.88 0.00995355
5.89 0.0261445
5.9 0.0424535
5.91 0.0586849
5.92 0.0746699
5.93 0.0902501
5.94 0.105279
5.95 0.119625
5.96 0.133158
5.97 0.145717
5.98 0.157322
5.99 0.167943
6 0.177576
6.01 0.186245
6.02 0.193996
6.03 0.200841
6.04 0.20691
6.05 0.212343
6.06 0.217254
6.07 0.221761
6.08 0.225981
6.09 0.230024
6.1 0.233994
6.11 0.237988
6.12 0.242068
6.13 0.246273
6.14 0.250619
6.15 0.255097
6.16 0.259674
6.17 0.26428
6.18 0.268824
6.19 0.273203
6.2 0.277298
6.21 0.280981
6.22 0.284116
6.23 0.286474
6.24 0.28799
6.25 0.288545
6.26 0.288034
6.27 0.286369
6.28 0.283482
6.29 0.279264
6.3 0.273683
6.31 0.266835
6.32 0.25876
6.33 0.249523
6.34 0.239209
6.35 0.227922
6.36 0.215705
6.37 0.202784
6.38 0.189306
6.39 0.175412
6.4 0.161237
6.41 0.14691
6.42 0.132552
6.43 0.118281
6.44 0.10418
6.45 0.0903107
6.46 0.0767162
6.47 0.0634193
6.48 0.0504238
6.49 0.0377402
6.5 0.0253128
6.51 0.0130902
6.52 0.00101943
6.53 -0.0109578
6.54 -0.0229008
6.55 -0.0348693
6.56 -0.0469248
6.57 -0.059104
6.58 -0.0714346
6.59 -0.0839298
6.6 -0.0965877
6.61 -0.10939
6.62 -0.122308
6.63 -0.135278
6.64 -0.14823
6.65 -0.161085
6.66 -0.173756
6.67 -0.186149
6.68 -0.198161
6.69 -0.209644
6.7 -0.220546
6.71 -0.230781
6.72 -0.240273
6.73 -0.248958
6.74 -0.256781
6.75 -0.263637
6.76 -0.269524
6.77 -0.274473
6.78 -0.278488
6.79 -0.281583
6.8 -0.28378
6.81 -0.285101
6.82 -0.285499
6.83 -0.2851
6.84 -0.283937
6.85 -0.282034
6.86 -0.27941
6.87 -0.276075
6.88 -0.271985
6.89 -0.267128
6.9 -0.261517
6.91 -0.255116
6.92 -0.247878
6.93 -0.239748
6.94 -0.230665
6.95 -0.220441
6.96 -0.209119
6.97 -0.196639
6.98 -0.182948
6.99 -0.167997
7 -0.151754
7.01 -0.134133
7.02 -0.115112
7.03 -0.0947976
7.04 -0.073231
7.05 -0.0504709
7.06 -0.0265956
7.07 -0.00170153
7.08 0.0241785
7.09 0.05082
7.1 0.0780683
7.11 0.105773
7.12 0.133778
7.13 0.161926
7.14 0.190054
7.15 0.217982
7.16 0.245569
7.17 0.272684
7.18 0.299204
7.19 0.325021
7.2 0.350041
7.21 0.374097
7.22 0.397175
7.23 0.419247
7.24 0.440276
7.25 0.460231
7.26 0.479091
7.27 0.496808
7.28 0.513298
7.29 0.528648
7.3 0.542844
7.31 0.555867
7.32 0.567693
7.33 0.578294
7.34 0.587526
7.35 0.595398
7.36 0.601901
7.37 0.606981
7.38 0.610575
7.39 0.61262
7.4 0.613024
7.41 0.611579
7.42 0.608393
7.43 0.603419
7.44 0.596618
7.45 0.587967
7.46 0.577456
7.47 0.564961
7.48 0.550554
7.49 0.53437
7.5 0.516474
7.51 0.496948
7.52 0.475893
7.53 0.453418
7.54 0.42954
7.55 0.404559
7.56 0.378634
7.57 0.351931
7.58 0.324621
7.59 0.296878
7.6 0.268871
7.61 0.240797
7.62 0.212836
7.63 0.185145
7.64 0.157876
7.65 0.131168
7.66 0.10515
7.67 0.0800421
7.68 0.0558718
7.69 0.0327251
7.7 0.0106802
7.71 -0.010196
7.72 -0.029848
7.73 -0.0481683
7.74 -0.0650902
7.75 -0.080679
7.76 -0.0949202
7.77 -0.107808
7.78 -0.119343
7.79 -0.129535
7.8 -0.138269
7.81 -0.145684
7.82 -0.151834
7.83 -0.156758
7.84 -0.160502
7.85 -0.163119
7.86 -0.16463
7.87 -0.165066
7.88 -0.164584
7.89 -0.16326
7.9 -0.161175
7.91 -0.158412
7.92 -0.155055
7.93 -0.151154
7.94 -0.146832
7.95 -0.142185
7.96 -0.137291
7.97 -0.13222
7.98 -0.127037
7.99 -0.121798
8 -0.116557
8.01 -0.111354
8.02 -0.106213
8.03 -0.101152
8.04 -0.0961775
8.05 -0.091288
8.06 -0.086479
8.07 -0.0817294
8.08 -0.0770155
8.09 -0.0723143
8.1 -0.0676021
8.11 -0.0628569
8.12 -0.0580591
8.13 -0.0531884
8.14 -0.0482453
8.15 -0.0432331
8.16 -0.0381635
8.17 -0.033058
8.18 -0.0279469
8.19 -0.0228752
8.2 -0.0178974
8.21 -0.0130667
8.22 -0.00844272
8.23 -0.00408729
8.24 -6.22675e-05
8.25 0.00357128
8.26 0.00670387
8.27 0.00933592
8.28 0.0114321
8.29 0.0129689
8.3 0.0139358
8.31 0.0143365
8.32 0.0141606
8.33 0.0134464
8.34 0.0122778
8.35 0.0107181
8.36 0.00884159
8.37 0.00673058
8.38 0.00447339
8.39 0.00216517
8.4 -8.92166e-05
8.41 -0.0022039
8.42 -0.00410106
8.43 -0.00571359
8.44 -0.00698769
8.45 -0.00786711
8.46 -0.00832029
8.47 -0.00837783
8.48 -0.00806209
8.49 -0.00741429
8.5 -0.00649356
8.51 -0.00537532
8.52 -0.00414867
8.53 -0.0029361
8.54 -0.00185019
8.55 -0.00100527
8.56 -0.000515533
8.57 -0.000491329
8.58 -0.00105827
8.59 -0.00235102
8.6 -0.00439419
8.61 -0.00724348
8.62 -0.0109352
8.63 -0.0154851
8.64 -0.0208879
8.65 -0.0271848
8.66 -0.0342727
8.67 -0.0420568
8.68 -0.0504513
8.69 -0.0593574
8.7 -0.0686664
8.71 -0.0782673
8.72 -0.0880392
8.73 -0.0978418
8.74 -0.107565
8.75 -0.117109
8.76 -0.126383
8.77 -0.135314
8.78 -0.143807
8.79 -0.151831
8.8 -0.159385
8.81 -0.166465
8.82 -0.173084
8.83 -0.179272
8.84 -0.185063
8.85 -0.190484
8.86 -0.195634
8.87 -0.200575
8.88 -0.205368
8.89 -0.210072
8.9 -0.21474
8.91 -0.219418
8.92 -0.224143
8.93 -0.228932
8.94 -0.233789
8.95 -0.238703
8.96 -0.243651
8.97 -0.248597
8.98 -0.253481
8.99 -0.258245
9 -0.262823
9.01 -0.267147
9.02 -0.271146
9.03 -0.274753
9.04 -0.277876
9.05 -0.280447
9.06 -0.282453
9.07 -0.283863
9.08 -0.284659
9.09 -0.284838
9.1 -0.284411
9.11 -0.283346
9.12 -0.281744
9.13 -0.279664
9.14 -0.277171
9.15 -0.274335
9.16 -0.27123
9.17 -0.267932
9.18 -0.264523
9.19 -0.261089
9.2 -0.257697
9.21 -0.254403
9.22 -0.251255
9.23 -0.248289
9.24 -0.245548
9.25 -0.243026
9.26 -0.240715
9.27 -0.238597
9.28 -0.236645
9.29 -0.234824
9.3 -0.233094
9.31 -0.231405
9.32 -0.2297
9.33 -0.227934
9.34 -0.226062
9.35 -0.224048
9.36 -0.221858
9.37 -0.219455
9.38 -0.216834
9.39 -0.214002
9.4 -0.210969
9.41 -0.207752
9.42 -0.204381
9.43 -0.200885
9.44 -0.197302
9.45 -0.193685
9.46 -0.190076
9.47 -0.186512
9.48 -0.183026
9.49 -0.179646
9.5 -0.176398
9.51 -0.173285
9.52 -0.170291
9.53 -0.167397
9.54 -0.164567
9.55 -0.161754
9.56 -0.158901
9.57 -0.155917
9.58 -0.152731
9.59 -0.149257
9.6 -0.145409
9.61 -0.141098
9.62 -0.136238
9.63 -0.130707
9.64 -0.124425
9.65 -0.117368
9.66 -0.109489
9.67 -0.100754
9.68 -0.0911442
9.69 -0.0806577
9.7 -0.0692102
9.71 -0.0569336
9.72 -0.0438752
9.73 -0.0300932
9.74 -0.0156564
9.75 -0.000642015
9.76 0.0148871
9.77 0.0308362
9.78 0.0470855
9.79 0.0635485
9.8 0.0801426
9.81 0.0967908
9.82 0.113424
9.83 0.129966
9.84 0.146369
9.85 0.162592
9.86 0.178606
9.87 0.194385
9.88 0.209915
9.89 0.225175
9.9 0.240148
9.91 0.254852
9.92 0.269285
9.93 0.283442
9.94 0.297317
9.95 0.310897
9.96 0.324134
9.97 0.337023
9.98 0.349537
9.99 0.361638
10 0.37328
10.01 0.384412
10.02 0.394961
10.03 0.404825
10.04 0.413996
10.05 0.422418
10.06 0.43004
10.07 0.436817
10.08 0.44271
10.09 0.447618
10.1 0.451567
10.11 0.454593
10.12 0.45671
10.13 0.457948
10.14 0.458353
10.15 0.457969
10.16 0.456821
10.17 0.455066
10.18 0.452799
10.19 0.450116
10.2 0.44712
10.21 0.443913
10.22 0.440595
10.23 0.437277
10.24 0.434048
10.25 0.430986
10.26 0.428153
10.27 0.425599
10.28 0.42336
10.29 0.421491
10.3 0.419955
10.31 0.418734
10.32 0.417796
10.33 0.417097
10.34 0.416578
10.35 0.416175
10.36 0.4158
10.37 0.415364
10.38 0.414784
10.39 0.413975
10.4 0.412855
10.41 0.411346
10.42 0.409317
10.43 0.406749
10.44 0.40359
10.45 0.399799
10.46 0.395341
10.47 0.390195
10.48 0.384313
10.49 0.377679
10.5 0.37035
10.51 0.36234
10.52 0.353669
10.53 0.344362
10.54 0.334449
10.55 0.323904
10.56 0.312812
10.57 0.301212
10.58 0.289133
10.59 0.276602
10.6 0.263645
10.61 0.25027
10.62 0.236483
10.63 0.222335
10.64 0.20784
10.65 0.193015
10.66 0.177875
10.67 0.162436
10.68 0.146692
10.69 0.130684
10.7 0.114442
10.71 0.0979932
10.72 0.0813678
10.73 0.0645998
10.74 0.0477248
10.75 0.0307853
10.76 0.0138337
10.77 -0.00308457
10.78 -0.0199236
10.79 -0.0366377
10.8 -0.0531826
10.81 -0.0694966
10.82 -0.0855463
10.83 -0.101308
10.84 -0.116754
10.85 -0.131865
10.86 -0.146628
10.87 -0.161031
10.88 -0.175044
10.89 -0.188712
10.9 -0.202051
10.91 -0.21508
10.92 -0.227824
10.93 -0.240308
10.94 -0.252548
10.95 -0.26458
10.96 -0.276444
10.97 -0.288161
10.98 -0.299752
10.99 -0.31123
11 -0.322604
11.01 -0.33386
11.02 -0.345001
11.03 -0.35601
11.04 -0.366861
11.05 -0.377522
11.06 -0.387954
11.07 -0.398092
11.08 -0.407877
11.09 -0.41727
11.1 -0.426216
11.11 -0.434657
11.12 -0.442536
11.13 -0.449801
11.14 -0.456322
11.15 -0.46212
11.16 -0.467162
11.17 -0.471416
11.18 -0.474859
11.19 -0.477476
11.2 -0.479218
11.21 -0.480065
11.22 -0.480084
11.23 -0.479287
11.24 -0.477695
11.25 -0.475328
11.26 -0.472213
11.27 -0.468308
11.28 -0.463703
11.29 -0.45844
11.3 -0.452543
11.31 -0.446036
11.32 -0.438942
11.33 -0.431257
11.34 -0.422972
11.35 -0.414143
11.36 -0.404777
11.37 -0.394877
11.38 -0.384446
11.39 -0.373484
11.4 -0.361945
11.41 -0.349864
11.42 -0.337258
11.43 -0.324136
11.44 -0.310509
11.45 -0.296394
11.46 -0.281802
11.47 -0.266737
11.48 -0.25128
11.49 -0.235477
11.5 -0.219378
11.51 -0.203043
11.52 -0.186537
11.53 -0.169928
11.54 -0.153304
11.55 -0.136749
11.56 -0.120341
11.57 -0.104161
11.58 -0.0882883
11.59 -0.0728037
11.6 -0.0578289
11.61 -0.043387
11.62 -0.029535
11.63 -0.0163218
11.64 -0.00378727
11.65 0.00803849
11.66 0.0190866
11.67 0.0293589
11.68 0.0388957
11.69 0.0477102
11.7 0.0558246
11.71 0.0632694
11.72 0.070081
11.73 0.0762428
11.74 0.081876
11.75 0.0870333
11.76 0.0917689
11.77 0.0961369
11.78 0.10019
11.79 0.103967
11.8 0.107518
11.81 0.110899
11.82 0.114142
11.83 0.117275
11.84 0.120314
11.85 0.123273
11.86 0.126143
11.87 0.128927
11.88 0.131611
11.89 0.134173
11.9 0.136586
11.91 0.138819
11.92 0.140822
11.93 0.142541
11.94 0.143951
11.95 0.145007
11.96 0.145665
11.97 0.145882
11.98 0.145618
11.99 0.144779
12 0.143367
12.01 0.141363
12.02 0.138741
12.03 0.135479
12.04 0.13156
12.05 0.126949
12.06 0.121605
12.07 0.115579
12.08 0.108873
12.09 0.101491
12.1 0.0934406
12.11 0.0847309
12.12 0.0753196
12.13 0.0652578
12.14 0.0545819
12.15 0.0433094
12.16 0.0314598
12.17 0.0190541
