# xPDFsuite Configuration #
[PDF]
wavelength = 0.1
dataformat = QA
inputfile = BiMsol6_insitu_700 C-00636.xy
backgroundfile = Quartz2mm-dist500-00000.xy
mode = xray
bgscale = 0.0042
composition = Bi2Fe4O9
outputtype = gr
qmaxinst = 24.998449118
qmin = 0.1
qmax = 21.4986662415
rmax = 80.0
rmin = 0.0
rstep = 0.01
rpoly = 0.9

[Misc]
inputdir = C:/Data/Seafile/CPH/Beamtime/Desy Oct 20/In situ data/Processed/BiMsol6/PDF
savedir = C:/Data/Seafile/CPH/Beamtime/Desy Oct 20/In situ data/PDF/BiMsol6
backgroundfilefull = C:/Data/Seafile/CPH/Beamtime/Desy Oct 20/In situ data/Processed/Standard_Empty_Cap/Quartz2mm-dist500-00000.xy

#### start data
#S 1
#L r($\AA$)  G($\AA^{-2}$)
0 0
0.01 0.00607985
0.02 0.0118138
0.03 0.0169058
0.04 0.0210903
0.05 0.0241447
0.06 0.0258992
0.07 0.0261684
0.08 0.024899
0.09 0.0222286
0.1 0.0182704
0.11 0.0132001
0.12 0.0072477
0.13 0.000687221
0.14 -0.00617274
0.15 -0.0129455
0.16 -0.0193047
0.17 -0.0249445
0.18 -0.0295911
0.19 -0.0330164
0.2 -0.0349863
0.21 -0.0353424
0.22 -0.0341811
0.23 -0.0315686
0.24 -0.0276462
0.25 -0.0226251
0.26 -0.0167792
0.27 -0.0104211
0.28 -0.00399563
0.29 0.00210099
0.3 0.0074845
0.31 0.0117905
0.32 0.0146922
0.33 0.0158595
0.34 0.0149708
0.35 0.0120819
0.36 0.00719575
0.37 0.000415821
0.38 -0.00805257
0.39 -0.0179053
0.4 -0.028788
0.41 -0.040101
0.42 -0.0512565
0.43 -0.0616567
0.44 -0.0706841
0.45 -0.0777245
0.46 -0.0821291
0.47 -0.0830613
0.48 -0.0803466
0.49 -0.0736509
0.5 -0.0627591
0.51 -0.0475888
0.52 -0.0281997
0.53 -0.00453375
0.54 0.0228676
0.55 0.0532949
0.56 0.0860887
0.57 0.12048
0.58 0.155609
0.59 0.190542
0.6 0.224086
0.61 0.255312
0.62 0.283287
0.63 0.307135
0.64 0.32607
0.65 0.339418
0.66 0.346242
0.67 0.346169
0.68 0.339378
0.69 0.325885
0.7 0.305885
0.71 0.279746
0.72 0.248003
0.73 0.210867
0.74 0.169799
0.75 0.125752
0.76 0.0797319
0.77 0.032784
0.78 -0.0140399
0.79 -0.059602
0.8 -0.10276
0.81 -0.142741
0.82 -0.178796
0.83 -0.210312
0.84 -0.236826
0.85 -0.258034
0.86 -0.273236
0.87 -0.28298
0.88 -0.287567
0.89 -0.287367
0.9 -0.282875
0.91 -0.274693
0.92 -0.26342
0.93 -0.249824
0.94 -0.234907
0.95 -0.219441
0.96 -0.204172
0.97 -0.189791
0.98 -0.176917
0.99 -0.166303
1 -0.158261
1.01 -0.153011
1.02 -0.150703
1.03 -0.151368
1.04 -0.154922
1.05 -0.161239
1.06 -0.170131
1.07 -0.180979
1.08 -0.193346
1.09 -0.206757
1.1 -0.220724
1.11 -0.234761
1.12 -0.248338
1.13 -0.261006
1.14 -0.272429
1.15 -0.282326
1.16 -0.290494
1.17 -0.296808
1.18 -0.301197
1.19 -0.303558
1.2 -0.304212
1.21 -0.30335
1.22 -0.301213
1.23 -0.298081
1.24 -0.294252
1.25 -0.290029
1.26 -0.285762
1.27 -0.281739
1.28 -0.278194
1.29 -0.275316
1.3 -0.273243
1.31 -0.272056
1.32 -0.271865
1.33 -0.272515
1.34 -0.273897
1.35 -0.275856
1.36 -0.278201
1.37 -0.280714
1.38 -0.283143
1.39 -0.285218
1.4 -0.286724
1.41 -0.287467
1.42 -0.287287
1.43 -0.286068
1.44 -0.283746
1.45 -0.28019
1.46 -0.275582
1.47 -0.270043
1.48 -0.26374
1.49 -0.256882
1.5 -0.249716
1.51 -0.242523
1.52 -0.235633
1.53 -0.229326
1.54 -0.223865
1.55 -0.219488
1.56 -0.216389
1.57 -0.214716
1.58 -0.214715
1.59 -0.216275
1.6 -0.219316
1.61 -0.223716
1.62 -0.229289
1.63 -0.235796
1.64 -0.242957
1.65 -0.250407
1.66 -0.257739
1.67 -0.264583
1.68 -0.270574
1.69 -0.275365
1.7 -0.278639
1.71 -0.279942
1.72 -0.279153
1.73 -0.276184
1.74 -0.270969
1.75 -0.263514
1.76 -0.253899
1.77 -0.24223
1.78 -0.228643
1.79 -0.213608
1.8 -0.197457
1.81 -0.180557
1.82 -0.163294
1.83 -0.146056
1.84 -0.129289
1.85 -0.113377
1.86 -0.0986143
1.87 -0.0852632
1.88 -0.0735285
1.89 -0.0635504
1.9 -0.0554281
1.91 -0.0493161
1.92 -0.0449428
1.93 -0.0421633
1.94 -0.0407782
1.95 -0.0405435
1.96 -0.0411818
1.97 -0.0424112
1.98 -0.0438704
1.99 -0.0452364
2 -0.046235
2.01 -0.0466264
2.02 -0.0462159
2.03 -0.0448584
2.04 -0.0423581
2.05 -0.0388263
2.06 -0.0343298
2.07 -0.0289986
2.08 -0.0230217
2.09 -0.0166396
2.1 -0.0101476
2.11 -0.00391436
2.12 0.00171766
2.13 0.00640798
2.14 0.00982692
2.15 0.0116686
2.16 0.011663
2.17 0.00934183
2.18 0.00474577
2.19 -0.00219364
2.2 -0.011491
2.21 -0.0230901
2.22 -0.0368644
2.23 -0.0526989
2.24 -0.0703392
2.25 -0.0893266
2.26 -0.109303
2.27 -0.129881
2.28 -0.15066
2.29 -0.171238
2.3 -0.191126
2.31 -0.209971
2.32 -0.227462
2.33 -0.243329
2.34 -0.257357
2.35 -0.269391
2.36 -0.279273
2.37 -0.286886
2.38 -0.292467
2.39 -0.29614
2.4 -0.298083
2.41 -0.29852
2.42 -0.297716
2.43 -0.295902
2.44 -0.293479
2.45 -0.290781
2.46 -0.288107
2.47 -0.285734
2.48 -0.283911
2.49 -0.28287
2.5 -0.282858
2.51 -0.283904
2.52 -0.286063
2.53 -0.289335
2.54 -0.293674
2.55 -0.298989
2.56 -0.305198
2.57 -0.31208
2.58 -0.319405
2.59 -0.326963
2.6 -0.334538
2.61 -0.341917
2.62 -0.34889
2.63 -0.3552
2.64 -0.360742
2.65 -0.365396
2.66 -0.369077
2.67 -0.371737
2.68 -0.373364
2.69 -0.373919
2.7 -0.373485
2.71 -0.372206
2.72 -0.370199
2.73 -0.367594
2.74 -0.364535
2.75 -0.361167
2.76 -0.357634
2.77 -0.3541
2.78 -0.350685
2.79 -0.347489
2.8 -0.344592
2.81 -0.342047
2.82 -0.339905
2.83 -0.338173
2.84 -0.336802
2.85 -0.335747
2.86 -0.334948
2.87 -0.334331
2.88 -0.333812
2.89 -0.333295
2.9 -0.332684
2.91 -0.331898
2.92 -0.330862
2.93 -0.329514
2.94 -0.327805
2.95 -0.325682
2.96 -0.323107
2.97 -0.320105
2.98 -0.316682
2.99 -0.312848
3 -0.308622
3.01 -0.30402
3.02 -0.299025
3.03 -0.293669
3.04 -0.287954
3.05 -0.28186
3.06 -0.275347
3.07 -0.26836
3.08 -0.260804
3.09 -0.252534
3.1 -0.243484
3.11 -0.233525
3.12 -0.222519
3.13 -0.210322
3.14 -0.196791
3.15 -0.181651
3.16 -0.164843
3.17 -0.146313
3.18 -0.125985
3.19 -0.103812
3.2 -0.0797859
3.21 -0.0538975
3.22 -0.0260987
3.23 0.00331181
3.24 0.0341686
3.25 0.066266
3.26 0.0993614
3.27 0.13318
3.28 0.167425
3.29 0.201715
3.3 0.235693
3.31 0.269016
3.32 0.301348
3.33 0.332362
3.34 0.361731
3.35 0.38896
3.36 0.413991
3.37 0.436624
3.38 0.456703
3.39 0.474114
3.4 0.488792
3.41 0.500542
3.42 0.50942
3.43 0.515647
3.44 0.519332
3.45 0.520612
3.46 0.519651
3.47 0.516629
3.48 0.511548
3.49 0.504838
3.5 0.496702
3.51 0.487331
3.52 0.476906
3.53 0.465592
3.54 0.453505
3.55 0.440783
3.56 0.427575
3.57 0.413963
3.58 0.400012
3.59 0.385773
3.6 0.37128
3.61 0.356538
3.62 0.341593
3.63 0.326466
3.64 0.311179
3.65 0.295763
3.66 0.280256
3.67 0.264711
3.68 0.249208
3.69 0.233832
3.7 0.218684
3.71 0.20388
3.72 0.189547
3.73 0.175824
3.74 0.162941
3.75 0.151014
3.76 0.140176
3.77 0.130573
3.78 0.122342
3.79 0.115611
3.8 0.110539
3.81 0.107328
3.82 0.1059
3.83 0.106296
3.84 0.108535
3.85 0.11261
3.86 0.118492
3.87 0.126267
3.88 0.135763
3.89 0.146825
3.9 0.15934
3.91 0.173185
3.92 0.188227
3.93 0.204343
3.94 0.221448
3.95 0.239298
3.96 0.257754
3.97 0.276683
3.98 0.295955
3.99 0.315449
4 0.335052
4.01 0.354638
4.02 0.374105
4.03 0.39336
4.04 0.412313
4.05 0.430879
4.06 0.448968
4.07 0.466429
4.08 0.48323
4.09 0.499284
4.1 0.514501
4.11 0.528789
4.12 0.542052
4.13 0.554122
4.14 0.56489
4.15 0.574326
4.16 0.582339
4.17 0.588842
4.18 0.593758
4.19 0.597016
4.2 0.598363
4.21 0.597939
4.22 0.59573
4.23 0.591727
4.24 0.585941
4.25 0.578402
4.26 0.569072
4.27 0.557994
4.28 0.545363
4.29 0.53127
4.3 0.515818
4.31 0.499114
4.32 0.481272
4.33 0.462312
4.34 0.442447
4.35 0.421799
4.36 0.400466
4.37 0.378537
4.38 0.356092
4.39 0.333182
4.4 0.309852
4.41 0.286177
4.42 0.262186
4.43 0.237899
4.44 0.213332
4.45 0.188491
4.46 0.16336
4.47 0.137967
4.48 0.11233
4.49 0.0864678
4.5 0.0604104
4.51 0.0341973
4.52 0.00787981
4.53 -0.0184676
4.54 -0.0447529
4.55 -0.0708794
4.56 -0.0967385
4.57 -0.122211
4.58 -0.147172
4.59 -0.171425
4.6 -0.19485
4.61 -0.21734
4.62 -0.238773
4.63 -0.259037
4.64 -0.278031
4.65 -0.295653
4.66 -0.311712
4.67 -0.326312
4.68 -0.339442
4.69 -0.351114
4.7 -0.361364
4.71 -0.370249
4.72 -0.377768
4.73 -0.384062
4.74 -0.38931
4.75 -0.39364
4.76 -0.397189
4.77 -0.400094
4.78 -0.402495
4.79 -0.4045
4.8 -0.406287
4.81 -0.407965
4.82 -0.409632
4.83 -0.411364
4.84 -0.413224
4.85 -0.415261
4.86 -0.417499
4.87 -0.419924
4.88 -0.422517
4.89 -0.425243
4.9 -0.428054
4.91 -0.430893
4.92 -0.433685
4.93 -0.436356
4.94 -0.438839
4.95 -0.441067
4.96 -0.442977
4.97 -0.444515
4.98 -0.445614
4.99 -0.446224
5 -0.446352
5.01 -0.445985
5.02 -0.445122
5.03 -0.443768
5.04 -0.441937
5.05 -0.439606
5.06 -0.436838
5.07 -0.433667
5.08 -0.430117
5.09 -0.426209
5.1 -0.421963
5.11 -0.417381
5.12 -0.412453
5.13 -0.407208
5.14 -0.401636
5.15 -0.395727
5.16 -0.389464
5.17 -0.382827
5.18 -0.375762
5.19 -0.36827
5.2 -0.360348
5.21 -0.35199
5.22 -0.343194
5.23 -0.333971
5.24 -0.324332
5.25 -0.314292
5.26 -0.303938
5.27 -0.293332
5.28 -0.28255
5.29 -0.271678
5.3 -0.26081
5.31 -0.250067
5.32 -0.239565
5.33 -0.229408
5.34 -0.219702
5.35 -0.210547
5.36 -0.202036
5.37 -0.194259
5.38 -0.18736
5.39 -0.181308
5.4 -0.176131
5.41 -0.171837
5.42 -0.168415
5.43 -0.165836
5.44 -0.1641
5.45 -0.163119
5.46 -0.162773
5.47 -0.162969
5.48 -0.163608
5.49 -0.164587
5.5 -0.1658
5.51 -0.167149
5.52 -0.168512
5.53 -0.169802
5.54 -0.170942
5.55 -0.171869
5.56 -0.172531
5.57 -0.172873
5.58 -0.172867
5.59 -0.172525
5.6 -0.171852
5.61 -0.170859
5.62 -0.169566
5.63 -0.167996
5.64 -0.166148
5.65 -0.164074
5.66 -0.161791
5.67 -0.15931
5.68 -0.156632
5.69 -0.153746
5.7 -0.15062
5.71 -0.147207
5.72 -0.143476
5.73 -0.139371
5.74 -0.134825
5.75 -0.12977
5.76 -0.12413
5.77 -0.117763
5.78 -0.110643
5.79 -0.102724
5.8 -0.0939584
5.81 -0.0843116
5.82 -0.0737677
5.83 -0.0623005
5.84 -0.0498954
5.85 -0.0366784
5.86 -0.0227219
5.87 -0.00811863
5.88 0.00702008
5.89 0.0225666
5.9 0.0383901
5.91 0.0543057
5.92 0.0701499
5.93 0.0857669
5.94 0.101006
5.95 0.115725
5.96 0.12978
5.97 0.14299
5.98 0.155336
5.99 0.166755
6 0.177209
6.01 0.186688
6.02 0.195204
6.03 0.20273
6.04 0.209365
6.05 0.215232
6.06 0.220427
6.07 0.225056
6.08 0.229234
6.09 0.233071
6.1 0.236668
6.11 0.240157
6.12 0.243623
6.13 0.247135
6.14 0.250738
6.15 0.254457
6.16 0.2583
6.17 0.262233
6.18 0.266198
6.19 0.270118
6.2 0.273898
6.21 0.277427
6.22 0.280582
6.23 0.283156
6.24 0.28506
6.25 0.286162
6.26 0.286338
6.27 0.285473
6.28 0.283471
6.29 0.280187
6.3 0.275546
6.31 0.269603
6.32 0.262361
6.33 0.253848
6.34 0.244116
6.35 0.233243
6.36 0.221229
6.37 0.208304
6.38 0.194614
6.39 0.180303
6.4 0.165518
6.41 0.150409
6.42 0.135118
6.43 0.1198
6.44 0.104588
6.45 0.0895863
6.46 0.0748826
6.47 0.060544
6.48 0.0466174
6.49 0.0331701
6.5 0.0201728
6.51 0.00759707
6.52 -0.00459205
6.53 -0.016443
6.54 -0.0280147
6.55 -0.0393691
6.56 -0.0505769
6.57 -0.0617245
6.58 -0.0728757
6.59 -0.0840868
6.6 -0.0954037
6.61 -0.106859
6.62 -0.118485
6.63 -0.130274
6.64 -0.142202
6.65 -0.154235
6.66 -0.166323
6.67 -0.178404
6.68 -0.190399
6.69 -0.202198
6.7 -0.213716
6.71 -0.224856
6.72 -0.23552
6.73 -0.24561
6.74 -0.255034
6.75 -0.263643
6.76 -0.271371
6.77 -0.278186
6.78 -0.284033
6.79 -0.288866
6.8 -0.292653
6.81 -0.295363
6.82 -0.296875
6.83 -0.297304
6.84 -0.296656
6.85 -0.294942
6.86 -0.292175
6.87 -0.288374
6.88 -0.283492
6.89 -0.277552
6.9 -0.270623
6.91 -0.262714
6.92 -0.253829
6.93 -0.243966
6.94 -0.233123
6.95 -0.221177
6.96 -0.208227
6.97 -0.194262
6.98 -0.179272
6.99 -0.163246
7 -0.146177
7.01 -0.128012
7.02 -0.108741
7.03 -0.0884491
7.04 -0.0671618
7.05 -0.0449149
7.06 -0.0217552
7.07 0.0022591
7.08 0.0271312
7.09 0.0527
7.1 0.0788618
7.11 0.105515
7.12 0.132551
7.13 0.159854
7.14 0.187306
7.15 0.214769
7.16 0.242111
7.17 0.269211
7.18 0.295951
7.19 0.322216
7.2 0.347898
7.21 0.372822
7.22 0.396928
7.23 0.420146
7.24 0.442397
7.25 0.463607
7.26 0.483709
7.27 0.502608
7.28 0.520168
7.29 0.536442
7.3 0.551384
7.31 0.564951
7.32 0.577099
7.33 0.587788
7.34 0.596855
7.35 0.604324
7.36 0.610212
7.37 0.614484
7.38 0.617107
7.39 0.618051
7.4 0.617259
7.41 0.614565
7.42 0.610123
7.43 0.603928
7.44 0.59598
7.45 0.586289
7.46 0.574876
7.47 0.561655
7.48 0.546717
7.49 0.530198
7.5 0.512169
7.51 0.492709
7.52 0.471912
7.53 0.449874
7.54 0.426605
7.55 0.402362
7.56 0.377277
7.57 0.351485
7.58 0.325126
7.59 0.298343
7.6 0.271272
7.61 0.24408
7.62 0.216922
7.63 0.189936
7.64 0.163255
7.65 0.137007
7.66 0.111312
7.67 0.086371
7.68 0.0622282
7.69 0.0389757
7.7 0.0167003
7.71 -0.00451938
7.72 -0.0246141
7.73 -0.043464
7.74 -0.060985
7.75 -0.0772198
7.76 -0.0921376
7.77 -0.105716
7.78 -0.117943
7.79 -0.128813
7.8 -0.138197
7.81 -0.146224
7.82 -0.152942
7.83 -0.158383
7.84 -0.162587
7.85 -0.165603
7.86 -0.167447
7.87 -0.168145
7.88 -0.167857
7.89 -0.166657
7.9 -0.164625
7.91 -0.161843
7.92 -0.158393
7.93 -0.154316
7.94 -0.149741
7.95 -0.144765
7.96 -0.139467
7.97 -0.133918
7.98 -0.128187
7.99 -0.122335
8 -0.116417
8.01 -0.110489
8.02 -0.104588
8.03 -0.0987454
8.04 -0.0929834
8.05 -0.0873183
8.06 -0.0817692
8.07 -0.0763369
8.08 -0.0710175
8.09 -0.0658085
8.1 -0.0607062
8.11 -0.0557066
8.12 -0.050808
8.13 -0.046018
8.14 -0.0413287
8.15 -0.0367463
8.16 -0.0322804
8.17 -0.0279451
8.18 -0.0237579
8.19 -0.0197533
8.2 -0.0159561
8.21 -0.0123842
8.22 -0.00906457
8.23 -0.00602357
8.24 -0.00328572
8.25 -0.000873522
8.26 0.00115707
8.27 0.00283372
8.28 0.00415355
8.29 0.00512109
8.3 0.00574873
8.31 0.00605678
8.32 0.00605896
8.33 0.00579594
8.34 0.0053282
8.35 0.00470357
8.36 0.00397306
8.37 0.0031892
8.38 0.00240414
8.39 0.00167808
8.4 0.00105505
8.41 0.000571897
8.42 0.000257512
8.43 0.000130931
8.44 0.000200209
8.45 0.000469542
8.46 0.000923432
8.47 0.00151667
8.48 0.00220621
8.49 0.00293852
8.5 0.00365092
8.51 0.00427335
8.52 0.00470629
8.53 0.00487548
8.54 0.00470554
8.55 0.00412054
8.56 0.00304972
8.57 0.00142984
8.58 -0.000814827
8.59 -0.00376172
8.6 -0.00738536
8.61 -0.0116967
8.62 -0.0166918
8.63 -0.0223522
8.64 -0.0286451
8.65 -0.0355705
8.66 -0.0430277
8.67 -0.0509292
8.68 -0.0591974
8.69 -0.0677499
8.7 -0.0765019
8.71 -0.0853693
8.72 -0.0942626
8.73 -0.103097
8.74 -0.111806
8.75 -0.120332
8.76 -0.128626
8.77 -0.136653
8.78 -0.144368
8.79 -0.151767
8.8 -0.158867
8.81 -0.165679
8.82 -0.172224
8.83 -0.17853
8.84 -0.184628
8.85 -0.190541
8.86 -0.196326
8.87 -0.202016
8.88 -0.207639
8.89 -0.213218
8.9 -0.218768
8.91 -0.224293
8.92 -0.229788
8.93 -0.23524
8.94 -0.240623
8.95 -0.245905
8.96 -0.251043
8.97 -0.255992
8.98 -0.260666
8.99 -0.265036
9 -0.269047
9.01 -0.27265
9.02 -0.2758
9.03 -0.278458
9.04 -0.280563
9.05 -0.282089
9.06 -0.283062
9.07 -0.283485
9.08 -0.283376
9.09 -0.282761
9.1 -0.281677
9.11 -0.280131
9.12 -0.278223
9.13 -0.276019
9.14 -0.273581
9.15 -0.270974
9.16 -0.268259
9.17 -0.265495
9.18 -0.262743
9.19 -0.26005
9.2 -0.257449
9.21 -0.254966
9.22 -0.252614
9.23 -0.250399
9.24 -0.248324
9.25 -0.24636
9.26 -0.24448
9.27 -0.242651
9.28 -0.240837
9.29 -0.238999
9.3 -0.237095
9.31 -0.235077
9.32 -0.232919
9.33 -0.230594
9.34 -0.228083
9.35 -0.225375
9.36 -0.222468
9.37 -0.219354
9.38 -0.216064
9.39 -0.212631
9.4 -0.209088
9.41 -0.205475
9.42 -0.201834
9.43 -0.198212
9.44 -0.194662
9.45 -0.191222
9.46 -0.187925
9.47 -0.184798
9.48 -0.181858
9.49 -0.179109
9.5 -0.176558
9.51 -0.174174
9.52 -0.171913
9.53 -0.169726
9.54 -0.167553
9.55 -0.165323
9.56 -0.162956
9.57 -0.160331
9.58 -0.157377
9.59 -0.154001
9.6 -0.150115
9.61 -0.145635
9.62 -0.140484
9.63 -0.134544
9.64 -0.127759
9.65 -0.12013
9.66 -0.111634
9.67 -0.102261
9.68 -0.0920177
9.69 -0.0809242
9.7 -0.0689274
9.71 -0.0561748
9.72 -0.0427294
9.73 -0.0286614
9.74 -0.0140473
9.75 0.0010323
9.76 0.0165106
9.77 0.0322985
9.78 0.0482944
9.79 0.0644261
9.8 0.0806281
9.81 0.096843
9.82 0.113022
9.83 0.129113
9.84 0.14509
9.85 0.160934
9.86 0.176629
9.87 0.192167
9.88 0.207543
9.89 0.222749
9.9 0.237774
9.91 0.252628
9.92 0.267304
9.93 0.281787
9.94 0.29606
9.95 0.310097
9.96 0.323834
9.97 0.337242
9.98 0.350278
9.99 0.362885
10 0.375001
10.01 0.38656
10.02 0.397473
10.03 0.407626
10.04 0.417009
10.05 0.425566
10.06 0.433244
10.07 0.440004
10.08 0.445814
10.09 0.450578
10.1 0.454341
10.11 0.45715
10.12 0.459036
10.13 0.460042
10.14 0.460226
10.15 0.459646
10.16 0.458339
10.17 0.456468
10.18 0.45413
10.19 0.451425
10.2 0.448452
10.21 0.44531
10.22 0.442092
10.23 0.438898
10.24 0.435805
10.25 0.432878
10.26 0.430166
10.27 0.427707
10.28 0.425526
10.29 0.423663
10.3 0.422077
10.31 0.420748
10.32 0.419645
10.33 0.418724
10.34 0.417936
10.35 0.417223
10.36 0.416514
10.37 0.41574
10.38 0.414834
10.39 0.413732
10.4 0.412373
10.41 0.410697
10.42 0.408605
10.43 0.406084
10.44 0.403095
10.45 0.399604
10.46 0.39558
10.47 0.391001
10.48 0.385817
10.49 0.380001
10.5 0.37358
10.51 0.366545
10.52 0.358891
10.53 0.350609
10.54 0.341697
10.55 0.332083
10.56 0.321819
10.57 0.310911
10.58 0.299357
10.59 0.287157
10.6 0.274314
10.61 0.26081
10.62 0.246631
10.63 0.231845
10.64 0.216474
10.65 0.200549
10.66 0.184106
10.67 0.167192
10.68 0.149827
10.69 0.132107
10.7 0.114111
10.71 0.0959163
10.72 0.0776013
10.73 0.0592492
10.74 0.0409482
10.75 0.0228014
10.76 0.0048838
10.77 -0.0127293
10.78 -0.0299694
10.79 -0.0467769
10.8 -0.0631027
10.81 -0.078866
10.82 -0.0940636
10.83 -0.108708
10.84 -0.122807
10.85 -0.136379
10.86 -0.14946
10.87 -0.162086
10.88 -0.174287
10.89 -0.186174
10.9 -0.197814
10.91 -0.209281
10.92 -0.220647
10.93 -0.231982
10.94 -0.243356
10.95 -0.254832
10.96 -0.26645
10.97 -0.278241
10.98 -0.290221
10.99 -0.302392
11 -0.314739
11.01 -0.327243
11.02 -0.339834
11.03 -0.35245
11.04 -0.365015
11.05 -0.377442
11.06 -0.389638
11.07 -0.401478
11.08 -0.412843
11.09 -0.423651
11.1 -0.433804
11.11 -0.443211
11.12 -0.451788
11.13 -0.459463
11.14 -0.466066
11.15 -0.471647
11.16 -0.476188
11.17 -0.479677
11.18 -0.482116
11.19 -0.483524
11.2 -0.483888
11.21 -0.483234
11.22 -0.481687
11.23 -0.479308
11.24 -0.476164
11.25 -0.472322
11.26 -0.467851
11.27 -0.462764
11.28 -0.457173
11.29 -0.451141
11.3 -0.444709
11.31 -0.43791
11.32 -0.430767
11.33 -0.42328
11.34 -0.415435
11.35 -0.407246
11.36 -0.398696
11.37 -0.389757
11.38 -0.380398
11.39 -0.370585
11.4 -0.360236
11.41 -0.34934
11.42 -0.337883
11.43 -0.32584
11.44 -0.313193
11.45 -0.299937
11.46 -0.28606
11.47 -0.271541
11.48 -0.256466
11.49 -0.240879
11.5 -0.224835
11.51 -0.208401
11.52 -0.191655
11.53 -0.174672
11.54 -0.157569
11.55 -0.140453
11.56 -0.123428
11.57 -0.106597
11.58 -0.0900609
11.59 -0.0739244
11.6 -0.0583334
11.61 -0.0433266
11.62 -0.0289754
11.63 -0.0153397
11.64 -0.00246756
11.65 0.00960622
11.66 0.0208052
11.67 0.0311345
11.68 0.0406442
11.69 0.0493544
11.7 0.0572964
11.71 0.064511
11.72 0.0710461
11.73 0.0768945
11.74 0.0821948
11.75 0.0870111
11.76 0.0914086
11.77 0.0954513
11.78 0.0992005
11.79 0.102703
11.8 0.106017
11.81 0.109199
11.82 0.112284
11.83 0.115299
11.84 0.11826
11.85 0.121177
11.86 0.124043
11.87 0.126851
11.88 0.129582
11.89 0.13221
11.9 0.1347
11.91 0.137014
11.92 0.139099
11.93 0.140892
11.94 0.142362
11.95 0.143461
11.96 0.144139
11.97 0.14435
11.98 0.14405
11.99 0.143141
12 0.141626
12.01 0.139485
12.02 0.136693
12.03 0.13323
12.04 0.129082
12.05 0.124217
12.06 0.118597
12.07 0.112284
12.08 0.105285
12.09 0.0976122
12.1 0.0892818
12.11 0.0803125
12.12 0.0706752
12.13 0.0604305
12.14 0.0496236
12.15 0.0382814
12.16 0.0264318
12.17 0.0141037
