# xPDFsuite Configuration #
[PDF]
wavelength = 0.1
dataformat = QA
inputfile = BiMsol6_insitu_700 C-00669.xy
backgroundfile = Quartz2mm-dist500-00000.xy
mode = xray
bgscale = 0.0042
composition = Bi2Fe4O9
outputtype = gr
qmaxinst = 24.998449118
qmin = 0.1
qmax = 21.4986662415
rmax = 80.0
rmin = 0.0
rstep = 0.01
rpoly = 0.9

[Misc]
inputdir = C:/Data/Seafile/CPH/Beamtime/Desy Oct 20/In situ data/Processed/BiMsol6/PDF
savedir = C:/Data/Seafile/CPH/Beamtime/Desy Oct 20/In situ data/PDF/BiMsol6
backgroundfilefull = C:/Data/Seafile/CPH/Beamtime/Desy Oct 20/In situ data/Processed/Standard_Empty_Cap/Quartz2mm-dist500-00000.xy

#### start data
#S 1
#L r($\AA$)  G($\AA^{-2}$)
0 0
0.01 0.00618043
0.02 0.0120111
0.03 0.0171926
0.04 0.0214564
0.05 0.0245768
0.06 0.0263816
0.07 0.0266827
0.08 0.0254248
0.09 0.0227459
0.1 0.0187595
0.11 0.0136418
0.12 0.00762413
0.13 0.00098255
0.14 -0.00597282
0.15 -0.0128505
0.16 -0.0193202
0.17 -0.0250719
0.18 -0.0298277
0.19 -0.0333549
0.2 -0.0354145
0.21 -0.0358428
0.22 -0.0347336
0.23 -0.0321498
0.24 -0.0282303
0.25 -0.0231849
0.26 -0.0172866
0.27 -0.0108457
0.28 -0.00431099
0.29 0.00191817
0.3 0.0074538
0.31 0.0119268
0.32 0.0150049
0.33 0.0163518
0.34 0.0156379
0.35 0.0129118
0.36 0.00816937
0.37 0.0015072
0.38 -0.00687575
0.39 -0.016681
0.4 -0.0275627
0.41 -0.0389228
0.42 -0.0501737
0.43 -0.0607178
0.44 -0.0699361
0.45 -0.0772116
0.46 -0.081891
0.47 -0.0831334
0.48 -0.0807525
0.49 -0.074405
0.5 -0.063866
0.51 -0.0490425
0.52 -0.0299834
0.53 -0.00661738
0.54 0.0205248
0.55 0.0507416
0.56 0.0833811
0.57 0.11768
0.58 0.152785
0.59 0.187764
0.6 0.221429
0.61 0.252846
0.62 0.281074
0.63 0.305231
0.64 0.324523
0.65 0.338268
0.66 0.345517
0.67 0.345883
0.68 0.339533
0.69 0.326469
0.7 0.306876
0.71 0.28111
0.72 0.249696
0.73 0.212831
0.74 0.171976
0.75 0.12808
0.76 0.0821465
0.77 0.0352227
0.78 -0.011637
0.79 -0.0572925
0.8 -0.100595
0.81 -0.140759
0.82 -0.177026
0.83 -0.208775
0.84 -0.235532
0.85 -0.256982
0.86 -0.272417
0.87 -0.282375
0.88 -0.287152
0.89 -0.287112
0.9 -0.282749
0.91 -0.274662
0.92 -0.263452
0.93 -0.249886
0.94 -0.234975
0.95 -0.219497
0.96 -0.204203
0.97 -0.189791
0.98 -0.176888
0.99 -0.166254
1 -0.158206
1.01 -0.152969
1.02 -0.150696
1.03 -0.151416
1.04 -0.155046
1.05 -0.161456
1.06 -0.170453
1.07 -0.181408
1.08 -0.193873
1.09 -0.207366
1.1 -0.221386
1.11 -0.235437
1.12 -0.248972
1.13 -0.261533
1.14 -0.272778
1.15 -0.282422
1.16 -0.290257
1.17 -0.29616
1.18 -0.300059
1.19 -0.301856
1.2 -0.30189
1.21 -0.300365
1.22 -0.297541
1.23 -0.293715
1.24 -0.289208
1.25 -0.284351
1.26 -0.279517
1.27 -0.275015
1.28 -0.271099
1.29 -0.267979
1.3 -0.265804
1.31 -0.264671
1.32 -0.264711
1.33 -0.265753
1.34 -0.267684
1.35 -0.270338
1.36 -0.273508
1.37 -0.276956
1.38 -0.28041
1.39 -0.283564
1.4 -0.28617
1.41 -0.287997
1.42 -0.288855
1.43 -0.288592
1.44 -0.287115
1.45 -0.284245
1.46 -0.280153
1.47 -0.274943
1.48 -0.26877
1.49 -0.261839
1.5 -0.254394
1.51 -0.246717
1.52 -0.239152
1.53 -0.232013
1.54 -0.225591
1.55 -0.220154
1.56 -0.215933
1.57 -0.213112
1.58 -0.211981
1.59 -0.212469
1.6 -0.214531
1.61 -0.218076
1.62 -0.222949
1.63 -0.228929
1.64 -0.235762
1.65 -0.2431
1.66 -0.250521
1.67 -0.257648
1.68 -0.264101
1.69 -0.269513
1.7 -0.273542
1.71 -0.27571
1.72 -0.275849
1.73 -0.273833
1.74 -0.269559
1.75 -0.262998
1.76 -0.254195
1.77 -0.243222
1.78 -0.230179
1.79 -0.215527
1.8 -0.199589
1.81 -0.182726
1.82 -0.165325
1.83 -0.147787
1.84 -0.130561
1.85 -0.114062
1.86 -0.0986195
1.87 -0.0845264
1.88 -0.0720211
1.89 -0.061278
1.9 -0.052431
1.91 -0.0456765
1.92 -0.0407655
1.93 -0.0375756
1.94 -0.0359244
1.95 -0.0355786
1.96 -0.0362641
1.97 -0.0377059
1.98 -0.0395268
1.99 -0.0413778
2 -0.0429606
2.01 -0.044007
2.02 -0.0442904
2.03 -0.0436316
2.04 -0.0417931
2.05 -0.0388537
2.06 -0.0348499
2.07 -0.029886
2.08 -0.0241303
2.09 -0.0178097
2.1 -0.0112032
2.11 -0.00468114
2.12 0.0013928
2.13 0.0066596
2.14 0.010764
2.15 0.0133682
2.16 0.0141657
2.17 0.0126429
2.18 0.00879359
2.19 0.00250683
2.2 -0.00627272
2.21 -0.0175258
2.22 -0.0311578
2.23 -0.0470899
2.24 -0.0650923
2.25 -0.0846953
2.26 -0.105536
2.27 -0.127214
2.28 -0.149303
2.29 -0.171368
2.3 -0.192888
2.31 -0.213443
2.32 -0.232665
2.33 -0.250224
2.34 -0.265846
2.35 -0.279319
2.36 -0.290416
2.37 -0.298955
2.38 -0.305148
2.39 -0.309087
2.4 -0.310929
2.41 -0.310889
2.42 -0.309232
2.43 -0.306176
2.44 -0.302174
2.45 -0.297612
2.46 -0.292839
2.47 -0.288192
2.48 -0.283985
2.49 -0.280521
2.5 -0.27813
2.51 -0.276917
2.52 -0.277001
2.53 -0.278447
2.54 -0.281264
2.55 -0.285402
2.56 -0.290848
2.57 -0.297387
2.58 -0.30478
2.59 -0.312807
2.6 -0.321233
2.61 -0.32981
2.62 -0.338288
2.63 -0.346372
2.64 -0.353864
2.65 -0.360578
2.66 -0.366358
2.67 -0.371086
2.68 -0.374684
2.69 -0.377038
2.7 -0.378169
2.71 -0.378188
2.72 -0.377175
2.73 -0.375242
2.74 -0.37252
2.75 -0.369159
2.76 -0.365282
2.77 -0.36112
2.78 -0.356832
2.79 -0.352564
2.8 -0.348447
2.81 -0.344592
2.82 -0.341109
2.83 -0.338072
2.84 -0.335486
2.85 -0.333358
2.86 -0.331667
2.87 -0.330373
2.88 -0.329418
2.89 -0.328745
2.9 -0.328233
2.91 -0.327789
2.92 -0.327316
2.93 -0.326722
2.94 -0.325921
2.95 -0.324815
2.96 -0.323317
2.97 -0.321391
2.98 -0.318992
2.99 -0.316086
3 -0.312646
3.01 -0.308655
3.02 -0.304042
3.03 -0.298837
3.04 -0.293038
3.05 -0.286629
3.06 -0.279586
3.07 -0.271875
3.08 -0.26343
3.09 -0.254148
3.1 -0.244021
3.11 -0.232972
3.12 -0.220915
3.13 -0.207759
3.14 -0.193408
3.15 -0.177653
3.16 -0.160465
3.17 -0.141809
3.18 -0.121628
3.19 -0.0998816
3.2 -0.0765548
3.21 -0.0516279
3.22 -0.025038
3.23 0.00298047
3.24 0.0323101
3.25 0.0628001
3.26 0.0942674
3.27 0.126499
3.28 0.159275
3.29 0.192276
3.3 0.225197
3.31 0.257745
3.32 0.28962
3.33 0.320524
3.34 0.350154
3.35 0.378053
3.36 0.404113
3.37 0.42811
3.38 0.449853
3.39 0.469183
3.4 0.485977
3.41 0.499983
3.42 0.511176
3.43 0.519697
3.44 0.525585
3.45 0.528906
3.46 0.529758
3.47 0.528265
3.48 0.524335
3.49 0.518398
3.5 0.510632
3.51 0.501219
3.52 0.49034
3.53 0.478177
3.54 0.464859
3.55 0.450563
3.56 0.435515
3.57 0.419858
3.58 0.403722
3.59 0.387224
3.6 0.370472
3.61 0.353554
3.62 0.336578
3.63 0.319623
3.64 0.302764
3.65 0.286069
3.66 0.269608
3.67 0.253466
3.68 0.237739
3.69 0.222478
3.7 0.207765
3.71 0.193682
3.72 0.180319
3.73 0.167766
3.74 0.156209
3.75 0.14569
3.76 0.13628
3.77 0.128068
3.78 0.121137
3.79 0.115564
3.8 0.111462
3.81 0.108979
3.82 0.108032
3.83 0.108652
3.84 0.110852
3.85 0.114635
3.86 0.119989
3.87 0.127011
3.88 0.13558
3.89 0.14559
3.9 0.156975
3.91 0.16966
3.92 0.183562
3.93 0.198609
3.94 0.214776
3.95 0.231852
3.96 0.24973
3.97 0.268302
3.98 0.287458
3.99 0.307085
4 0.327086
4.01 0.347317
4.02 0.367646
4.03 0.387952
4.04 0.408111
4.05 0.427998
4.06 0.447484
4.07 0.46637
4.08 0.484572
4.09 0.50196
4.1 0.518404
4.11 0.533777
4.12 0.547954
4.13 0.56073
4.14 0.571981
4.15 0.581684
4.16 0.58975
4.17 0.596103
4.18 0.600682
4.19 0.603444
4.2 0.604152
4.21 0.603001
4.22 0.600015
4.23 0.595225
4.24 0.588683
4.25 0.580455
4.26 0.570546
4.27 0.559036
4.28 0.546137
4.29 0.53196
4.3 0.516615
4.31 0.500215
4.32 0.48287
4.33 0.464605
4.34 0.445597
4.35 0.425938
4.36 0.405697
4.37 0.384927
4.38 0.36367
4.39 0.341935
4.4 0.319721
4.41 0.297066
4.42 0.273962
4.43 0.250399
4.44 0.226363
4.45 0.201842
4.46 0.176782
4.47 0.151217
4.48 0.125172
4.49 0.0986748
4.5 0.0717686
4.51 0.0445137
4.52 0.0169845
4.53 -0.0107175
4.54 -0.03845
4.55 -0.0660779
4.56 -0.0934532
4.57 -0.120417
4.58 -0.146805
4.59 -0.172376
4.6 -0.196974
4.61 -0.22047
4.62 -0.242718
4.63 -0.263588
4.64 -0.28297
4.65 -0.30075
4.66 -0.316724
4.67 -0.331025
4.68 -0.343658
4.69 -0.354653
4.7 -0.364072
4.71 -0.372001
4.72 -0.378464
4.73 -0.383644
4.74 -0.387757
4.75 -0.390966
4.76 -0.39344
4.77 -0.395351
4.78 -0.396864
4.79 -0.398131
4.8 -0.399337
4.81 -0.400607
4.82 -0.402048
4.83 -0.403743
4.84 -0.405755
4.85 -0.408139
4.86 -0.410908
4.87 -0.414022
4.88 -0.417445
4.89 -0.421119
4.9 -0.424975
4.91 -0.428928
4.92 -0.432878
4.93 -0.436718
4.94 -0.440352
4.95 -0.443687
4.96 -0.446637
4.97 -0.449126
4.98 -0.451061
4.99 -0.45237
5 -0.453056
5.01 -0.453097
5.02 -0.452487
5.03 -0.45123
5.04 -0.449341
5.05 -0.446789
5.06 -0.443657
5.07 -0.439995
5.08 -0.43584
5.09 -0.431229
5.1 -0.4262
5.11 -0.420769
5.12 -0.414948
5.13 -0.408788
5.14 -0.4023
5.15 -0.39549
5.16 -0.388357
5.17 -0.380899
5.18 -0.373081
5.19 -0.364913
5.2 -0.356403
5.21 -0.347549
5.22 -0.338358
5.23 -0.328844
5.24 -0.319022
5.25 -0.308916
5.26 -0.298601
5.27 -0.288135
5.28 -0.27759
5.29 -0.267045
5.3 -0.256589
5.31 -0.246338
5.32 -0.236398
5.33 -0.22686
5.34 -0.217819
5.35 -0.209367
5.36 -0.201586
5.37 -0.194556
5.38 -0.188411
5.39 -0.183108
5.4 -0.178667
5.41 -0.175086
5.42 -0.172346
5.43 -0.170409
5.44 -0.169267
5.45 -0.168825
5.46 -0.168958
5.47 -0.169573
5.48 -0.170566
5.49 -0.171833
5.5 -0.173267
5.51 -0.174765
5.52 -0.176216
5.53 -0.177537
5.54 -0.178657
5.55 -0.179519
5.56 -0.18008
5.57 -0.180293
5.58 -0.180143
5.59 -0.179652
5.6 -0.178836
5.61 -0.177717
5.62 -0.176325
5.63 -0.174691
5.64 -0.17283
5.65 -0.170793
5.66 -0.168603
5.67 -0.166271
5.68 -0.163799
5.69 -0.161171
5.7 -0.158353
5.71 -0.155286
5.72 -0.151927
5.73 -0.148203
5.74 -0.144035
5.75 -0.139333
5.76 -0.134007
5.77 -0.127885
5.78 -0.120926
5.79 -0.113066
5.8 -0.10424
5.81 -0.0944016
5.82 -0.0835211
5.83 -0.0715588
5.84 -0.0584871
5.85 -0.0444455
5.86 -0.0295111
5.87 -0.0137863
5.88 0.00260371
5.89 0.019513
5.9 0.0367937
5.91 0.0542264
5.92 0.0716153
5.93 0.0887731
5.94 0.105516
5.95 0.121671
5.96 0.137055
5.97 0.151448
5.98 0.16481
5.99 0.177056
6 0.188132
6.01 0.198011
6.02 0.206699
6.03 0.21415
6.04 0.220478
6.05 0.225827
6.06 0.230313
6.07 0.234067
6.08 0.23723
6.09 0.239945
6.1 0.242349
6.11 0.244621
6.12 0.246884
6.13 0.249245
6.14 0.251785
6.15 0.254561
6.16 0.257619
6.17 0.260952
6.18 0.264505
6.19 0.268213
6.2 0.27198
6.21 0.275691
6.22 0.279209
6.23 0.282325
6.24 0.284903
6.25 0.28678
6.26 0.287795
6.27 0.287798
6.28 0.286654
6.29 0.284175
6.3 0.280244
6.31 0.274886
6.32 0.268075
6.33 0.259816
6.34 0.250147
6.35 0.239136
6.36 0.226759
6.37 0.213274
6.38 0.198845
6.39 0.183637
6.4 0.167827
6.41 0.151598
6.42 0.135129
6.43 0.118622
6.44 0.102254
6.45 0.0861725
6.46 0.0705036
6.47 0.0553503
6.48 0.04079
6.49 0.0269358
6.5 0.0137614
6.51 0.00124082
6.52 -0.0106622
6.53 -0.0220062
6.54 -0.0328682
6.55 -0.0433321
6.56 -0.0534998
6.57 -0.0635129
6.58 -0.073481
6.59 -0.0835085
6.6 -0.0936906
6.61 -0.10411
6.62 -0.11486
6.63 -0.125975
6.64 -0.137461
6.65 -0.149315
6.66 -0.161506
6.67 -0.173985
6.68 -0.186681
6.69 -0.199496
6.7 -0.212298
6.71 -0.224961
6.72 -0.237349
6.73 -0.249322
6.74 -0.260736
6.75 -0.27139
6.76 -0.281152
6.77 -0.28993
6.78 -0.297613
6.79 -0.304105
6.8 -0.309328
6.81 -0.313206
6.82 -0.315554
6.83 -0.316496
6.84 -0.316027
6.85 -0.314155
6.86 -0.310905
6.87 -0.30631
6.88 -0.300339
6.89 -0.293056
6.9 -0.284589
6.91 -0.274995
6.92 -0.264329
6.93 -0.252644
6.94 -0.239988
6.95 -0.226301
6.96 -0.211725
6.97 -0.196291
6.98 -0.180021
6.99 -0.162928
7 -0.145025
7.01 -0.126278
7.02 -0.106678
7.03 -0.0862843
7.04 -0.0651019
7.05 -0.0431406
7.06 -0.0204151
7.07 0.00305333
7.08 0.0273049
7.09 0.0522313
7.1 0.0777712
7.11 0.103863
7.12 0.130433
7.13 0.1574
7.14 0.184679
7.15 0.212159
7.16 0.239708
7.17 0.267207
7.18 0.294536
7.19 0.32157
7.2 0.348182
7.21 0.374185
7.22 0.399477
7.23 0.423954
7.24 0.447501
7.25 0.47001
7.26 0.491381
7.27 0.511483
7.28 0.53014
7.29 0.54739
7.3 0.563166
7.31 0.577411
7.32 0.590076
7.33 0.601119
7.34 0.610368
7.35 0.617868
7.36 0.623658
7.37 0.627724
7.38 0.630057
7.39 0.63065
7.4 0.629476
7.41 0.626394
7.42 0.621589
7.43 0.615075
7.44 0.606871
7.45 0.597001
7.46 0.585494
7.47 0.572276
7.48 0.557432
7.49 0.541087
7.5 0.523298
7.51 0.50413
7.52 0.483655
7.53 0.461948
7.54 0.438989
7.55 0.415011
7.56 0.390121
7.57 0.364434
7.58 0.33807
7.59 0.311157
7.6 0.283813
7.61 0.256196
7.62 0.228471
7.63 0.200782
7.64 0.173273
7.65 0.146087
7.66 0.119365
7.67 0.0933284
7.68 0.0680563
7.69 0.0436703
7.7 0.0202866
7.71 -0.00198774
7.72 -0.0230564
7.73 -0.0427691
7.74 -0.0610156
7.75 -0.0778309
7.76 -0.0931737
7.77 -0.107017
7.78 -0.119349
7.79 -0.13017
7.8 -0.13935
7.81 -0.14705
7.82 -0.15334
7.83 -0.158277
7.84 -0.161929
7.85 -0.164373
7.86 -0.165655
7.87 -0.165833
7.88 -0.165093
7.89 -0.16353
7.9 -0.161241
7.91 -0.158323
7.92 -0.154868
7.93 -0.15093
7.94 -0.146626
7.95 -0.142042
7.96 -0.137239
7.97 -0.132274
7.98 -0.12719
7.99 -0.122022
8 -0.116796
8.01 -0.111534
8.02 -0.106246
8.03 -0.100934
8.04 -0.0955948
8.05 -0.0902232
8.06 -0.0848068
8.07 -0.079338
8.08 -0.0738115
8.09 -0.0682235
8.1 -0.0625746
8.11 -0.0568705
8.12 -0.0511227
8.13 -0.0453511
8.14 -0.0395872
8.15 -0.0338653
8.16 -0.0282257
8.17 -0.0227142
8.18 -0.0173808
8.19 -0.0122977
8.2 -0.00752265
8.21 -0.00309687
8.22 0.000929642
8.23 0.00451167
8.24 0.0076106
8.25 0.0101942
8.26 0.0121816
8.27 0.0136252
8.28 0.0145301
8.29 0.0149136
8.3 0.0148051
8.31 0.0142454
8.32 0.0132672
8.33 0.0119407
8.34 0.0103598
8.35 0.00859972
8.36 0.00673807
8.37 0.0048527
8.38 0.00301895
8.39 0.00132738
8.4 -0.000167272
8.41 -0.00141625
8.42 -0.00238219
8.43 -0.00304157
8.44 -0.00338588
8.45 -0.00340934
8.46 -0.00313292
8.47 -0.00262086
8.48 -0.00192943
8.49 -0.00112732
8.5 -0.000293641
8.51 0.000484442
8.52 0.00109029
8.53 0.00143002
8.54 0.00141288
8.55 0.000949613
8.56 -4.17439e-05
8.57 -0.00163321
8.58 -0.00390877
8.59 -0.00695231
8.6 -0.0107335
8.61 -0.0152606
8.62 -0.0205248
8.63 -0.0265006
8.64 -0.0331464
8.65 -0.0404535
8.66 -0.0483076
8.67 -0.0566089
8.68 -0.0652688
8.69 -0.0741945
8.7 -0.0832921
8.71 -0.0924685
8.72 -0.101624
8.73 -0.110675
8.74 -0.119553
8.75 -0.128199
8.76 -0.136569
8.77 -0.144632
8.78 -0.152347
8.79 -0.159721
8.8 -0.166781
8.81 -0.173549
8.82 -0.180055
8.83 -0.186338
8.84 -0.192439
8.85 -0.198393
8.86 -0.204261
8.87 -0.210082
8.88 -0.215886
8.89 -0.221697
8.9 -0.227528
8.91 -0.233382
8.92 -0.239248
8.93 -0.245098
8.94 -0.250898
8.95 -0.256602
8.96 -0.262155
8.97 -0.267497
8.98 -0.272522
8.99 -0.277188
9 -0.281429
9.01 -0.285182
9.02 -0.288392
9.03 -0.291012
9.04 -0.292969
9.05 -0.294234
9.06 -0.294839
9.07 -0.294793
9.08 -0.29412
9.09 -0.292855
9.1 -0.291049
9.11 -0.288719
9.12 -0.285991
9.13 -0.28295
9.14 -0.279679
9.15 -0.276261
9.16 -0.272778
9.17 -0.269312
9.18 -0.265944
9.19 -0.262731
9.2 -0.259717
9.21 -0.256934
9.22 -0.254402
9.23 -0.252124
9.24 -0.250109
9.25 -0.24831
9.26 -0.246684
9.27 -0.24518
9.28 -0.243743
9.29 -0.242309
9.3 -0.240812
9.31 -0.239173
9.32 -0.23734
9.33 -0.235259
9.34 -0.232888
9.35 -0.230196
9.36 -0.227161
9.37 -0.223749
9.38 -0.219989
9.39 -0.215916
9.4 -0.211568
9.41 -0.206994
9.42 -0.202251
9.43 -0.197405
9.44 -0.192532
9.45 -0.187712
9.46 -0.183015
9.47 -0.178506
9.48 -0.17424
9.49 -0.170264
9.5 -0.166635
9.51 -0.163363
9.52 -0.160431
9.53 -0.157818
9.54 -0.155488
9.55 -0.153388
9.56 -0.151449
9.57 -0.149583
9.58 -0.147676
9.59 -0.145621
9.6 -0.143306
9.61 -0.140613
9.62 -0.137429
9.63 -0.133596
9.64 -0.129002
9.65 -0.123586
9.66 -0.117272
9.67 -0.109994
9.68 -0.101707
9.69 -0.0923803
9.7 -0.0818835
9.71 -0.0703484
9.72 -0.0578075
9.73 -0.0443084
9.74 -0.0299137
9.75 -0.0146997
9.76 0.00127878
9.77 0.0179189
9.78 0.0350701
9.79 0.0526256
9.8 0.0704784
9.81 0.0885231
9.82 0.106658
9.83 0.124778
9.84 0.142787
9.85 0.160607
9.86 0.178169
9.87 0.195415
9.88 0.212294
9.89 0.228748
9.9 0.244723
9.91 0.26023
9.92 0.275248
9.93 0.289766
9.94 0.303774
9.95 0.317264
9.96 0.330179
9.97 0.342548
9.98 0.354377
9.99 0.365655
10 0.37637
10.01 0.38651
10.02 0.396041
10.03 0.40491
10.04 0.41315
10.05 0.420746
10.06 0.42768
10.07 0.433939
10.08 0.439512
10.09 0.444336
10.1 0.448442
10.11 0.451859
10.12 0.4546
10.13 0.456683
10.14 0.458131
10.15 0.458967
10.16 0.459189
10.17 0.458899
10.18 0.458147
10.19 0.456986
10.2 0.455471
10.21 0.453659
10.22 0.451595
10.23 0.449347
10.24 0.446979
10.25 0.444541
10.26 0.442076
10.27 0.439625
10.28 0.43722
10.29 0.434897
10.3 0.432669
10.31 0.430545
10.32 0.428528
10.33 0.426615
10.34 0.424795
10.35 0.423055
10.36 0.421368
10.37 0.419701
10.38 0.418023
10.39 0.416295
10.4 0.414479
10.41 0.412533
10.42 0.410387
10.43 0.408009
10.44 0.405353
10.45 0.402372
10.46 0.399015
10.47 0.395236
10.48 0.39096
10.49 0.386123
10.5 0.380712
10.51 0.374682
10.52 0.367994
10.53 0.360606
10.54 0.352485
10.55 0.343519
10.56 0.333747
10.57 0.323163
10.58 0.311756
10.59 0.299524
10.6 0.286472
10.61 0.272586
10.62 0.257862
10.63 0.242402
10.64 0.226252
10.65 0.20947
10.66 0.192121
10.67 0.17428
10.68 0.156001
10.69 0.13741
10.7 0.11861
10.71 0.0996996
10.72 0.0807747
10.73 0.0619311
10.74 0.0432678
10.75 0.0248984
10.76 0.00688204
10.77 -0.010715
10.78 -0.0278375
10.79 -0.0444434
10.8 -0.0605038
10.81 -0.0759595
10.82 -0.0908362
10.83 -0.105172
10.84 -0.118998
10.85 -0.132356
10.86 -0.145297
10.87 -0.157878
10.88 -0.170149
10.89 -0.182215
10.9 -0.194147
10.91 -0.206011
10.92 -0.217872
10.93 -0.229786
10.94 -0.241806
10.95 -0.25397
10.96 -0.26629
10.97 -0.278771
10.98 -0.291402
10.99 -0.304157
11 -0.316997
11.01 -0.329866
11.02 -0.342687
11.03 -0.355383
11.04 -0.36787
11.05 -0.38006
11.06 -0.39186
11.07 -0.403147
11.08 -0.413818
11.09 -0.423824
11.1 -0.43309
11.11 -0.441557
11.12 -0.449172
11.13 -0.455899
11.14 -0.461611
11.15 -0.466396
11.16 -0.470264
11.17 -0.473235
11.18 -0.475338
11.19 -0.476612
11.2 -0.477068
11.21 -0.476748
11.22 -0.475759
11.23 -0.474156
11.24 -0.471988
11.25 -0.469301
11.26 -0.466134
11.27 -0.462475
11.28 -0.458382
11.29 -0.453871
11.3 -0.44894
11.31 -0.443576
11.32 -0.437756
11.33 -0.431433
11.34 -0.424538
11.35 -0.41707
11.36 -0.408984
11.37 -0.400237
11.38 -0.390786
11.39 -0.380598
11.4 -0.369574
11.41 -0.357743
11.42 -0.345123
11.43 -0.331725
11.44 -0.317574
11.45 -0.302708
11.46 -0.287168
11.47 -0.270993
11.48 -0.254326
11.49 -0.237263
11.5 -0.219909
11.51 -0.202377
11.52 -0.184781
11.53 -0.167253
11.54 -0.149923
11.55 -0.132898
11.56 -0.116284
11.57 -0.100175
11.58 -0.0846534
11.59 -0.0697992
11.6 -0.0557377
11.61 -0.0424351
11.62 -0.0299117
11.63 -0.0181726
11.64 -0.00720818
11.65 0.00300465
11.66 0.0124567
11.67 0.0212123
11.68 0.0293629
11.69 0.0369687
11.7 0.044093
11.71 0.0507994
11.72 0.0571492
11.73 0.0631734
11.74 0.0689618
11.75 0.0745576
11.76 0.079995
11.77 0.0852988
11.78 0.0904839
11.79 0.0955489
11.8 0.100486
11.81 0.105288
11.82 0.109931
11.83 0.114386
11.84 0.11862
11.85 0.122595
11.86 0.126238
11.87 0.129536
11.88 0.132455
11.89 0.134965
11.9 0.137035
11.91 0.138645
11.92 0.139754
11.93 0.140337
11.94 0.140426
11.95 0.140023
11.96 0.139135
11.97 0.137772
11.98 0.135949
11.99 0.133639
12 0.130894
12.01 0.127738
12.02 0.124184
12.03 0.120239
12.04 0.115908
12.05 0.111177
12.06 0.106018
12.07 0.100449
12.08 0.0944512
12.09 0.0879999
12.1 0.0810662
12.11 0.073618
12.12 0.0655712
12.13 0.056917
12.14 0.0476401
12.15 0.0377113
12.16 0.0271068
12.17 0.0158095
12.18 0.00379584
