# xPDFsuite Configuration #
[PDF]
wavelength = 0.1
dataformat = QA
inputfile = BiMsol6_insitu_700 C-00432.xy
backgroundfile = Quartz2mm-dist500-00000.xy
mode = xray
bgscale = 0.0042
composition = Bi2Fe4O9
outputtype = gr
qmaxinst = 24.998449118
qmin = 0.1
qmax = 21.4986662415
rmax = 80.0
rmin = 0.0
rstep = 0.01
rpoly = 0.9

[Misc]
inputdir = C:/Data/Seafile/CPH/Beamtime/Desy Oct 20/In situ data/Processed/BiMsol6/PDF
savedir = C:/Data/Seafile/CPH/Beamtime/Desy Oct 20/In situ data/PDF/BiMsol6
backgroundfilefull = C:/Data/Seafile/CPH/Beamtime/Desy Oct 20/In situ data/Processed/Standard_Empty_Cap/Quartz2mm-dist500-00000.xy

#### start data
#S 1
#L r($\AA$)  G($\AA^{-2}$)
0 0
0.01 0.00605677
0.02 0.011767
0.03 0.0168341
0.04 0.0209924
0.05 0.0240192
0.06 0.0257453
0.07 0.0259862
0.08 0.0246899
0.09 0.0219959
0.1 0.0180196
0.11 0.0129388
0.12 0.00698595
0.13 0.000437407
0.14 -0.00639433
0.15 -0.0131221
0.16 -0.0194186
0.17 -0.0249776
0.18 -0.0295259
0.19 -0.0328366
0.2 -0.0346779
0.21 -0.0348949
0.22 -0.0335897
0.23 -0.0308342
0.24 -0.0267758
0.25 -0.0216328
0.26 -0.0156859
0.27 -0.00925837
0.28 -0.00280064
0.29 0.00328576
0.3 0.00861149
0.31 0.0128084
0.32 0.0155475
0.33 0.016497
0.34 0.0153346
0.35 0.0121255
0.36 0.00687933
0.37 -0.000291039
0.38 -0.00916901
0.39 -0.0194371
0.4 -0.0307238
0.41 -0.0424111
0.42 -0.0538941
0.43 -0.0645571
0.44 -0.0737649
0.45 -0.0808862
0.46 -0.085254
0.47 -0.0860062
0.48 -0.0829689
0.49 -0.0758
0.5 -0.0642798
0.51 -0.0483248
0.52 -0.0279973
0.53 -0.00323598
0.54 0.0254009
0.55 0.0571824
0.56 0.0914302
0.57 0.127353
0.58 0.164068
0.59 0.200615
0.6 0.235768
0.61 0.268568
0.62 0.298054
0.63 0.323321
0.64 0.343556
0.65 0.358063
0.66 0.365871
0.67 0.366587
0.68 0.360386
0.69 0.347275
0.7 0.327442
0.71 0.301254
0.72 0.269248
0.73 0.23162
0.74 0.189866
0.75 0.144952
0.76 0.0979024
0.77 0.0497809
0.78 0.0016597
0.79 -0.0453058
0.8 -0.08995
0.81 -0.131471
0.82 -0.169099
0.83 -0.202203
0.84 -0.2303
0.85 -0.253071
0.86 -0.269797
0.87 -0.281015
0.88 -0.287019
0.89 -0.288169
0.9 -0.284956
0.91 -0.277977
0.92 -0.267826
0.93 -0.255264
0.94 -0.241298
0.95 -0.226702
0.96 -0.212218
0.97 -0.198538
0.98 -0.186279
0.99 -0.176185
1 -0.168571
1.01 -0.163658
1.02 -0.161593
1.03 -0.162407
1.04 -0.166013
1.05 -0.172284
1.06 -0.181027
1.07 -0.191634
1.08 -0.203674
1.09 -0.216681
1.1 -0.230176
1.11 -0.243687
1.12 -0.256699
1.13 -0.268783
1.14 -0.27963
1.15 -0.288981
1.16 -0.296657
1.17 -0.302561
1.18 -0.306647
1.19 -0.308855
1.2 -0.309516
1.21 -0.308841
1.22 -0.30709
1.23 -0.304553
1.24 -0.301538
1.25 -0.298365
1.26 -0.295371
1.27 -0.292823
1.28 -0.290935
1.29 -0.289874
1.3 -0.289743
1.31 -0.290591
1.32 -0.292486
1.33 -0.295219
1.34 -0.298636
1.35 -0.302534
1.36 -0.306678
1.37 -0.310805
1.38 -0.31461
1.39 -0.317784
1.4 -0.3201
1.41 -0.321347
1.42 -0.321357
1.43 -0.320015
1.44 -0.317265
1.45 -0.312971
1.46 -0.307378
1.47 -0.300648
1.48 -0.292997
1.49 -0.284688
1.5 -0.276026
1.51 -0.267356
1.52 -0.259082
1.53 -0.251541
1.54 -0.245055
1.55 -0.23991
1.56 -0.236346
1.57 -0.234543
1.58 -0.234811
1.59 -0.237021
1.6 -0.241082
1.61 -0.246858
1.62 -0.254139
1.63 -0.262646
1.64 -0.272058
1.65 -0.281952
1.66 -0.291837
1.67 -0.301274
1.68 -0.309824
1.69 -0.31707
1.7 -0.322625
1.71 -0.325948
1.72 -0.326869
1.73 -0.325266
1.74 -0.321041
1.75 -0.314182
1.76 -0.304767
1.77 -0.292903
1.78 -0.278734
1.79 -0.262807
1.8 -0.245513
1.81 -0.227285
1.82 -0.208583
1.83 -0.189882
1.84 -0.171722
1.85 -0.154583
1.86 -0.138842
1.87 -0.124838
1.88 -0.112843
1.89 -0.103056
1.9 -0.0956238
1.91 -0.090776
1.92 -0.0881934
1.93 -0.0877166
1.94 -0.0891128
1.95 -0.0920866
1.96 -0.0962913
1.97 -0.101372
1.98 -0.106847
1.99 -0.112269
2 -0.117244
2.01 -0.121408
2.02 -0.124444
2.03 -0.126084
2.04 -0.125944
2.05 -0.124089
2.06 -0.120501
2.07 -0.11524
2.08 -0.108446
2.09 -0.100329
2.1 -0.0911272
2.11 -0.0812247
2.12 -0.0710624
2.13 -0.0610434
2.14 -0.0515786
2.15 -0.0430721
2.16 -0.0359053
2.17 -0.0306413
2.18 -0.0274224
2.19 -0.0264535
2.2 -0.027882
2.21 -0.0317799
2.22 -0.0381411
2.23 -0.0469827
2.24 -0.0581705
2.25 -0.0712914
2.26 -0.086044
2.27 -0.10208
2.28 -0.119018
2.29 -0.136456
2.3 -0.153951
2.31 -0.171053
2.32 -0.18739
2.33 -0.202624
2.34 -0.216468
2.35 -0.228688
2.36 -0.239051
2.37 -0.247357
2.38 -0.253741
2.39 -0.258256
2.4 -0.261016
2.41 -0.262194
2.42 -0.26201
2.43 -0.260654
2.44 -0.25852
2.45 -0.255947
2.46 -0.253245
2.47 -0.250717
2.48 -0.248642
2.49 -0.247292
2.5 -0.246966
2.51 -0.247746
2.52 -0.249735
2.53 -0.25298
2.54 -0.257476
2.55 -0.263168
2.56 -0.270022
2.57 -0.277828
2.58 -0.28635
2.59 -0.295375
2.6 -0.304669
2.61 -0.313994
2.62 -0.323108
2.63 -0.33172
2.64 -0.339653
2.65 -0.346734
2.66 -0.352821
2.67 -0.357808
2.68 -0.361629
2.69 -0.364177
2.7 -0.365483
2.71 -0.365664
2.72 -0.364802
2.73 -0.363005
2.74 -0.3604
2.75 -0.357124
2.76 -0.353277
2.77 -0.349075
2.78 -0.344649
2.79 -0.340115
2.8 -0.335568
2.81 -0.331082
2.82 -0.326709
2.83 -0.322469
2.84 -0.318338
2.85 -0.314276
2.86 -0.310219
2.87 -0.306084
2.88 -0.301773
2.89 -0.297136
2.9 -0.292076
2.91 -0.286486
2.92 -0.280262
2.93 -0.273315
2.94 -0.265568
2.95 -0.256928
2.96 -0.247332
2.97 -0.23684
2.98 -0.22547
2.99 -0.213264
3 -0.200283
3.01 -0.186607
3.02 -0.172281
3.03 -0.157467
3.04 -0.142286
3.05 -0.126849
3.06 -0.11126
3.07 -0.0956155
3.08 -0.0800035
3.09 -0.064505
3.1 -0.0491633
3.11 -0.0340062
3.12 -0.0190428
3.13 -0.00426428
3.14 0.0103548
3.15 0.0248479
3.16 0.0392792
3.17 0.0537104
3.18 0.0682017
3.19 0.0828104
3.2 0.0975872
3.21 0.112577
3.22 0.127825
3.23 0.143312
3.24 0.159023
3.25 0.174919
3.26 0.190942
3.27 0.207009
3.28 0.223011
3.29 0.238811
3.3 0.254282
3.31 0.26928
3.32 0.283659
3.33 0.297274
3.34 0.309975
3.35 0.321516
3.36 0.331886
3.37 0.340996
3.38 0.348776
3.39 0.355187
3.4 0.360212
3.41 0.363783
3.42 0.365965
3.43 0.366909
3.44 0.366715
3.45 0.365508
3.46 0.363428
3.47 0.360632
3.48 0.357242
3.49 0.353509
3.5 0.349604
3.51 0.345692
3.52 0.341932
3.53 0.338465
3.54 0.335448
3.55 0.333009
3.56 0.331203
3.57 0.33009
3.58 0.329709
3.59 0.330079
3.6 0.331198
3.61 0.333122
3.62 0.335742
3.63 0.339
3.64 0.342838
3.65 0.347193
3.66 0.351999
3.67 0.357202
3.68 0.362744
3.69 0.36854
3.7 0.37454
3.71 0.380703
3.72 0.386997
3.73 0.393398
3.74 0.399897
3.75 0.40648
3.76 0.413141
3.77 0.419882
3.78 0.426705
3.79 0.433611
3.8 0.440603
3.81 0.447678
3.82 0.454813
3.83 0.461988
3.84 0.46917
3.85 0.476318
3.86 0.48338
3.87 0.490277
3.88 0.496935
3.89 0.503277
3.9 0.509217
3.91 0.514663
3.92 0.519518
3.93 0.523674
3.94 0.52696
3.95 0.529358
3.96 0.530783
3.97 0.531159
3.98 0.530418
3.99 0.528505
4 0.525285
4.01 0.520752
4.02 0.514946
4.03 0.50786
4.04 0.499502
4.05 0.489888
4.06 0.479039
4.07 0.466876
4.08 0.453581
4.09 0.439209
4.1 0.423821
4.11 0.407484
4.12 0.390268
4.13 0.372202
4.14 0.353376
4.15 0.333911
4.16 0.313888
4.17 0.293383
4.18 0.272477
4.19 0.251247
4.2 0.229755
4.21 0.208111
4.22 0.186395
4.23 0.164681
4.24 0.143044
4.25 0.121556
4.26 0.100301
4.27 0.0793575
4.28 0.0587713
4.29 0.0385968
4.3 0.0188824
4.31 -0.000330179
4.32 -0.0190074
4.33 -0.0370649
4.34 -0.0545353
4.35 -0.0714227
4.36 -0.0877319
4.37 -0.103477
4.38 -0.118681
4.39 -0.133356
4.4 -0.147527
4.41 -0.161277
4.42 -0.174655
4.43 -0.18771
4.44 -0.200491
4.45 -0.213046
4.46 -0.225406
4.47 -0.237624
4.48 -0.249732
4.49 -0.261752
4.5 -0.273691
4.51 -0.285549
4.52 -0.29731
4.53 -0.308938
4.54 -0.320404
4.55 -0.331663
4.56 -0.342658
4.57 -0.353331
4.58 -0.363615
4.59 -0.373401
4.6 -0.382633
4.61 -0.391265
4.62 -0.39924
4.63 -0.406507
4.64 -0.413027
4.65 -0.418758
4.66 -0.423617
4.67 -0.427686
4.68 -0.43098
4.69 -0.433531
4.7 -0.435382
4.71 -0.436592
4.72 -0.437193
4.73 -0.437289
4.74 -0.436992
4.75 -0.436395
4.76 -0.43559
4.77 -0.434669
4.78 -0.433722
4.79 -0.432848
4.8 -0.432123
4.81 -0.431611
4.82 -0.431364
4.83 -0.431424
4.84 -0.431819
4.85 -0.432585
4.86 -0.433724
4.87 -0.435202
4.88 -0.436997
4.89 -0.439075
4.9 -0.441397
4.91 -0.443915
4.92 -0.446588
4.93 -0.449342
4.94 -0.452119
4.95 -0.454866
4.96 -0.45753
4.97 -0.460061
4.98 -0.462403
4.99 -0.464503
5 -0.466337
5.01 -0.467874
5.02 -0.469084
5.03 -0.46994
5.04 -0.470419
5.05 -0.470454
5.06 -0.470052
5.07 -0.469194
5.08 -0.467854
5.09 -0.466001
5.1 -0.463602
5.11 -0.460595
5.12 -0.456906
5.13 -0.452535
5.14 -0.447435
5.15 -0.441552
5.16 -0.434836
5.17 -0.427232
5.18 -0.418603
5.19 -0.408951
5.2 -0.398259
5.21 -0.386489
5.22 -0.373612
5.23 -0.359605
5.24 -0.344428
5.25 -0.327999
5.26 -0.310435
5.27 -0.291757
5.28 -0.271993
5.29 -0.251185
5.3 -0.229381
5.31 -0.206571
5.32 -0.182865
5.33 -0.15837
5.34 -0.133164
5.35 -0.107325
5.36 -0.0809349
5.37 -0.0540723
5.38 -0.0267965
5.39 0.000762304
5.4 0.0285209
5.41 0.0563967
5.42 0.0843074
5.43 0.112171
5.44 0.13989
5.45 0.16737
5.46 0.194533
5.47 0.22129
5.48 0.247548
5.49 0.273211
5.5 0.298179
5.51 0.322244
5.52 0.345379
5.53 0.367471
5.54 0.388405
5.55 0.408063
5.56 0.42633
5.57 0.443
5.58 0.457934
5.59 0.471125
5.6 0.482476
5.61 0.491905
5.62 0.499339
5.63 0.504723
5.64 0.507791
5.65 0.508729
5.66 0.507561
5.67 0.50431
5.68 0.49902
5.69 0.491755
5.7 0.482518
5.71 0.471373
5.72 0.458577
5.73 0.444259
5.74 0.42856
5.75 0.411629
5.76 0.393617
5.77 0.374602
5.78 0.354822
5.79 0.334443
5.8 0.3136
5.81 0.292424
5.82 0.27103
5.83 0.249526
5.84 0.228015
5.85 0.206581
5.86 0.185291
5.87 0.164201
5.88 0.143355
5.89 0.122794
5.9 0.10258
5.91 0.0827303
5.92 0.0632631
5.93 0.0442099
5.94 0.0256055
5.95 0.00749005
5.96 -0.0100768
5.97 -0.0269894
5.98 -0.0432352
5.99 -0.0587422
6 -0.0734313
6.01 -0.0872179
6.02 -0.100013
6.03 -0.111639
6.04 -0.122028
6.05 -0.131141
6.06 -0.1389
6.07 -0.145235
6.08 -0.15009
6.09 -0.153404
6.1 -0.155004
6.11 -0.155052
6.12 -0.153565
6.13 -0.150582
6.14 -0.146164
6.15 -0.14039
6.16 -0.133284
6.17 -0.124997
6.18 -0.115726
6.19 -0.105617
6.2 -0.0948226
6.21 -0.0834988
6.22 -0.071804
6.23 -0.0598867
6.24 -0.0479343
6.25 -0.0360851
6.26 -0.0244649
6.27 -0.0131848
6.28 -0.00233958
6.29 0.00796385
6.3 0.0176548
6.31 0.0267328
6.32 0.0351819
6.33 0.0430035
6.34 0.0502147
6.35 0.0568467
6.36 0.0628915
6.37 0.0684594
6.38 0.0736179
6.39 0.0784322
6.4 0.0829693
6.41 0.087296
6.42 0.0914728
6.43 0.095565
6.44 0.0996357
6.45 0.103732
6.46 0.107892
6.47 0.112151
6.48 0.116533
6.49 0.121073
6.5 0.125777
6.51 0.130649
6.52 0.135696
6.53 0.140921
6.54 0.146326
6.55 0.151921
6.56 0.157721
6.57 0.163713
6.58 0.169906
6.59 0.176308
6.6 0.182928
6.61 0.189779
6.62 0.19689
6.63 0.204261
6.64 0.21189
6.65 0.219781
6.66 0.227932
6.67 0.236335
6.68 0.244979
6.69 0.253854
6.7 0.262903
6.71 0.272082
6.72 0.28134
6.73 0.290615
6.74 0.299837
6.75 0.308915
6.76 0.317758
6.77 0.326283
6.78 0.334401
6.79 0.342021
6.8 0.349054
6.81 0.355407
6.82 0.360915
6.83 0.365581
6.84 0.369342
6.85 0.372142
6.86 0.37394
6.87 0.3747
6.88 0.374337
6.89 0.372845
6.9 0.370284
6.91 0.366665
6.92 0.362007
6.93 0.356335
6.94 0.34968
6.95 0.341973
6.96 0.33336
6.97 0.323883
6.98 0.313581
6.99 0.302489
7 0.290644
7.01 0.278044
7.02 0.264711
7.03 0.250721
7.04 0.236099
7.05 0.220871
7.06 0.205059
7.07 0.18869
7.08 0.171738
7.09 0.154286
7.1 0.136376
7.11 0.118048
7.12 0.0993509
7.13 0.080337
7.14 0.0610597
7.15 0.0415897
7.16 0.0220212
7.17 0.00243502
7.18 -0.0170838
7.19 -0.0364473
7.2 -0.0555658
7.21 -0.0743113
7.22 -0.0926096
7.23 -0.110388
7.24 -0.127572
7.25 -0.144095
7.26 -0.1599
7.27 -0.174919
7.28 -0.189068
7.29 -0.202399
7.3 -0.214908
7.31 -0.226605
7.32 -0.237511
7.33 -0.247659
7.34 -0.257041
7.35 -0.265746
7.36 -0.273863
7.37 -0.281456
7.38 -0.288591
7.39 -0.295336
7.4 -0.301751
7.41 -0.307883
7.42 -0.313817
7.43 -0.3196
7.44 -0.32527
7.45 -0.330855
7.46 -0.336375
7.47 -0.341836
7.48 -0.347237
7.49 -0.352571
7.5 -0.357818
7.51 -0.362953
7.52 -0.367945
7.53 -0.372757
7.54 -0.377324
7.55 -0.381628
7.56 -0.385629
7.57 -0.389288
7.58 -0.392572
7.59 -0.395445
7.6 -0.397853
7.61 -0.399765
7.62 -0.401187
7.63 -0.402103
7.64 -0.402497
7.65 -0.40236
7.66 -0.401683
7.67 -0.4004
7.68 -0.398563
7.69 -0.396172
7.7 -0.393226
7.71 -0.389724
7.72 -0.385665
7.73 -0.381024
7.74 -0.375793
7.75 -0.370016
7.76 -0.363701
7.77 -0.356862
7.78 -0.349517
7.79 -0.341689
7.8 -0.333367
7.81 -0.324632
7.82 -0.315541
7.83 -0.306149
7.84 -0.29652
7.85 -0.286727
7.86 -0.276849
7.87 -0.266984
7.88 -0.25723
7.89 -0.24768
7.9 -0.23843
7.91 -0.229571
7.92 -0.221195
7.93 -0.213442
7.94 -0.20636
7.95 -0.199996
7.96 -0.194399
7.97 -0.189605
7.98 -0.185634
7.99 -0.182513
8 -0.180279
8.01 -0.178826
8.02 -0.178108
8.03 -0.178066
8.04 -0.17863
8.05 -0.179719
8.06 -0.181275
8.07 -0.183178
8.08 -0.18532
8.09 -0.187613
8.1 -0.189975
8.11 -0.192328
8.12 -0.194607
8.13 -0.196741
8.14 -0.1987
8.15 -0.200461
8.16 -0.202014
8.17 -0.203359
8.18 -0.20451
8.19 -0.205481
8.2 -0.20631
8.21 -0.207041
8.22 -0.207711
8.23 -0.208355
8.24 -0.209
8.25 -0.209669
8.26 -0.210374
8.27 -0.211105
8.28 -0.211838
8.29 -0.212533
8.3 -0.213132
8.31 -0.21356
8.32 -0.213705
8.33 -0.213442
8.34 -0.212666
8.35 -0.211248
8.36 -0.209052
8.37 -0.205943
8.38 -0.201788
8.39 -0.196318
8.4 -0.189528
8.41 -0.181332
8.42 -0.171652
8.43 -0.160435
8.44 -0.147648
8.45 -0.133217
8.46 -0.117131
8.47 -0.0995558
8.48 -0.080573
8.49 -0.0602859
8.5 -0.0388183
8.51 -0.0163114
8.52 0.0071504
8.53 0.0313134
8.54 0.0559917
8.55 0.0810168
8.56 0.106225
8.57 0.131463
8.58 0.156581
8.59 0.181426
8.6 0.205911
8.61 0.229954
8.62 0.253496
8.63 0.2765
8.64 0.298948
8.65 0.320796
8.66 0.342096
8.67 0.3629
8.68 0.383249
8.69 0.40319
8.7 0.422772
8.71 0.442032
8.72 0.460992
8.73 0.479701
8.74 0.498168
8.75 0.516382
8.76 0.534315
8.77 0.551916
8.78 0.569078
8.79 0.585711
8.8 0.601716
8.81 0.616966
8.82 0.631318
8.83 0.64462
8.84 0.656699
8.85 0.667247
8.86 0.676239
8.87 0.683527
8.88 0.688972
8.89 0.692452
8.9 0.693864
8.91 0.692977
8.92 0.689754
8.93 0.684273
8.94 0.676527
8.95 0.666533
8.96 0.654327
8.97 0.639967
8.98 0.623304
8.99 0.604685
9 0.584221
9.01 0.562035
9.02 0.538255
9.03 0.513012
9.04 0.486378
9.05 0.458494
9.06 0.429572
9.07 0.399734
9.08 0.369098
9.09 0.337777
9.1 0.305875
9.11 0.273449
9.12 0.24065
9.13 0.207573
9.14 0.174304
9.15 0.140932
9.16 0.107547
9.17 0.0742491
9.18 0.0411552
9.19 0.00836328
9.2 -0.0240155
9.21 -0.0558627
9.22 -0.0870533
9.23 -0.117456
9.24 -0.146831
9.25 -0.175091
9.26 -0.202112
9.27 -0.227754
9.28 -0.251877
9.29 -0.27435
9.3 -0.294987
9.31 -0.313561
9.32 -0.330129
9.33 -0.344611
9.34 -0.356945
9.35 -0.367087
9.36 -0.375013
9.37 -0.380531
9.38 -0.383778
9.39 -0.384864
9.4 -0.383843
9.41 -0.380785
9.42 -0.375772
9.43 -0.368861
9.44 -0.360034
9.45 -0.349575
9.46 -0.337593
9.47 -0.324197
9.48 -0.309493
9.49 -0.293583
9.5 -0.276489
9.51 -0.258346
9.52 -0.239281
9.53 -0.219369
9.54 -0.198676
9.55 -0.177264
9.56 -0.155184
9.57 -0.132437
9.58 -0.109144
9.59 -0.0853605
9.6 -0.0611416
9.61 -0.0365481
9.62 -0.0116468
9.63 0.0134981
9.64 0.0387892
9.65 0.0641221
9.66 0.0893959
9.67 0.114502
9.68 0.139325
9.69 0.163743
9.7 0.187556
9.71 0.210686
9.72 0.233007
9.73 0.254397
9.74 0.27474
9.75 0.293928
9.76 0.311793
9.77 0.328221
9.78 0.343229
9.79 0.356764
9.8 0.368794
9.81 0.379298
9.82 0.388277
9.83 0.39559
9.84 0.401409
9.85 0.405801
9.86 0.408822
9.87 0.410539
9.88 0.411022
9.89 0.410306
9.9 0.408441
9.91 0.405594
9.92 0.40184
9.93 0.397249
9.94 0.391888
9.95 0.385814
9.96 0.379022
9.97 0.371606
9.98 0.363614
9.99 0.355077
10 0.346015
10.01 0.336448
10.02 0.326375
10.03 0.315784
10.04 0.304731
10.05 0.29323
10.06 0.281298
10.07 0.268958
10.08 0.256234
10.09 0.243133
10.1 0.229713
10.11 0.21603
10.12 0.202132
10.13 0.188073
10.14 0.173907
10.15 0.159692
10.16 0.145494
10.17 0.131374
10.18 0.117386
10.19 0.103579
10.2 0.0900001
10.21 0.0766871
10.22 0.0636959
10.23 0.0510469
10.24 0.0387422
10.25 0.0267909
10.26 0.0151959
10.27 0.00395434
10.28 -0.00693889
10.29 -0.0174616
10.3 -0.0276649
10.31 -0.0375622
10.32 -0.0471662
10.33 -0.0564873
10.34 -0.065533
10.35 -0.0742905
10.36 -0.0827592
10.37 -0.0909481
10.38 -0.0988471
10.39 -0.106442
10.4 -0.113717
10.41 -0.120654
10.42 -0.127193
10.43 -0.133358
10.44 -0.139137
10.45 -0.144527
10.46 -0.149528
10.47 -0.154153
10.48 -0.158405
10.49 -0.162317
10.5 -0.165957
10.51 -0.169383
10.52 -0.172662
10.53 -0.175871
10.54 -0.179093
10.55 -0.18244
10.56 -0.186006
10.57 -0.189883
10.58 -0.194165
10.59 -0.198935
10.6 -0.204271
10.61 -0.210265
10.62 -0.217002
10.63 -0.22446
10.64 -0.232652
10.65 -0.241571
10.66 -0.251189
10.67 -0.26146
10.68 -0.272363
10.69 -0.283765
10.7 -0.29555
10.71 -0.307602
10.72 -0.319801
10.73 -0.332019
10.74 -0.344122
10.75 -0.355951
10.76 -0.367403
10.77 -0.378371
10.78 -0.388763
10.79 -0.398503
10.8 -0.407536
10.81 -0.415763
10.82 -0.423205
10.83 -0.4299
10.84 -0.435881
10.85 -0.441199
10.86 -0.445921
10.87 -0.450121
10.88 -0.453866
10.89 -0.457305
10.9 -0.460538
10.91 -0.463663
10.92 -0.466771
10.93 -0.469943
10.94 -0.47326
10.95 -0.476775
10.96 -0.480509
10.97 -0.484471
10.98 -0.488647
10.99 -0.493004
11 -0.497489
11.01 -0.502025
11.02 -0.506509
11.03 -0.510836
11.04 -0.514894
11.05 -0.518564
11.06 -0.521727
11.07 -0.524225
11.08 -0.525928
11.09 -0.526777
11.1 -0.526688
11.11 -0.525594
11.12 -0.523446
11.13 -0.520213
11.14 -0.515766
11.15 -0.510235
11.16 -0.503662
11.17 -0.496099
11.18 -0.487613
11.19 -0.478287
11.2 -0.468179
11.21 -0.457385
11.22 -0.446059
11.23 -0.434298
11.24 -0.422197
11.25 -0.409845
11.26 -0.397319
11.27 -0.384678
11.28 -0.371988
11.29 -0.359285
11.3 -0.346585
11.31 -0.333895
11.32 -0.321204
11.33 -0.308487
11.34 -0.295705
11.35 -0.282816
11.36 -0.26977
11.37 -0.256517
11.38 -0.243004
11.39 -0.229182
11.4 -0.214969
11.41 -0.200344
11.42 -0.185289
11.43 -0.169782
11.44 -0.153816
11.45 -0.137391
11.46 -0.120506
11.47 -0.103157
11.48 -0.0854146
11.49 -0.0673164
11.5 -0.0489035
11.51 -0.0302203
11.52 -0.0113123
11.53 0.00778643
11.54 0.0270221
11.55 0.0463511
11.56 0.0657425
11.57 0.0851719
11.58 0.104621
11.59 0.124081
11.6 0.143546
11.61 0.16302
11.62 0.182511
11.63 0.202029
11.64 0.221585
11.65 0.241192
11.66 0.260862
11.67 0.2806
11.68 0.300399
11.69 0.320249
11.7 0.340128
11.71 0.360008
11.72 0.379848
11.73 0.399578
11.74 0.419141
11.75 0.438463
11.76 0.457462
11.77 0.476052
11.78 0.494138
11.79 0.511587
11.8 0.528284
11.81 0.544172
11.82 0.559163
11.83 0.573173
11.84 0.586126
11.85 0.597957
11.86 0.608479
11.87 0.61776
11.88 0.625782
11.89 0.632526
11.9 0.637984
11.91 0.642159
11.92 0.645004
11.93 0.646503
11.94 0.646774
11.95 0.645841
11.96 0.643731
11.97 0.640472
11.98 0.636086
11.99 0.630488
12 0.62378
12.01 0.615992
12.02 0.607128
12.03 0.597183
12.04 0.586153
12.05 0.573988
12.06 0.560616
12.07 0.546116
12.08 0.530475
12.09 0.513686
12.1 0.495746
12.11 0.476662
12.12 0.456354
12.13 0.434919
12.14 0.412438
12.15 0.388971
12.16 0.364593
12.17 0.339398
12.18 0.313479
12.19 0.286932
12.2 0.259962
12.21 0.232716
12.22 0.205354
12.23 0.178038
12.24 0.150937
12.25 0.12426
12.26 0.0981823
