# xPDFsuite Configuration #
[PDF]
wavelength = 0.1
dataformat = QA
inputfile = BiMsol6_insitu_700 C-00634.xy
backgroundfile = Quartz2mm-dist500-00000.xy
mode = xray
bgscale = 0.0042
composition = Bi2Fe4O9
outputtype = gr
qmaxinst = 24.998449118
qmin = 0.1
qmax = 21.4986662415
rmax = 80.0
rmin = 0.0
rstep = 0.01
rpoly = 0.9

[Misc]
inputdir = C:/Data/Seafile/CPH/Beamtime/Desy Oct 20/In situ data/Processed/BiMsol6/PDF
savedir = C:/Data/Seafile/CPH/Beamtime/Desy Oct 20/In situ data/PDF/BiMsol6
backgroundfilefull = C:/Data/Seafile/CPH/Beamtime/Desy Oct 20/In situ data/Processed/Standard_Empty_Cap/Quartz2mm-dist500-00000.xy

#### start data
#S 1
#L r($\AA$)  G($\AA^{-2}$)
0 0
0.01 0.00615933
0.02 0.0119684
0.03 0.0171275
0.04 0.0213678
0.05 0.0244638
0.06 0.0262437
0.07 0.02652
0.08 0.0252386
0.09 0.0225389
0.1 0.0185359
0.11 0.0134072
0.12 0.007386
0.13 0.00074971
0.14 -0.00618912
0.15 -0.0130391
0.16 -0.0194698
0.17 -0.0251717
0.18 -0.0298678
0.19 -0.0333272
0.2 -0.0353135
0.21 -0.0356663
0.22 -0.0344835
0.23 -0.0318325
0.24 -0.0278564
0.25 -0.0227692
0.26 -0.0168483
0.27 -0.0104101
0.28 -0.00390469
0.29 0.00226718
0.3 0.00771701
0.31 0.0120764
0.32 0.0150155
0.33 0.0162009
0.34 0.0153083
0.35 0.0123948
0.36 0.00746438
0.37 0.000622585
0.38 -0.00792211
0.39 -0.0178614
0.4 -0.0288358
0.41 -0.040239
0.42 -0.0514767
0.43 -0.061945
0.44 -0.0710203
0.45 -0.0780829
0.46 -0.0824786
0.47 -0.0833641
0.48 -0.0805661
0.49 -0.0737499
0.5 -0.0627017
0.51 -0.0473418
0.52 -0.0277344
0.53 -0.0038266
0.54 0.0238307
0.55 0.0545182
0.56 0.0875664
0.57 0.122195
0.58 0.157536
0.59 0.192644
0.6 0.226308
0.61 0.257599
0.62 0.285575
0.63 0.309355
0.64 0.328151
0.65 0.341288
0.66 0.347828
0.67 0.347401
0.68 0.3402
0.69 0.326249
0.7 0.305754
0.71 0.279097
0.72 0.246825
0.73 0.209167
0.74 0.1676
0.75 0.123091
0.76 0.0766597
0.77 0.0293629
0.78 -0.0177372
0.79 -0.0634902
0.8 -0.106747
0.81 -0.146737
0.82 -0.182714
0.83 -0.214068
0.84 -0.240342
0.85 -0.261241
0.86 -0.276072
0.87 -0.285404
0.88 -0.289553
0.89 -0.288903
0.9 -0.283966
0.91 -0.275359
0.92 -0.263696
0.93 -0.249761
0.94 -0.234563
0.95 -0.218883
0.96 -0.203469
0.97 -0.189014
0.98 -0.176136
0.99 -0.165589
1 -0.15767
1.01 -0.152588
1.02 -0.150479
1.03 -0.151361
1.04 -0.155133
1.05 -0.161654
1.06 -0.170714
1.07 -0.181683
1.08 -0.194111
1.09 -0.207512
1.1 -0.22139
1.11 -0.235255
1.12 -0.24857
1.13 -0.260891
1.14 -0.271894
1.15 -0.281307
1.16 -0.288941
1.17 -0.294689
1.18 -0.298496
1.19 -0.300285
1.2 -0.300398
1.21 -0.299048
1.22 -0.296497
1.23 -0.293044
1.24 -0.289004
1.25 -0.284703
1.26 -0.280501
1.27 -0.276684
1.28 -0.273488
1.29 -0.271098
1.3 -0.269643
1.31 -0.269195
1.32 -0.269853
1.33 -0.271429
1.34 -0.27379
1.35 -0.276754
1.36 -0.280103
1.37 -0.283591
1.38 -0.286932
1.39 -0.289827
1.4 -0.29204
1.41 -0.293356
1.42 -0.2936
1.43 -0.292643
1.44 -0.290412
1.45 -0.286757
1.46 -0.28188
1.47 -0.275915
1.48 -0.269041
1.49 -0.261486
1.5 -0.253519
1.51 -0.245444
1.52 -0.237621
1.53 -0.230365
1.54 -0.223968
1.55 -0.218694
1.56 -0.214765
1.57 -0.212353
1.58 -0.211737
1.59 -0.212813
1.6 -0.215508
1.61 -0.219708
1.62 -0.225226
1.63 -0.231818
1.64 -0.239198
1.65 -0.246991
1.66 -0.254758
1.67 -0.262108
1.68 -0.268652
1.69 -0.274016
1.7 -0.277857
1.71 -0.279692
1.72 -0.279374
1.73 -0.276795
1.74 -0.271872
1.75 -0.264598
1.76 -0.255044
1.77 -0.243307
1.78 -0.229519
1.79 -0.214166
1.8 -0.197595
1.81 -0.180188
1.82 -0.162349
1.83 -0.144492
1.84 -0.127086
1.85 -0.110546
1.86 -0.0951929
1.87 -0.0813141
1.88 -0.0691372
1.89 -0.0588225
1.9 -0.0504874
1.91 -0.0443111
1.92 -0.040015
1.93 -0.0374544
1.94 -0.0364251
1.95 -0.0366731
1.96 -0.0379056
1.97 -0.0398263
1.98 -0.0420445
1.99 -0.0442061
2 -0.046008
2.01 -0.0471811
2.02 -0.0475013
2.03 -0.0467955
2.04 -0.0448285
2.05 -0.0417005
2.06 -0.037462
2.07 -0.0322322
2.08 -0.0261947
2.09 -0.0195908
2.1 -0.012715
2.11 -0.00595122
2.12 0.000328524
2.13 0.0057586
2.14 0.00997999
2.15 0.0126542
2.16 0.0134765
2.17 0.0119347
2.18 0.00803474
2.19 0.00167544
2.2 -0.00718784
2.21 -0.0185245
2.22 -0.0322286
2.23 -0.0482091
2.24 -0.0662248
2.25 -0.0858003
2.26 -0.106568
2.27 -0.128124
2.28 -0.150045
2.29 -0.171898
2.3 -0.193164
2.31 -0.213438
2.32 -0.232363
2.33 -0.249624
2.34 -0.264959
2.35 -0.278171
2.36 -0.289051
2.37 -0.297432
2.38 -0.303536
2.39 -0.307463
2.4 -0.309375
2.41 -0.309492
2.42 -0.308077
2.43 -0.305351
2.44 -0.301753
2.45 -0.297655
2.46 -0.293391
2.47 -0.289282
2.48 -0.285622
2.49 -0.282693
2.5 -0.280803
2.51 -0.280037
2.52 -0.280497
2.53 -0.282232
2.54 -0.285237
2.55 -0.289457
2.56 -0.294861
2.57 -0.301238
2.58 -0.308357
2.59 -0.316009
2.6 -0.323967
2.61 -0.332001
2.62 -0.339877
2.63 -0.347321
2.64 -0.35416
2.65 -0.360231
2.66 -0.365401
2.67 -0.369572
2.68 -0.372682
2.69 -0.374639
2.7 -0.375476
2.71 -0.375306
2.72 -0.374212
2.73 -0.372302
2.74 -0.369702
2.75 -0.366551
2.76 -0.362965
2.77 -0.359147
2.78 -0.355237
2.79 -0.351359
2.8 -0.347623
2.81 -0.344119
2.82 -0.340935
2.83 -0.338123
2.84 -0.33568
2.85 -0.333602
2.86 -0.331863
2.87 -0.330423
2.88 -0.329226
2.89 -0.328216
2.9 -0.327296
2.91 -0.326387
2.92 -0.325416
2.93 -0.32431
2.94 -0.323006
2.95 -0.321434
2.96 -0.319533
2.97 -0.317286
2.98 -0.314666
2.99 -0.311652
3 -0.30823
3.01 -0.304386
3.02 -0.300064
3.03 -0.295277
3.04 -0.290012
3.05 -0.284235
3.06 -0.277903
3.07 -0.27096
3.08 -0.263314
3.09 -0.25483
3.1 -0.245471
3.11 -0.23513
3.12 -0.223695
3.13 -0.211051
3.14 -0.197082
3.15 -0.181548
3.16 -0.164416
3.17 -0.145652
3.18 -0.125199
3.19 -0.103022
3.2 -0.0791189
3.21 -0.0534847
3.22 -0.0260731
3.23 0.00284314
3.24 0.0331175
3.25 0.0645684
3.26 0.0969813
3.27 0.130112
3.28 0.163703
3.29 0.197406
3.3 0.230898
3.31 0.263864
3.32 0.295993
3.33 0.326977
3.34 0.356507
3.35 0.384113
3.36 0.409715
3.37 0.433105
3.38 0.454108
3.39 0.472589
3.4 0.48845
3.41 0.501466
3.42 0.511644
3.43 0.519159
3.44 0.524077
3.45 0.526491
3.46 0.526525
3.47 0.524321
3.48 0.519821
3.49 0.513453
3.5 0.505404
3.51 0.495855
3.52 0.484989
3.53 0.47298
3.54 0.459952
3.55 0.446069
3.56 0.43153
3.57 0.41646
3.58 0.400969
3.59 0.385154
3.6 0.369101
3.61 0.352876
3.62 0.336569
3.63 0.320244
3.64 0.30396
3.65 0.287778
3.66 0.271759
3.67 0.255981
3.68 0.240537
3.69 0.225488
3.7 0.210918
3.71 0.196921
3.72 0.183592
3.73 0.171035
3.74 0.159447
3.75 0.148885
3.76 0.139432
3.77 0.131189
3.78 0.124251
3.79 0.118703
3.8 0.114666
3.81 0.112299
3.82 0.111517
3.83 0.112351
3.84 0.114814
3.85 0.118904
3.86 0.124602
3.87 0.132001
3.88 0.140968
3.89 0.151382
3.9 0.163167
3.91 0.176233
3.92 0.190485
3.93 0.205837
3.94 0.222243
3.95 0.239484
3.96 0.257444
3.97 0.276004
3.98 0.295045
3.99 0.314448
4 0.334103
4.01 0.353868
4.02 0.373616
4.03 0.393229
4.04 0.41259
4.05 0.431584
4.06 0.450089
4.07 0.467916
4.08 0.485005
4.09 0.501245
4.1 0.516525
4.11 0.530738
4.12 0.543781
4.13 0.555475
4.14 0.565721
4.15 0.574512
4.16 0.581779
4.17 0.587462
4.18 0.591516
4.19 0.593908
4.2 0.594429
4.21 0.593261
4.22 0.590423
4.23 0.585944
4.24 0.579863
4.25 0.572232
4.26 0.563045
4.27 0.552356
4.28 0.540343
4.29 0.527087
4.3 0.51267
4.31 0.497172
4.32 0.480671
4.33 0.46315
4.34 0.444763
4.35 0.425578
4.36 0.405642
4.37 0.384995
4.38 0.363666
4.39 0.341653
4.4 0.318951
4.41 0.295622
4.42 0.271678
4.43 0.24713
4.44 0.221994
4.45 0.196291
4.46 0.170006
4.47 0.143221
4.48 0.116006
4.49 0.0884311
4.5 0.0605806
4.51 0.0325539
4.52 0.00446659
4.53 -0.0235326
4.54 -0.0512997
4.55 -0.0786865
4.56 -0.10554
4.57 -0.131706
4.58 -0.157031
4.59 -0.18128
4.6 -0.204342
4.61 -0.226135
4.62 -0.246559
4.63 -0.265534
4.64 -0.283003
4.65 -0.29891
4.66 -0.31312
4.67 -0.325814
4.68 -0.337046
4.69 -0.346891
4.7 -0.355446
4.71 -0.362824
4.72 -0.369095
4.73 -0.37444
4.74 -0.379058
4.75 -0.383096
4.76 -0.386699
4.77 -0.390004
4.78 -0.393136
4.79 -0.396209
4.8 -0.399327
4.81 -0.402558
4.82 -0.405947
4.83 -0.409517
4.84 -0.413273
4.85 -0.417203
4.86 -0.421265
4.87 -0.425394
4.88 -0.429522
4.89 -0.433575
4.9 -0.437473
4.91 -0.441133
4.92 -0.444433
4.93 -0.447326
4.94 -0.449752
4.95 -0.451658
4.96 -0.453005
4.97 -0.453769
4.98 -0.45391
4.99 -0.453419
5 -0.452358
5.01 -0.450755
5.02 -0.448649
5.03 -0.446086
5.04 -0.443112
5.05 -0.439746
5.06 -0.43607
5.07 -0.432129
5.08 -0.427957
5.09 -0.42358
5.1 -0.419011
5.11 -0.414247
5.12 -0.409269
5.13 -0.404071
5.14 -0.398626
5.15 -0.392897
5.16 -0.386844
5.17 -0.380425
5.18 -0.373561
5.19 -0.366235
5.2 -0.358431
5.21 -0.350134
5.22 -0.341339
5.23 -0.332056
5.24 -0.322302
5.25 -0.312099
5.26 -0.301552
5.27 -0.290742
5.28 -0.279762
5.29 -0.268716
5.3 -0.257718
5.31 -0.246911
5.32 -0.236425
5.33 -0.226372
5.34 -0.216865
5.35 -0.208005
5.36 -0.199881
5.37 -0.192575
5.38 -0.186224
5.39 -0.180769
5.4 -0.176214
5.41 -0.172542
5.42 -0.169717
5.43 -0.16768
5.44 -0.166397
5.45 -0.165754
5.46 -0.165611
5.47 -0.165859
5.48 -0.166386
5.49 -0.167082
5.5 -0.167841
5.51 -0.168552
5.52 -0.169129
5.53 -0.169507
5.54 -0.169634
5.55 -0.169479
5.56 -0.169026
5.57 -0.168261
5.58 -0.167203
5.59 -0.165902
5.6 -0.164402
5.61 -0.16275
5.62 -0.160995
5.63 -0.159187
5.64 -0.15737
5.65 -0.155582
5.66 -0.153841
5.67 -0.152149
5.68 -0.150492
5.69 -0.148836
5.7 -0.147125
5.71 -0.145273
5.72 -0.143194
5.73 -0.140785
5.74 -0.137932
5.75 -0.134515
5.76 -0.130413
5.77 -0.125419
5.78 -0.119474
5.79 -0.112499
5.8 -0.104421
5.81 -0.0951836
5.82 -0.0847601
5.83 -0.0731112
5.84 -0.0602146
5.85 -0.0462367
5.86 -0.0312733
5.87 -0.0154474
5.88 0.0010936
5.89 0.0181813
5.9 0.0356448
5.91 0.0532421
5.92 0.0707605
5.93 0.0879991
5.94 0.104765
5.95 0.120877
5.96 0.136153
5.97 0.150369
5.98 0.163501
5.99 0.175473
6 0.186245
6.01 0.195806
6.02 0.204176
6.03 0.21133
6.04 0.217397
6.05 0.222534
6.06 0.226866
6.07 0.230531
6.08 0.233676
6.09 0.236443
6.1 0.238968
6.11 0.241415
6.12 0.243895
6.13 0.246497
6.14 0.249287
6.15 0.252302
6.16 0.255567
6.17 0.259051
6.18 0.262688
6.19 0.266396
6.2 0.270073
6.21 0.273595
6.22 0.276827
6.23 0.279553
6.24 0.281659
6.25 0.282998
6.26 0.283429
6.27 0.282828
6.28 0.281086
6.29 0.278047
6.3 0.27363
6.31 0.267887
6.32 0.260819
6.33 0.252456
6.34 0.242855
6.35 0.232097
6.36 0.220189
6.37 0.207371
6.38 0.193797
6.39 0.179615
6.4 0.164983
6.41 0.150054
6.42 0.134978
6.43 0.11991
6.44 0.104982
6.45 0.0902972
6.46 0.0759374
6.47 0.0619644
6.48 0.0484166
6.49 0.0353518
6.5 0.0227285
6.51 0.0105068
6.52 -0.00135933
6.53 -0.0129296
6.54 -0.0242731
6.55 -0.0354631
6.56 -0.0465828
6.57 -0.0577183
6.58 -0.0689367
6.59 -0.0802953
6.6 -0.0918384
6.61 -0.103595
6.62 -0.115597
6.63 -0.127823
6.64 -0.140238
6.65 -0.152795
6.66 -0.165432
6.67 -0.178074
6.68 -0.190627
6.69 -0.202966
6.7 -0.214994
6.71 -0.226603
6.72 -0.237682
6.73 -0.248127
6.74 -0.257837
6.75 -0.266656
6.76 -0.274514
6.77 -0.281383
6.78 -0.28721
6.79 -0.291953
6.8 -0.295586
6.81 -0.298083
6.82 -0.299329
6.83 -0.299455
6.84 -0.298475
6.85 -0.296412
6.86 -0.293291
6.87 -0.289137
6.88 -0.283918
6.89 -0.277667
6.9 -0.270458
6.91 -0.262306
6.92 -0.253222
6.93 -0.243208
6.94 -0.232262
6.95 -0.22027
6.96 -0.207323
6.97 -0.193409
6.98 -0.178513
6.99 -0.16262
7 -0.145719
7.01 -0.127749
7.02 -0.108695
7.03 -0.0886317
7.04 -0.0675777
7.05 -0.0455614
7.06 -0.0226228
7.07 0.00118645
7.08 0.0258781
7.09 0.0512948
7.1 0.0773362
7.11 0.103904
7.12 0.13089
7.13 0.158181
7.14 0.185658
7.15 0.213184
7.16 0.24062
7.17 0.267842
7.18 0.294726
7.19 0.321153
7.2 0.347009
7.21 0.372114
7.22 0.396399
7.23 0.419791
7.24 0.442203
7.25 0.463558
7.26 0.483787
7.27 0.502792
7.28 0.520432
7.29 0.536766
7.3 0.551747
7.31 0.565337
7.32 0.577496
7.33 0.58819
7.34 0.597262
7.35 0.604745
7.36 0.610663
7.37 0.614987
7.38 0.617692
7.39 0.618753
7.4 0.618118
7.41 0.615627
7.42 0.611432
7.43 0.605524
7.44 0.597898
7.45 0.588559
7.46 0.577517
7.47 0.564675
7.48 0.550106
7.49 0.533931
7.5 0.516201
7.51 0.49698
7.52 0.476342
7.53 0.454364
7.54 0.431027
7.55 0.406585
7.56 0.381158
7.57 0.354876
7.58 0.327875
7.59 0.3003
7.6 0.272287
7.61 0.244014
7.62 0.215666
7.63 0.187403
7.64 0.159387
7.65 0.131776
7.66 0.104728
7.67 0.0784905
7.68 0.0531448
7.69 0.0288223
7.7 0.00564781
7.71 -0.0162652
7.72 -0.0368161
7.73 -0.0558453
7.74 -0.0732405
7.75 -0.0890522
7.76 -0.103247
7.77 -0.115807
7.78 -0.126735
7.79 -0.13605
7.8 -0.143633
7.81 -0.149679
7.82 -0.154286
7.83 -0.157539
7.84 -0.159536
7.85 -0.160384
7.86 -0.160167
7.87 -0.158984
7.88 -0.157041
7.89 -0.154464
7.9 -0.151373
7.91 -0.147885
7.92 -0.144111
7.93 -0.140139
7.94 -0.136077
7.95 -0.132001
7.96 -0.127964
7.97 -0.124008
7.98 -0.120155
7.99 -0.116419
8 -0.112798
8.01 -0.109261
8.02 -0.105773
8.03 -0.102295
8.04 -0.0987782
8.05 -0.095172
8.06 -0.0914098
8.07 -0.0874417
8.08 -0.0832309
8.09 -0.0787428
8.1 -0.0739536
8.11 -0.0688516
8.12 -0.0634344
8.13 -0.0576966
8.14 -0.0517055
8.15 -0.0455109
8.16 -0.0391762
8.17 -0.0327761
8.18 -0.0263954
8.19 -0.02014
8.2 -0.0141185
8.21 -0.00842139
8.22 -0.00314223
8.23 0.00163189
8.24 0.00582357
8.25 0.00936557
8.26 0.0121275
8.27 0.0141572
8.28 0.0154463
8.29 0.0160067
8.3 0.0158699
8.31 0.0150865
8.32 0.0136976
8.33 0.0118008
8.34 0.00953116
8.35 0.00699829
8.36 0.00431735
8.37 0.00160494
8.38 -0.00102476
8.39 -0.00343243
8.4 -0.00553293
8.41 -0.00724876
8.42 -0.00851865
8.43 -0.00930137
8.44 -0.00957742
8.45 -0.00932846
8.46 -0.00857521
8.47 -0.00740804
8.48 -0.00590159
8.49 -0.00414838
8.5 -0.00225589
8.51 -0.000343088
8.52 0.00144011
8.53 0.00295788
8.54 0.00408492
8.55 0.00470031
8.56 0.00469377
8.57 0.00396934
8.58 0.00241918
8.59 -6.16001e-05
8.6 -0.00343589
8.61 -0.00771034
8.62 -0.0128683
8.63 -0.0188705
8.64 -0.0256567
8.65 -0.0332006
8.66 -0.0413525
8.67 -0.0499809
8.68 -0.0589679
8.69 -0.0681917
8.7 -0.077531
8.71 -0.0868665
8.72 -0.0960692
8.73 -0.105048
8.74 -0.113727
8.75 -0.122043
8.76 -0.129957
8.77 -0.137446
8.78 -0.144475
8.79 -0.151079
8.8 -0.15731
8.81 -0.163219
8.82 -0.168864
8.83 -0.174312
8.84 -0.179632
8.85 -0.184898
8.86 -0.190187
8.87 -0.195554
8.88 -0.201047
8.89 -0.206697
8.9 -0.212522
8.91 -0.218531
8.92 -0.224701
8.93 -0.230986
8.94 -0.23733
8.95 -0.243669
8.96 -0.249922
8.97 -0.256005
8.98 -0.261783
8.99 -0.267185
9 -0.272123
9.01 -0.276514
9.02 -0.280284
9.03 -0.283373
9.04 -0.285697
9.05 -0.287221
9.06 -0.287986
9.07 -0.288011
9.08 -0.287328
9.09 -0.285991
9.1 -0.284068
9.11 -0.281596
9.12 -0.278728
9.13 -0.275568
9.14 -0.272222
9.15 -0.268789
9.16 -0.265369
9.17 -0.262058
9.18 -0.258948
9.19 -0.256091
9.2 -0.253531
9.21 -0.251291
9.22 -0.24938
9.23 -0.247787
9.24 -0.246507
9.25 -0.245467
9.26 -0.2446
9.27 -0.243836
9.28 -0.243097
9.29 -0.242305
9.3 -0.241372
9.31 -0.2402
9.32 -0.238737
9.33 -0.236927
9.34 -0.234727
9.35 -0.232112
9.36 -0.229071
9.37 -0.225578
9.38 -0.221685
9.39 -0.217448
9.4 -0.212926
9.41 -0.208188
9.42 -0.203313
9.43 -0.198383
9.44 -0.193499
9.45 -0.188746
9.46 -0.1842
9.47 -0.179927
9.48 -0.17598
9.49 -0.172397
9.5 -0.169226
9.51 -0.166453
9.52 -0.164036
9.53 -0.16193
9.54 -0.160072
9.55 -0.158381
9.56 -0.156759
9.57 -0.15508
9.58 -0.153218
9.59 -0.151047
9.6 -0.148442
9.61 -0.145281
9.62 -0.141447
9.63 -0.13678
9.64 -0.13118
9.65 -0.124621
9.66 -0.117048
9.67 -0.108429
9.68 -0.0987501
9.69 -0.0880206
9.7 -0.0761558
9.71 -0.063327
9.72 -0.0496042
9.73 -0.0350697
9.74 -0.019817
9.75 -0.00394769
9.76 0.0124516
9.77 0.0292611
9.78 0.0463417
9.79 0.0635907
9.8 0.0809123
9.81 0.0982198
9.82 0.115436
9.83 0.132474
9.84 0.149291
9.85 0.165848
9.86 0.182119
9.87 0.198083
9.88 0.21373
9.89 0.229042
9.9 0.244007
9.91 0.258654
9.92 0.272984
9.93 0.286997
9.94 0.300691
9.95 0.314056
9.96 0.327046
9.97 0.339659
9.98 0.351873
9.99 0.363654
10 0.37496
10.01 0.385744
10.02 0.395941
10.03 0.405455
10.04 0.414289
10.05 0.422396
10.06 0.429734
10.07 0.436269
10.08 0.441973
10.09 0.44676
10.1 0.450664
10.11 0.453725
10.12 0.455962
10.13 0.457409
10.14 0.458107
10.15 0.458101
10.16 0.45741
10.17 0.456173
10.18 0.454467
10.19 0.452372
10.2 0.449967
10.21 0.447331
10.22 0.444535
10.23 0.441663
10.24 0.438783
10.25 0.43595
10.26 0.433207
10.27 0.430591
10.28 0.428126
10.29 0.425845
10.3 0.423733
10.31 0.421782
10.32 0.419977
10.33 0.418296
10.34 0.416712
10.35 0.415191
10.36 0.413691
10.37 0.41217
10.38 0.410587
10.39 0.4089
10.4 0.407069
10.41 0.405054
10.42 0.402787
10.43 0.400252
10.44 0.397413
10.45 0.394235
10.46 0.390683
10.47 0.386724
10.48 0.382298
10.49 0.377358
10.5 0.371896
10.51 0.365878
10.52 0.359266
10.53 0.352024
10.54 0.344115
10.55 0.33543
10.56 0.325994
10.57 0.315789
10.58 0.304793
10.59 0.292989
10.6 0.280368
10.61 0.2669
10.62 0.252563
10.63 0.237447
10.64 0.221588
10.65 0.205033
10.66 0.187842
10.67 0.170085
10.68 0.15181
10.69 0.13315
10.7 0.114218
10.71 0.0951192
10.72 0.0759623
10.73 0.0568555
10.74 0.0379121
10.75 0.0192626
10.76 0.000982265
10.77 -0.0168481
10.78 -0.0341606
10.79 -0.0509013
10.8 -0.0670325
10.81 -0.0824819
10.82 -0.0972744
10.83 -0.11145
10.84 -0.125043
10.85 -0.138098
10.86 -0.150676
10.87 -0.16284
10.88 -0.174651
10.89 -0.18623
10.9 -0.197661
10.91 -0.209025
10.92 -0.220396
10.93 -0.231843
10.94 -0.243433
10.95 -0.255211
10.96 -0.267195
10.97 -0.279394
10.98 -0.291798
10.99 -0.304384
11 -0.31711
11.01 -0.329922
11.02 -0.342733
11.03 -0.355461
11.04 -0.368014
11.05 -0.380299
11.06 -0.392217
11.07 -0.403639
11.08 -0.414458
11.09 -0.424615
11.1 -0.434037
11.11 -0.442657
11.12 -0.450423
11.13 -0.457297
11.14 -0.463151
11.15 -0.468069
11.16 -0.472064
11.17 -0.475153
11.18 -0.477362
11.19 -0.478729
11.2 -0.47926
11.21 -0.47899
11.22 -0.478024
11.23 -0.476407
11.24 -0.474184
11.25 -0.471391
11.26 -0.468062
11.27 -0.46417
11.28 -0.459772
11.29 -0.454882
11.3 -0.449494
11.31 -0.443597
11.32 -0.437171
11.33 -0.430173
11.34 -0.422542
11.35 -0.414296
11.36 -0.405407
11.37 -0.39585
11.38 -0.385607
11.39 -0.374664
11.4 -0.362959
11.41 -0.350541
11.42 -0.337451
11.43 -0.323723
11.44 -0.3094
11.45 -0.294537
11.46 -0.279188
11.47 -0.263412
11.48 -0.247333
11.49 -0.23104
11.5 -0.214622
11.51 -0.198171
11.52 -0.181776
11.53 -0.165539
11.54 -0.149546
11.55 -0.133861
11.56 -0.118544
11.57 -0.103647
11.58 -0.0892104
11.59 -0.0752698
11.6 -0.0618911
11.61 -0.0490285
11.62 -0.0366786
11.63 -0.0248301
11.64 -0.0134657
11.65 -0.00256317
11.66 0.00787551
11.67 0.0178871
11.68 0.0275191
11.69 0.0367944
11.7 0.0457323
11.71 0.0543475
11.72 0.0626485
11.73 0.0706036
11.74 0.0782445
11.75 0.0855619
11.76 0.0925416
11.77 0.0991653
11.78 0.105412
11.79 0.111236
11.8 0.116608
11.81 0.121533
11.82 0.125991
11.83 0.129968
11.84 0.133455
11.85 0.136448
11.86 0.138895
11.87 0.140858
11.88 0.142354
11.89 0.143405
11.9 0.144037
11.91 0.144277
11.92 0.144142
11.93 0.143659
11.94 0.142881
11.95 0.141835
11.96 0.140543
11.97 0.139021
11.98 0.137276
11.99 0.135289
12 0.133064
12.01 0.130586
12.02 0.127829
12.03 0.124755
12.04 0.121321
12.05 0.117462
12.06 0.113093
12.07 0.108192
12.08 0.102702
12.09 0.096568
12.1 0.0897384
12.11 0.0821681
12.12 0.0737504
12.13 0.0644986
12.14 0.0544236
12.15 0.0435243
12.16 0.0318128
