# xPDFsuite Configuration #
[PDF]
wavelength = 0.1
dataformat = QA
inputfile = BiMsol6_insitu_700 C-00116.xy
backgroundfile = Quartz2mm-dist500-00000.xy
mode = xray
bgscale = 0.0042
composition = Bi2Fe4O9
outputtype = gr
qmaxinst = 24.998449118
qmin = 0.1
qmax = 21.4986662415
rmax = 80.0
rmin = 0.0
rstep = 0.01
rpoly = 0.9

[Misc]
inputdir = C:/Data/Seafile/CPH/Beamtime/Desy Oct 20/In situ data/Processed/BiMsol6/PDF
savedir = C:/Data/Seafile/CPH/Beamtime/Desy Oct 20/In situ data/PDF/BiMsol6
backgroundfilefull = C:/Data/Seafile/CPH/Beamtime/Desy Oct 20/In situ data/Processed/Standard_Empty_Cap/Quartz2mm-dist500-00000.xy

#### start data
#S 1
#L r($\AA$)  G($\AA^{-2}$)
0 0
0.01 0.00634675
0.02 0.0123369
0.03 0.0176652
0.04 0.022058
0.05 0.0252853
0.06 0.0271722
0.07 0.027527
0.08 0.0262943
0.09 0.0236154
0.1 0.0196067
0.11 0.0144486
0.12 0.00837775
0.13 0.00167618
0.14 -0.0053388
0.15 -0.0122683
0.16 -0.0187759
0.17 -0.0245459
0.18 -0.0292954
0.19 -0.0327886
0.2 -0.0347829
0.21 -0.0351135
0.22 -0.0338778
0.23 -0.0311423
0.24 -0.0270503
0.25 -0.0218178
0.26 -0.0157246
0.27 -0.00908963
0.28 -0.0023704
0.29 0.00402607
0.3 0.00970483
0.31 0.0142909
0.32 0.0174478
0.33 0.0188352
0.34 0.0181214
0.35 0.0153604
0.36 0.0105526
0.37 0.00380155
0.38 -0.00468518
0.39 -0.0145986
0.4 -0.0255795
0.41 -0.037016
0.42 -0.0483079
0.43 -0.0588455
0.44 -0.0679988
0.45 -0.0751414
0.46 -0.0796116
0.47 -0.0805583
0.48 -0.0778027
0.49 -0.0710059
0.5 -0.0599505
0.51 -0.0445553
0.52 -0.0248848
0.53 -0.000886266
0.54 0.0268836
0.55 0.0576977
0.56 0.0908788
0.57 0.125637
0.58 0.161093
0.59 0.196289
0.6 0.229998
0.61 0.261281
0.62 0.289186
0.63 0.312823
0.64 0.331393
0.65 0.344219
0.66 0.350352
0.67 0.349423
0.68 0.341633
0.69 0.327014
0.7 0.305782
0.71 0.278331
0.72 0.245224
0.73 0.206708
0.74 0.164283
0.75 0.118938
0.76 0.0717136
0.77 0.0236877
0.78 -0.0240577
0.79 -0.0703484
0.8 -0.114016
0.81 -0.154286
0.82 -0.190403
0.83 -0.221755
0.84 -0.247885
0.85 -0.268503
0.86 -0.282913
0.87 -0.291711
0.88 -0.29523
0.89 -0.293877
0.9 -0.288184
0.91 -0.278792
0.92 -0.266339
0.93 -0.251634
0.94 -0.235708
0.95 -0.219358
0.96 -0.203348
0.97 -0.188379
0.98 -0.175075
0.99 -0.164196
1 -0.156028
1.01 -0.150765
1.02 -0.148527
1.03 -0.149311
1.04 -0.152991
1.05 -0.1594
1.06 -0.168293
1.07 -0.179014
1.08 -0.191085
1.09 -0.203999
1.1 -0.217238
1.11 -0.230299
1.12 -0.24262
1.13 -0.253764
1.14 -0.263422
1.15 -0.271337
1.16 -0.277342
1.17 -0.281359
1.18 -0.283371
1.19 -0.283346
1.2 -0.28168
1.21 -0.278636
1.22 -0.274528
1.23 -0.269703
1.24 -0.264525
1.25 -0.259386
1.26 -0.254679
1.27 -0.250703
1.28 -0.247712
1.29 -0.245897
1.3 -0.245382
1.31 -0.246224
1.32 -0.248525
1.33 -0.252014
1.34 -0.256507
1.35 -0.261763
1.36 -0.267496
1.37 -0.273386
1.38 -0.279068
1.39 -0.284154
1.4 -0.288341
1.41 -0.29135
1.42 -0.292944
1.43 -0.292949
1.44 -0.291254
1.45 -0.287634
1.46 -0.282335
1.47 -0.2755
1.48 -0.267336
1.49 -0.258113
1.5 -0.248152
1.51 -0.237815
1.52 -0.227549
1.53 -0.217771
1.54 -0.208865
1.55 -0.201187
1.56 -0.195049
1.57 -0.190711
1.58 -0.188572
1.59 -0.188573
1.6 -0.190687
1.61 -0.194834
1.62 -0.200849
1.63 -0.208489
1.64 -0.217469
1.65 -0.227394
1.66 -0.237728
1.67 -0.248008
1.68 -0.25776
1.69 -0.266516
1.7 -0.273831
1.71 -0.279102
1.72 -0.282063
1.73 -0.282503
1.74 -0.280242
1.75 -0.275186
1.76 -0.267331
1.77 -0.2567
1.78 -0.243337
1.79 -0.227767
1.8 -0.210336
1.81 -0.191449
1.82 -0.17155
1.83 -0.151111
1.84 -0.130645
1.85 -0.110687
1.86 -0.0916721
1.87 -0.0739952
1.88 -0.0579916
1.89 -0.0439292
1.9 -0.0320328
1.91 -0.0226122
1.92 -0.0154492
1.93 -0.0104658
1.94 -0.00750821
1.95 -0.0063546
1.96 -0.00672569
1.97 -0.00835337
1.98 -0.0108059
1.99 -0.0136549
2 -0.0165341
2.01 -0.0190971
2.02 -0.0210321
2.03 -0.02207
2.04 -0.0218664
2.05 -0.0204077
2.06 -0.0176465
2.07 -0.0136105
2.08 -0.00840144
2.09 -0.00219087
2.1 0.0048122
2.11 0.0122683
2.12 0.0197922
2.13 0.0270171
2.14 0.0335652
2.15 0.0390622
2.16 0.0431521
2.17 0.0452908
2.18 0.0453594
2.19 0.0431669
2.2 0.0385762
2.21 0.0315239
2.22 0.0220228
2.23 0.0100628
2.24 -0.00421433
2.25 -0.0203902
2.26 -0.038155
2.27 -0.0571505
2.28 -0.0769821
2.29 -0.0972319
2.3 -0.117429
2.31 -0.137107
2.32 -0.155871
2.33 -0.17336
2.34 -0.189258
2.35 -0.203307
2.36 -0.215235
2.37 -0.224799
2.38 -0.232135
2.39 -0.237274
2.4 -0.240314
2.41 -0.241416
2.42 -0.240794
2.43 -0.238605
2.44 -0.23527
2.45 -0.23115
2.46 -0.226574
2.47 -0.221868
2.48 -0.21734
2.49 -0.213291
2.5 -0.210046
2.51 -0.207753
2.52 -0.206555
2.53 -0.206545
2.54 -0.207762
2.55 -0.210193
2.56 -0.213853
2.57 -0.218574
2.58 -0.224151
2.59 -0.2304
2.6 -0.237115
2.61 -0.244077
2.62 -0.251062
2.63 -0.257813
2.64 -0.264133
2.65 -0.269849
2.66 -0.274813
2.67 -0.278913
2.68 -0.282069
2.69 -0.284174
2.7 -0.28524
2.71 -0.285356
2.72 -0.284588
2.73 -0.283029
2.74 -0.280791
2.75 -0.277999
2.76 -0.274755
2.77 -0.271255
2.78 -0.267626
2.79 -0.263984
2.8 -0.260428
2.81 -0.257035
2.82 -0.253876
2.83 -0.250984
2.84 -0.248345
2.85 -0.245934
2.86 -0.243705
2.87 -0.241597
2.88 -0.23953
2.89 -0.237404
2.9 -0.235119
2.91 -0.232586
2.92 -0.22972
2.93 -0.226444
2.94 -0.222698
2.95 -0.218416
2.96 -0.213553
2.97 -0.208152
2.98 -0.202231
2.99 -0.195833
3 -0.189013
3.01 -0.181846
3.02 -0.174395
3.03 -0.166782
3.04 -0.159104
3.05 -0.151451
3.06 -0.143903
3.07 -0.13653
3.08 -0.129398
3.09 -0.12256
3.1 -0.116009
3.11 -0.109736
3.12 -0.10371
3.13 -0.0978839
3.14 -0.0921882
3.15 -0.0865353
3.16 -0.0808126
3.17 -0.0749126
3.18 -0.0687257
3.19 -0.0621431
3.2 -0.0550618
3.21 -0.0473737
3.22 -0.0389391
3.23 -0.0297574
3.24 -0.0197887
3.25 -0.00901391
3.26 0.00256464
3.27 0.0149234
3.28 0.0280685
3.29 0.0419041
3.3 0.0563174
3.31 0.0712156
3.32 0.0864982
3.33 0.102061
3.34 0.1178
3.35 0.13361
3.36 0.149384
3.37 0.165044
3.38 0.180523
3.39 0.195773
3.4 0.210759
3.41 0.225447
3.42 0.239839
3.43 0.253969
3.44 0.267864
3.45 0.28156
3.46 0.295099
3.47 0.308526
3.48 0.321877
3.49 0.335197
3.5 0.348511
3.51 0.361829
3.52 0.375144
3.53 0.388434
3.54 0.401651
3.55 0.414721
3.56 0.427567
3.57 0.440087
3.58 0.45217
3.59 0.46369
3.6 0.474516
3.61 0.48441
3.62 0.4933
3.63 0.501068
3.64 0.507595
3.65 0.512778
3.66 0.51653
3.67 0.518721
3.68 0.51925
3.69 0.51822
3.7 0.515644
3.71 0.511559
3.72 0.506027
3.73 0.499133
3.74 0.490872
3.75 0.48147
3.76 0.471092
3.77 0.459882
3.78 0.447988
3.79 0.435559
3.8 0.42273
3.81 0.409643
3.82 0.396453
3.83 0.383268
3.84 0.370183
3.85 0.357274
3.86 0.344601
3.87 0.332232
3.88 0.320178
3.89 0.308435
3.9 0.296997
3.91 0.285845
3.92 0.274953
3.93 0.264291
3.94 0.253835
3.95 0.243527
3.96 0.233332
3.97 0.223221
3.98 0.213169
3.99 0.203159
4 0.193183
4.01 0.183239
4.02 0.173332
4.03 0.163477
4.04 0.153692
4.05 0.143999
4.06 0.134427
4.07 0.125019
4.08 0.115788
4.09 0.106756
4.1 0.0979421
4.11 0.0893604
4.12 0.0810192
4.13 0.072935
4.14 0.0651014
4.15 0.0574934
4.16 0.0500948
4.17 0.0428858
4.18 0.0358436
4.19 0.0289447
4.2 0.0221768
4.21 0.0155042
4.22 0.00890976
4.23 0.00238181
4.24 -0.0040851
4.25 -0.0104897
4.26 -0.0168191
4.27 -0.0230526
4.28 -0.0291708
4.29 -0.0351437
4.3 -0.0409365
4.31 -0.0465114
4.32 -0.0518292
4.33 -0.0568169
4.34 -0.0614606
4.35 -0.065734
4.36 -0.0696127
4.37 -0.0730806
4.38 -0.0761305
4.39 -0.0787503
4.4 -0.080941
4.41 -0.0827626
4.42 -0.0842525
4.43 -0.0854575
4.44 -0.0864319
4.45 -0.0872362
4.46 -0.0879315
4.47 -0.0885989
4.48 -0.089306
4.49 -0.0901144
4.5 -0.0910793
4.51 -0.0922482
4.52 -0.0936658
4.53 -0.0953765
4.54 -0.0973679
4.55 -0.0996361
4.56 -0.102164
4.57 -0.104923
4.58 -0.107871
4.59 -0.110961
4.6 -0.114119
4.61 -0.117272
4.62 -0.120349
4.63 -0.123277
4.64 -0.125987
4.65 -0.128409
4.66 -0.130448
4.67 -0.132088
4.68 -0.133294
4.69 -0.134044
4.7 -0.134329
4.71 -0.134153
4.72 -0.133505
4.73 -0.132433
4.74 -0.131002
4.75 -0.129269
4.76 -0.127296
4.77 -0.12515
4.78 -0.122905
4.79 -0.120636
4.8 -0.118426
4.81 -0.116338
4.82 -0.114433
4.83 -0.112763
4.84 -0.11137
4.85 -0.110306
4.86 -0.109597
4.87 -0.109231
4.88 -0.109207
4.89 -0.109516
4.9 -0.110138
4.91 -0.111048
4.92 -0.112239
4.93 -0.113646
4.94 -0.115232
4.95 -0.116958
4.96 -0.11879
4.97 -0.120694
4.98 -0.122643
4.99 -0.124609
5 -0.126571
5.01 -0.128515
5.02 -0.130432
5.03 -0.132315
5.04 -0.134164
5.05 -0.135976
5.06 -0.137754
5.07 -0.139501
5.08 -0.141218
5.09 -0.142903
5.1 -0.144552
5.11 -0.146155
5.12 -0.147695
5.13 -0.149161
5.14 -0.150533
5.15 -0.151787
5.16 -0.152901
5.17 -0.153848
5.18 -0.154585
5.19 -0.155097
5.2 -0.155369
5.21 -0.155388
5.22 -0.155143
5.23 -0.154631
5.24 -0.153851
5.25 -0.1528
5.26 -0.151524
5.27 -0.150053
5.28 -0.148421
5.29 -0.146669
5.3 -0.144842
5.31 -0.142989
5.32 -0.141164
5.33 -0.139413
5.34 -0.137778
5.35 -0.136293
5.36 -0.134985
5.37 -0.133876
5.38 -0.13299
5.39 -0.1323
5.4 -0.131788
5.41 -0.131425
5.42 -0.13117
5.43 -0.130974
5.44 -0.130776
5.45 -0.130504
5.46 -0.130093
5.47 -0.129477
5.48 -0.128593
5.49 -0.127385
5.5 -0.125801
5.51 -0.123755
5.52 -0.121268
5.53 -0.118333
5.54 -0.114956
5.55 -0.111162
5.56 -0.106989
5.57 -0.102476
5.58 -0.0976982
5.59 -0.0927552
5.6 -0.0877335
5.61 -0.0827244
5.62 -0.0778201
5.63 -0.0731105
5.64 -0.0687185
5.65 -0.0646969
5.66 -0.0611023
5.67 -0.0579786
5.68 -0.055352
5.69 -0.05323
5.7 -0.0516209
5.71 -0.0504989
5.72 -0.0497733
5.73 -0.0493719
5.74 -0.0492087
5.75 -0.0491861
5.76 -0.0491986
5.77 -0.0491183
5.78 -0.0488295
5.79 -0.04823
5.8 -0.0472249
5.81 -0.0457326
5.82 -0.043687
5.83 -0.0410205
5.84 -0.0376746
5.85 -0.0337028
5.86 -0.0291305
5.87 -0.0240049
5.88 -0.0183944
5.89 -0.0123857
5.9 -0.00606612
5.91 0.000417378
5.92 0.00693166
5.93 0.0133499
5.94 0.0195474
5.95 0.0254059
5.96 0.0308062
5.97 0.0356072
5.98 0.0397849
5.99 0.0432935
6 0.0461108
6.01 0.0482395
6.02 0.0497074
6.03 0.0505267
6.04 0.0508057
6.05 0.0506693
6.06 0.0502326
6.07 0.0496226
6.08 0.0489732
6.09 0.0484235
6.1 0.0481452
6.11 0.0482488
6.12 0.0488446
6.13 0.0500259
6.14 0.0518649
6.15 0.0544106
6.16 0.0577329
6.17 0.0618163
6.18 0.0665849
6.19 0.0719764
6.2 0.0779054
6.21 0.0842655
6.22 0.0909333
6.23 0.0977754
6.24 0.104612
6.25 0.111295
6.26 0.117677
6.27 0.123619
6.28 0.128994
6.29 0.13365
6.3 0.137474
6.31 0.140449
6.32 0.142536
6.33 0.143721
6.34 0.144018
6.35 0.143463
6.36 0.142043
6.37 0.139925
6.38 0.137221
6.39 0.134049
6.4 0.130532
6.41 0.1268
6.42 0.122986
6.43 0.119233
6.44 0.11566
6.45 0.112368
6.46 0.109444
6.47 0.106954
6.48 0.104946
6.49 0.103496
6.5 0.102569
6.51 0.102133
6.52 0.102149
6.53 0.102561
6.54 0.1033
6.55 0.104288
6.56 0.105433
6.57 0.10662
6.58 0.107756
6.59 0.10875
6.6 0.109519
6.61 0.109989
6.62 0.110061
6.63 0.109701
6.64 0.108892
6.65 0.107619
6.66 0.105883
6.67 0.1037
6.68 0.101093
6.69 0.098081
6.7 0.0947597
6.71 0.0911915
6.72 0.0874438
6.73 0.0835866
6.74 0.07969
6.75 0.0758285
6.76 0.0720725
6.77 0.0684753
6.78 0.0650836
6.79 0.061935
6.8 0.059057
6.81 0.0564698
6.82 0.0542104
6.83 0.052243
6.84 0.0505551
6.85 0.0491271
6.86 0.0479338
6.87 0.0469456
6.88 0.0461385
6.89 0.0454725
6.9 0.044905
6.91 0.0444041
6.92 0.0439408
6.93 0.0434891
6.94 0.0430272
6.95 0.0425322
6.96 0.0419929
6.97 0.0414003
6.98 0.0407484
6.99 0.0400339
7 0.0392552
7.01 0.0384082
7.02 0.0374912
7.03 0.036507
7.04 0.0354526
7.05 0.0343231
7.06 0.0331112
7.07 0.0318075
7.08 0.030388
7.09 0.0288465
7.1 0.0271691
7.11 0.0253401
7.12 0.0233442
7.13 0.0211674
7.14 0.0187905
7.15 0.0161973
7.16 0.0134008
7.17 0.0104047
7.18 0.00721869
7.19 0.00385923
7.2 0.000349739
7.21 -0.00328707
7.22 -0.00700074
7.23 -0.0107439
7.24 -0.0144674
7.25 -0.018118
7.26 -0.0216402
7.27 -0.0249707
7.28 -0.0280319
7.29 -0.0307885
7.3 -0.0331924
7.31 -0.0352014
7.32 -0.0367807
7.33 -0.0379041
7.34 -0.0385161
7.35 -0.0386327
7.36 -0.0382784
7.37 -0.0374715
7.38 -0.0362409
7.39 -0.0346253
7.4 -0.032668
7.41 -0.0304094
7.42 -0.0279462
7.43 -0.0253467
7.44 -0.022682
7.45 -0.0200242
7.46 -0.0174447
7.47 -0.015027
7.48 -0.0128405
7.49 -0.0109345
7.5 -0.00935805
7.51 -0.00815179
7.52 -0.00734687
7.53 -0.00696707
7.54 -0.00706909
7.55 -0.00760346
7.56 -0.00855826
7.57 -0.00991226
7.58 -0.0116358
7.59 -0.0136915
7.6 -0.0160499
7.61 -0.0186535
7.62 -0.0214326
7.63 -0.0243315
7.64 -0.0272941
7.65 -0.0302647
7.66 -0.0331896
7.67 -0.0360018
7.68 -0.0386615
7.69 -0.0411291
7.7 -0.0433703
7.71 -0.0453574
7.72 -0.0470698
7.73 -0.0484797
7.74 -0.0495744
7.75 -0.0503769
7.76 -0.0508965
7.77 -0.0511493
7.78 -0.051157
7.79 -0.0509466
7.8 -0.0505343
7.81 -0.0499754
7.82 -0.0493113
7.83 -0.0485817
7.84 -0.0478268
7.85 -0.0470863
7.86 -0.0464013
7.87 -0.0458155
7.88 -0.0453545
7.89 -0.0450438
7.9 -0.0449033
7.91 -0.0449467
7.92 -0.0451807
7.93 -0.045621
7.94 -0.0462456
7.95 -0.0470317
7.96 -0.0479547
7.97 -0.0489831
7.98 -0.0500795
7.99 -0.0512009
8 -0.0522926
8.01 -0.0533032
8.02 -0.054182
8.03 -0.0548789
8.04 -0.0553461
8.05 -0.05554
8.06 -0.055395
8.07 -0.05489
8.08 -0.054017
8.09 -0.052766
8.1 -0.0511377
8.11 -0.0491445
8.12 -0.0468058
8.13 -0.0441363
8.14 -0.0412198
8.15 -0.0381159
8.16 -0.0348925
8.17 -0.0316245
8.18 -0.0283916
8.19 -0.0252901
8.2 -0.0224123
8.21 -0.0198312
8.22 -0.0176204
8.23 -0.0158455
8.24 -0.0145618
8.25 -0.0138141
8.26 -0.0136944
8.27 -0.0141496
8.28 -0.0151713
8.29 -0.0167342
8.3 -0.0187961
8.31 -0.0212991
8.32 -0.024186
8.33 -0.0273575
8.34 -0.0306934
8.35 -0.0340881
8.36 -0.0374322
8.37 -0.0406153
8.38 -0.0435296
8.39 -0.0460226
8.4 -0.0480323
8.41 -0.0494846
8.42 -0.050318
8.43 -0.0504885
8.44 -0.0499704
8.45 -0.0487271
8.46 -0.04676
8.47 -0.0441576
8.48 -0.040977
8.49 -0.0372914
8.5 -0.0331879
8.51 -0.0287645
8.52 -0.0241175
8.53 -0.0193869
8.54 -0.0146872
8.55 -0.0101255
8.56 -0.0058013
8.57 -0.00180377
8.58 0.00177521
8.59 0.00484696
8.6 0.00740819
8.61 0.00943996
8.62 0.0109424
8.63 0.0119342
8.64 0.0124517
8.65 0.0125163
8.66 0.0122285
8.67 0.0116801
8.68 0.0109572
8.69 0.0101496
8.7 0.009347
8.71 0.00863967
8.72 0.00812831
8.73 0.00786919
8.74 0.00791551
8.75 0.00830539
8.76 0.00906057
8.77 0.0101857
8.78 0.0116931
8.79 0.0135345
8.8 0.0156471
8.81 0.01797
8.82 0.0204322
8.83 0.0229553
8.84 0.0254556
8.85 0.0278302
8.86 0.030004
8.87 0.031905
8.88 0.0334708
8.89 0.0346514
8.9 0.0354112
8.91 0.0357017
8.92 0.0355279
8.93 0.0349313
8.94 0.0339467
8.95 0.0326234
8.96 0.0310238
8.97 0.0292203
8.98 0.0272892
8.99 0.0253374
9 0.0234502
9.01 0.0217094
9.02 0.0201903
9.03 0.0189584
9.04 0.0180875
9.05 0.0176233
9.06 0.0175619
9.07 0.0179041
9.08 0.0186335
9.09 0.0197171
9.1 0.0211066
9.11 0.0227584
9.12 0.0245668
9.13 0.0264468
9.14 0.028312
9.15 0.0300755
9.16 0.0316534
9.17 0.0329542
9.18 0.0338917
9.19 0.0344353
9.2 0.0345491
9.21 0.0342143
9.22 0.0334298
9.23 0.0322127
9.24 0.0305643
9.25 0.0285737
9.26 0.0263184
9.27 0.0238783
9.28 0.0213417
9.29 0.0188015
9.3 0.0163577
9.31 0.0141234
9.32 0.0121723
9.33 0.0105768
9.34 0.00939585
9.35 0.0086727
9.36 0.00843287
9.37 0.00872363
9.38 0.00950194
9.39 0.0107157
9.4 0.0123112
9.41 0.0142196
9.42 0.0163592
9.43 0.0186392
9.44 0.0209519
9.45 0.0231852
9.46 0.0252413
9.47 0.0270285
9.48 0.0284649
9.49 0.0294813
9.5 0.0299867
9.51 0.0299578
9.52 0.0294043
9.53 0.0283352
9.54 0.0267787
9.55 0.024782
9.56 0.022406
9.57 0.0197109
9.58 0.0168282
9.59 0.0138573
9.6 0.010901
9.61 0.00806105
9.62 0.00543511
9.63 0.00313645
9.64 0.00124979
9.65 -0.000183713
9.66 -0.00112319
9.67 -0.00154685
9.68 -0.00145275
9.69 -0.000858849
9.7 0.000244808
9.71 0.00174228
9.72 0.00355872
9.73 0.0056082
9.74 0.00779637
9.75 0.0100241
9.76 0.0121829
9.77 0.0141598
9.78 0.0158724
9.79 0.0172445
9.8 0.0182143
9.81 0.0187369
9.82 0.0187857
9.83 0.0183052
9.84 0.0173578
9.85 0.0159875
9.86 0.0142499
9.87 0.0122165
9.88 0.00997126
9.89 0.00760791
9.9 0.00524064
9.91 0.00297943
9.92 0.000923635
9.93 -0.00083413
9.94 -0.00221151
9.95 -0.00313962
9.96 -0.00351567
9.97 -0.00333986
9.98 -0.00261536
9.99 -0.00135375
10 0.000413274
10.01 0.00263493
10.02 0.00525174
10.03 0.00818545
10.04 0.0113055
10.05 0.0145068
10.06 0.0176803
10.07 0.0207175
10.08 0.0235137
10.09 0.025937
10.1 0.0279092
10.11 0.0293755
10.12 0.0302865
10.13 0.0306114
10.14 0.0303395
10.15 0.0294699
10.16 0.0279927
10.17 0.0260178
10.18 0.0236134
10.19 0.0208609
10.2 0.0178518
10.21 0.0146848
10.22 0.0114655
10.23 0.00831111
10.24 0.00531971
10.25 0.00257952
10.26 0.000167745
10.27 -0.00185184
10.28 -0.00342747
10.29 -0.00447703
10.3 -0.00504058
10.31 -0.00512601
10.32 -0.00475773
10.33 -0.00397533
10.34 -0.00283165
10.35 -0.00137728
10.36 0.000302588
10.37 0.00211307
10.38 0.00397418
10.39 0.00580741
10.4 0.00753852
10.41 0.00910009
10.42 0.0104026
10.43 0.0114211
10.44 0.0121249
10.45 0.0124952
10.46 0.0125264
10.47 0.0122256
10.48 0.0115978
10.49 0.0106728
10.5 0.00951151
10.51 0.00816013
10.52 0.00666845
10.53 0.00508783
10.54 0.00346887
10.55 0.00186474
10.56 0.000321015
10.57 -0.00112804
10.58 -0.00245589
10.59 -0.0036446
10.6 -0.0046852
10.61 -0.00557219
10.62 -0.00630997
10.63 -0.0069273
10.64 -0.00744675
10.65 -0.00789478
10.66 -0.00829998
10.67 -0.00869127
10.68 -0.00909952
10.69 -0.00955002
10.7 -0.01006
10.71 -0.0106408
10.72 -0.0112964
10.73 -0.012023
10.74 -0.0128101
10.75 -0.0136377
10.76 -0.0144731
10.77 -0.0152835
10.78 -0.0160322
10.79 -0.0166807
10.8 -0.0171902
10.81 -0.0175072
10.82 -0.0176027
10.83 -0.0174583
10.84 -0.0170564
10.85 -0.0163891
10.86 -0.0154583
10.87 -0.0142733
10.88 -0.0128427
10.89 -0.0112288
10.9 -0.00947815
10.91 -0.00764523
10.92 -0.005791
10.93 -0.00398066
10.94 -0.00229378
10.95 -0.00080398
10.96 0.000432382
10.97 0.00135941
10.98 0.0019298
10.99 0.00210694
11 0.0018646
11.01 0.00114646
11.02 8.07222e-06
11.03 -0.00152762
11.04 -0.00342324
11.05 -0.00562788
11.06 -0.00807853
11.07 -0.0107069
11.08 -0.0134183
11.09 -0.0161156
11.1 -0.0187095
11.11 -0.0211122
11.12 -0.0232401
11.13 -0.0250167
11.14 -0.0263229
11.15 -0.0271448
11.16 -0.0274487
11.17 -0.0272139
11.18 -0.0264363
11.19 -0.0251283
11.2 -0.0232975
11.21 -0.0209859
11.22 -0.01829
11.23 -0.0152828
11.24 -0.0120461
11.25 -0.00866798
11.26 -0.0052396
11.27 -0.00186567
11.28 0.00135949
11.29 0.00435562
11.3 0.00705045
11.31 0.00938278
11.32 0.0113043
11.33 0.0127642
11.34 0.0137214
11.35 0.0142127
11.36 0.0142532
11.37 0.0138714
11.38 0.0131085
11.39 0.012016
11.4 0.0106362
11.41 0.00906009
11.42 0.00736529
11.43 0.00562196
11.44 0.0038979
11.45 0.00225617
11.46 0.000757633
11.47 -0.000532408
11.48 -0.00159326
11.49 -0.00240169
11.5 -0.00294612
11.51 -0.00322658
11.52 -0.00325419
11.53 -0.00303482
11.54 -0.00261282
11.55 -0.00203652
11.56 -0.00135004
11.57 -0.000600388
11.58 0.000164643
11.59 0.000897453
11.6 0.00154307
11.61 0.00206893
11.62 0.00244511
11.63 0.00264962
11.64 0.00266912
11.65 0.00249926
11.66 0.00213343
11.67 0.00159098
11.68 0.000904365
11.69 0.000103089
11.7 -0.000778337
11.71 -0.00170195
11.72 -0.0026279
11.73 -0.00350763
11.74 -0.00430439
11.75 -0.00498446
11.76 -0.00551917
11.77 -0.005886
11.78 -0.00606943
11.79 -0.00605092
11.8 -0.00583012
11.81 -0.00542842
11.82 -0.00486227
