# xPDFsuite Configuration #
[PDF]
wavelength = 0.1
dataformat = QA
inputfile = BiMsol6_insitu_700 C-00686.xy
backgroundfile = Quartz2mm-dist500-00000.xy
mode = xray
bgscale = 0.0042
composition = Bi2Fe4O9
outputtype = gr
qmaxinst = 24.998449118
qmin = 0.1
qmax = 21.4986662415
rmax = 80.0
rmin = 0.0
rstep = 0.01
rpoly = 0.9

[Misc]
inputdir = C:/Data/Seafile/CPH/Beamtime/Desy Oct 20/In situ data/Processed/BiMsol6/PDF
savedir = C:/Data/Seafile/CPH/Beamtime/Desy Oct 20/In situ data/PDF/BiMsol6
backgroundfilefull = C:/Data/Seafile/CPH/Beamtime/Desy Oct 20/In situ data/Processed/Standard_Empty_Cap/Quartz2mm-dist500-00000.xy

#### start data
#S 1
#L r($\AA$)  G($\AA^{-2}$)
0 0
0.01 0.00559212
0.02 0.0108604
0.03 0.0155277
0.04 0.019346
0.05 0.0221076
0.06 0.0236551
0.07 0.0238171
0.08 0.0225466
0.09 0.019975
0.1 0.0162118
0.11 0.0114247
0.12 0.0058325
0.13 -0.000305177
0.14 -0.0066939
0.15 -0.0129724
0.16 -0.0188351
0.17 -0.0239965
0.18 -0.0282026
0.19 -0.0312436
0.2 -0.0329056
0.21 -0.0330481
0.22 -0.0317711
0.23 -0.0291463
0.24 -0.0253165
0.25 -0.0204904
0.26 -0.0149351
0.27 -0.00895962
0.28 -0.00298661
0.29 0.00260723
0.3 0.00745723
0.31 0.01122
0.32 0.0135906
0.33 0.014262
0.34 0.0129387
0.35 0.0096915
0.36 0.00453886
0.37 -0.00240345
0.38 -0.0109216
0.39 -0.0207067
0.4 -0.0313949
0.41 -0.0423975
0.42 -0.0531398
0.43 -0.063037
0.44 -0.071488
0.45 -0.0778977
0.46 -0.0816381
0.47 -0.0818975
0.48 -0.0785273
0.49 -0.0712159
0.5 -0.0597696
0.51 -0.0441251
0.52 -0.0243586
0.53 -0.000434133
0.54 0.0270999
0.55 0.0575348
0.56 0.0902113
0.57 0.124364
0.58 0.159143
0.59 0.193626
0.6 0.226626
0.61 0.257249
0.62 0.284579
0.63 0.307763
0.64 0.326038
0.65 0.338752
0.66 0.344993
0.67 0.344408
0.68 0.337191
0.69 0.323368
0.7 0.303143
0.71 0.276889
0.72 0.245139
0.73 0.208113
0.74 0.167249
0.75 0.123488
0.76 0.0778178
0.77 0.0312661
0.78 -0.0151368
0.79 -0.0602765
0.8 -0.103038
0.81 -0.142669
0.82 -0.178442
0.83 -0.209765
0.84 -0.236188
0.85 -0.257421
0.86 -0.272786
0.87 -0.282825
0.88 -0.287834
0.89 -0.288178
0.9 -0.28434
0.91 -0.276909
0.92 -0.266466
0.93 -0.253754
0.94 -0.239744
0.95 -0.22518
0.96 -0.210777
0.97 -0.197199
0.98 -0.185034
0.99 -0.174993
1 -0.16737
1.01 -0.162366
1.02 -0.160113
1.03 -0.16063
1.04 -0.163824
1.05 -0.169562
1.06 -0.177648
1.07 -0.187492
1.08 -0.198672
1.09 -0.210737
1.1 -0.223223
1.11 -0.235676
1.12 -0.247598
1.13 -0.258583
1.14 -0.268338
1.15 -0.276624
1.16 -0.283274
1.17 -0.288203
1.18 -0.291379
1.19 -0.292751
1.2 -0.292651
1.21 -0.291291
1.22 -0.288928
1.23 -0.28585
1.24 -0.28236
1.25 -0.278775
1.26 -0.275424
1.27 -0.272561
1.28 -0.270396
1.29 -0.269087
1.3 -0.268731
1.31 -0.269373
1.32 -0.271077
1.33 -0.273631
1.34 -0.276878
1.35 -0.280618
1.36 -0.284614
1.37 -0.288606
1.38 -0.292291
1.39 -0.295361
1.4 -0.29759
1.41 -0.298766
1.42 -0.298719
1.43 -0.297332
1.44 -0.294545
1.45 -0.290213
1.46 -0.284572
1.47 -0.277776
1.48 -0.270027
1.49 -0.261577
1.5 -0.252716
1.51 -0.243774
1.52 -0.235137
1.53 -0.227138
1.54 -0.220087
1.55 -0.214264
1.56 -0.209904
1.57 -0.207189
1.58 -0.206419
1.59 -0.207483
1.6 -0.210306
1.61 -0.214766
1.62 -0.220673
1.63 -0.227772
1.64 -0.235767
1.65 -0.244269
1.66 -0.252815
1.67 -0.260994
1.68 -0.268398
1.69 -0.274632
1.7 -0.279335
1.71 -0.281998
1.72 -0.282458
1.73 -0.280592
1.74 -0.276301
1.75 -0.269569
1.76 -0.260457
1.77 -0.249054
1.78 -0.23548
1.79 -0.220234
1.8 -0.203664
1.81 -0.186157
1.82 -0.168128
1.83 -0.149998
1.84 -0.132243
1.85 -0.115294
1.86 -0.099488
1.87 -0.0851243
1.88 -0.0724424
1.89 -0.0616134
1.9 -0.0527645
1.91 -0.0460842
1.92 -0.0412993
1.93 -0.0382689
1.94 -0.0367904
1.95 -0.0366096
1.96 -0.0374319
1.97 -0.0389581
1.98 -0.0407923
1.99 -0.0425741
2 -0.0439949
2.01 -0.0447801
2.02 -0.0447012
2.03 -0.0435813
2.04 -0.0411814
2.05 -0.0376037
2.06 -0.0329011
2.07 -0.0271975
2.08 -0.0206833
2.09 -0.0136088
2.1 -0.00628117
2.11 0.000900639
2.12 0.00755163
2.13 0.0132913
2.14 0.0177458
2.15 0.0205621
2.16 0.0214224
2.17 0.0197888
2.18 0.0156697
2.19 0.00895896
2.2 -0.000390239
2.21 -0.0123459
2.22 -0.026797
2.23 -0.0436481
2.24 -0.0626452
2.25 -0.0832873
2.26 -0.105186
2.27 -0.127915
2.28 -0.151024
2.29 -0.174055
2.3 -0.196456
2.31 -0.217794
2.32 -0.23769
2.33 -0.255803
2.34 -0.271854
2.35 -0.285627
2.36 -0.296896
2.37 -0.305477
2.38 -0.311603
2.39 -0.315376
2.4 -0.316968
2.41 -0.316608
2.42 -0.314576
2.43 -0.311103
2.44 -0.306661
2.45 -0.301649
2.46 -0.296427
2.47 -0.291341
2.48 -0.286711
2.49 -0.282844
2.5 -0.280075
2.51 -0.278503
2.52 -0.278245
2.53 -0.279363
2.54 -0.281858
2.55 -0.285676
2.56 -0.290797
2.57 -0.297
2.58 -0.304043
2.59 -0.311705
2.6 -0.31975
2.61 -0.327934
2.62 -0.336013
2.63 -0.343699
2.64 -0.350806
2.65 -0.35716
2.66 -0.36262
2.67 -0.367083
2.68 -0.370486
2.69 -0.372735
2.7 -0.373867
2.71 -0.373998
2.72 -0.373219
2.73 -0.371644
2.74 -0.369407
2.75 -0.366655
2.76 -0.363514
2.77 -0.36019
2.78 -0.356821
2.79 -0.353533
2.8 -0.35043
2.81 -0.347596
2.82 -0.345108
2.83 -0.343001
2.84 -0.341252
2.85 -0.339838
2.86 -0.33871
2.87 -0.337805
2.88 -0.337043
2.89 -0.336332
2.9 -0.335565
2.91 -0.334647
2.92 -0.333493
2.93 -0.332024
2.94 -0.330175
2.95 -0.327872
2.96 -0.325062
2.97 -0.32176
2.98 -0.317963
2.99 -0.313682
3 -0.308935
3.01 -0.303748
3.02 -0.298111
3.03 -0.292085
3.04 -0.285695
3.05 -0.278949
3.06 -0.271839
3.07 -0.264342
3.08 -0.256399
3.09 -0.247908
3.1 -0.238819
3.11 -0.229025
3.12 -0.218403
3.13 -0.206819
3.14 -0.19413
3.15 -0.180072
3.16 -0.164553
3.17 -0.147484
3.18 -0.128754
3.19 -0.108275
3.2 -0.0859877
3.21 -0.0618292
3.22 -0.0356827
3.23 -0.00779112
3.24 0.0217357
3.25 0.0527445
3.26 0.0850399
3.27 0.118387
3.28 0.152548
3.29 0.187151
3.3 0.221833
3.31 0.256244
3.32 0.290029
3.33 0.322834
3.34 0.354293
3.35 0.383876
3.36 0.411434
3.37 0.4367
3.38 0.459444
3.39 0.479479
3.4 0.496666
3.41 0.510722
3.42 0.521629
3.43 0.529563
3.44 0.534584
3.45 0.536794
3.46 0.536331
3.47 0.533364
3.48 0.527846
3.49 0.52028
3.5 0.510898
3.51 0.499933
3.52 0.48762
3.53 0.474183
3.54 0.459801
3.55 0.444691
3.56 0.429083
3.57 0.413132
3.58 0.396969
3.59 0.380704
3.6 0.364426
3.61 0.348217
3.62 0.332129
3.63 0.316199
3.64 0.300455
3.65 0.284922
3.66 0.269622
3.67 0.25459
3.68 0.239871
3.69 0.225484
3.7 0.211476
3.71 0.197907
3.72 0.18485
3.73 0.172386
3.74 0.160682
3.75 0.149808
3.76 0.139855
3.77 0.13094
3.78 0.123176
3.79 0.116676
3.8 0.111591
3.81 0.108114
3.82 0.106208
3.83 0.105938
3.84 0.107355
3.85 0.11049
3.86 0.115353
3.87 0.122074
3.88 0.130534
3.89 0.140617
3.9 0.152249
3.91 0.165338
3.92 0.179779
3.93 0.195472
3.94 0.212359
3.95 0.23018
3.96 0.248793
3.97 0.268049
3.98 0.287801
3.99 0.307905
4 0.328222
4.01 0.34859
4.02 0.368868
4.03 0.388932
4.04 0.408663
4.05 0.427948
4.06 0.446677
4.07 0.464671
4.08 0.481899
4.09 0.498274
4.1 0.513709
4.11 0.528126
4.12 0.541448
4.13 0.553527
4.14 0.564287
4.15 0.573731
4.16 0.581799
4.17 0.588437
4.18 0.593593
4.19 0.597226
4.2 0.599119
4.21 0.599412
4.22 0.598095
4.23 0.595158
4.24 0.590603
4.25 0.58444
4.26 0.576613
4.27 0.567127
4.28 0.556132
4.29 0.543674
4.3 0.529811
4.31 0.514602
4.32 0.498115
4.33 0.480303
4.34 0.461351
4.35 0.441351
4.36 0.420375
4.37 0.398496
4.38 0.375784
4.39 0.352282
4.4 0.328035
4.41 0.303168
4.42 0.277741
4.43 0.251815
4.44 0.225452
4.45 0.198711
4.46 0.171632
4.47 0.144309
4.48 0.116817
4.49 0.089231
4.5 0.0616276
4.51 0.0340896
4.52 0.00671135
4.53 -0.0203863
4.54 -0.0471212
4.55 -0.0733933
4.56 -0.0991008
4.57 -0.124142
4.58 -0.148417
4.59 -0.171754
4.6 -0.194089
4.61 -0.215375
4.62 -0.235541
4.63 -0.254531
4.64 -0.272302
4.65 -0.288803
4.66 -0.303914
4.67 -0.317769
4.68 -0.330391
4.69 -0.341817
4.7 -0.352098
4.71 -0.361301
4.72 -0.369435
4.73 -0.37662
4.74 -0.382993
4.75 -0.38865
4.76 -0.393684
4.77 -0.398187
4.78 -0.402245
4.79 -0.405908
4.8 -0.409294
4.81 -0.412462
4.82 -0.41546
4.83 -0.418323
4.84 -0.421077
4.85 -0.423729
4.86 -0.426281
4.87 -0.428729
4.88 -0.431058
4.89 -0.433247
4.9 -0.43527
4.91 -0.437103
4.92 -0.438691
4.93 -0.440031
4.94 -0.441107
4.95 -0.441902
4.96 -0.442408
4.97 -0.442622
4.98 -0.442532
4.99 -0.442142
5 -0.441484
5.01 -0.440575
5.02 -0.439431
5.03 -0.438068
5.04 -0.4365
5.05 -0.43472
5.06 -0.432745
5.07 -0.430577
5.08 -0.428202
5.09 -0.4256
5.1 -0.422742
5.11 -0.419576
5.12 -0.416036
5.13 -0.412094
5.14 -0.407693
5.15 -0.402776
5.16 -0.397288
5.17 -0.391177
5.18 -0.384336
5.19 -0.376769
5.2 -0.368477
5.21 -0.359458
5.22 -0.349728
5.23 -0.339321
5.24 -0.328279
5.25 -0.316649
5.26 -0.304588
5.27 -0.29221
5.28 -0.279645
5.29 -0.267037
5.3 -0.254537
5.31 -0.242334
5.32 -0.230596
5.33 -0.219463
5.34 -0.209077
5.35 -0.199567
5.36 -0.191044
5.37 -0.183614
5.38 -0.177452
5.39 -0.172478
5.4 -0.168699
5.41 -0.166094
5.42 -0.164613
5.43 -0.164184
5.44 -0.164764
5.45 -0.166202
5.46 -0.168311
5.47 -0.170945
5.48 -0.173946
5.49 -0.17716
5.5 -0.180432
5.51 -0.18359
5.52 -0.186498
5.53 -0.189044
5.54 -0.191131
5.55 -0.192683
5.56 -0.193649
5.57 -0.193962
5.58 -0.193612
5.59 -0.192654
5.6 -0.191122
5.61 -0.189066
5.62 -0.186543
5.63 -0.18362
5.64 -0.180338
5.65 -0.176802
5.66 -0.173076
5.67 -0.169209
5.68 -0.165237
5.69 -0.161181
5.7 -0.157039
5.71 -0.152791
5.72 -0.148403
5.73 -0.143821
5.74 -0.138976
5.75 -0.133787
5.76 -0.128164
5.77 -0.12195
5.78 -0.115081
5.79 -0.107478
5.8 -0.0990617
5.81 -0.0897655
5.82 -0.0795412
5.83 -0.0683295
5.84 -0.0560805
5.85 -0.0429032
5.86 -0.0288522
5.87 -0.0140076
5.88 0.0015261
5.89 0.0176223
5.9 0.0341572
5.91 0.0509251
5.92 0.0677408
5.93 0.0844272
5.94 0.100809
5.95 0.116716
5.96 0.131974
5.97 0.146369
5.98 0.159851
5.99 0.17233
6 0.183745
6.01 0.194063
6.02 0.203281
6.03 0.211348
6.04 0.218364
6.05 0.224456
6.06 0.229728
6.07 0.234297
6.08 0.238291
6.09 0.241841
6.1 0.245066
6.11 0.248132
6.12 0.251151
6.13 0.254215
6.14 0.257397
6.15 0.260743
6.16 0.264284
6.17 0.268005
6.18 0.271851
6.19 0.27575
6.2 0.279607
6.21 0.283305
6.22 0.286709
6.23 0.289601
6.24 0.291862
6.25 0.293337
6.26 0.293874
6.27 0.293332
6.28 0.291588
6.29 0.288464
6.3 0.283857
6.31 0.277808
6.32 0.270304
6.33 0.261364
6.34 0.251035
6.35 0.239397
6.36 0.226441
6.37 0.212428
6.38 0.197528
6.39 0.181909
6.4 0.165748
6.41 0.149228
6.42 0.13253
6.43 0.115847
6.44 0.0993496
6.45 0.0831749
6.46 0.0674409
6.47 0.0522409
6.48 0.0376424
6.49 0.0237484
6.5 0.0105229
6.51 -0.00206742
6.52 -0.0140647
6.53 -0.0255314
6.54 -0.0365467
6.55 -0.0471949
6.56 -0.057576
6.57 -0.0678237
6.58 -0.0780397
6.59 -0.0883188
6.6 -0.0987449
6.61 -0.109388
6.62 -0.120325
6.63 -0.131575
6.64 -0.143134
6.65 -0.154984
6.66 -0.167088
6.67 -0.179384
6.68 -0.191796
6.69 -0.204215
6.7 -0.21652
6.71 -0.22859
6.72 -0.240297
6.73 -0.251515
6.74 -0.262115
6.75 -0.271913
6.76 -0.280803
6.77 -0.288718
6.78 -0.295573
6.79 -0.301298
6.8 -0.305838
6.81 -0.309145
6.82 -0.311068
6.83 -0.311738
6.84 -0.311164
6.85 -0.309365
6.86 -0.30637
6.87 -0.302212
6.88 -0.296863
6.89 -0.290375
6.9 -0.282847
6.91 -0.274313
6.92 -0.264801
6.93 -0.254335
6.94 -0.242927
6.95 -0.23048
6.96 -0.217095
6.97 -0.202769
6.98 -0.187489
6.99 -0.171238
7 -0.154
7.01 -0.135708
7.02 -0.116332
7.03 -0.0959323
7.04 -0.0745128
7.05 -0.0520863
7.06 -0.0286775
7.07 -0.00432438
7.08 0.0210064
7.09 0.0471587
7.1 0.0740358
7.11 0.101539
7.12 0.129558
7.13 0.157971
7.14 0.186649
7.15 0.21544
7.16 0.244179
7.17 0.272721
7.18 0.300919
7.19 0.328631
7.2 0.355719
7.21 0.381973
7.22 0.407308
7.23 0.431635
7.24 0.454859
7.25 0.476895
7.26 0.497668
7.27 0.51708
7.28 0.534992
7.29 0.551483
7.3 0.566526
7.31 0.580097
7.32 0.592179
7.33 0.602761
7.34 0.611706
7.35 0.619072
7.36 0.624904
7.37 0.62919
7.38 0.631915
7.39 0.633065
7.4 0.632593
7.41 0.630344
7.42 0.626457
7.43 0.620912
7.44 0.613691
7.45 0.60478
7.46 0.59417
7.47 0.581739
7.48 0.567537
7.49 0.551664
7.5 0.534152
7.51 0.51505
7.52 0.494416
7.53 0.472322
7.54 0.448728
7.55 0.423907
7.56 0.397985
7.57 0.371104
7.58 0.343418
7.59 0.31509
7.6 0.286278
7.61 0.257191
7.62 0.228039
7.63 0.199008
7.64 0.170283
7.65 0.142041
7.66 0.114456
7.67 0.0878
7.68 0.0621477
7.69 0.0376286
7.7 0.0143603
7.71 -0.00755701
7.72 -0.0280408
7.73 -0.0469536
7.74 -0.0642136
7.75 -0.0799042
7.76 -0.0940222
7.77 -0.106582
7.78 -0.117612
7.79 -0.127159
7.8 -0.135141
7.81 -0.141758
7.82 -0.147111
7.83 -0.151286
7.84 -0.154373
7.85 -0.156465
7.86 -0.157627
7.87 -0.157926
7.88 -0.157523
7.89 -0.156501
7.9 -0.154936
7.91 -0.1529
7.92 -0.150454
7.93 -0.147627
7.94 -0.144491
7.95 -0.14109
7.96 -0.137452
7.97 -0.133598
7.98 -0.12954
7.99 -0.125282
8 -0.120813
8.01 -0.116151
8.02 -0.11129
8.03 -0.106228
8.04 -0.100962
8.05 -0.0954888
8.06 -0.0897954
8.07 -0.0838971
8.08 -0.0778142
8.09 -0.0715649
8.1 -0.0651735
8.11 -0.0586712
8.12 -0.0520951
8.13 -0.0454926
8.14 -0.0389211
8.15 -0.0324361
8.16 -0.0260964
8.17 -0.019963
8.18 -0.0140977
8.19 -0.00858797
8.2 -0.00349454
8.21 0.00114622
8.22 0.00528733
8.23 0.00888943
8.24 0.0119222
8.25 0.0143633
8.26 0.016138
8.27 0.0173194
8.28 0.0179255
8.29 0.0179859
8.3 0.0175416
8.31 0.0166441
8.32 0.0153361
8.33 0.0136964
8.34 0.0118239
8.35 0.00979758
8.36 0.00769727
8.37 0.00560159
8.38 0.00358541
8.39 0.00174043
8.4 0.000116201
8.41 -0.00124149
8.42 -0.00229813
8.43 -0.00303296
8.44 -0.0034399
8.45 -0.00351474
8.46 -0.0032798
8.47 -0.0028008
8.48 -0.00213424
8.49 -0.00134858
8.5 -0.000522477
8.51 0.000257487
8.52 0.000876136
8.53 0.00123885
8.54 0.00125413
8.55 0.00083138
8.56 -0.000113629
8.57 -0.00165617
8.58 -0.00388477
8.59 -0.00688985
8.6 -0.0106473
8.61 -0.0151726
8.62 -0.0204645
8.63 -0.0265051
8.64 -0.0332605
8.65 -0.040734
8.66 -0.0488147
8.67 -0.0574057
8.68 -0.0664206
8.69 -0.0757672
8.7 -0.0853493
8.71 -0.0950708
8.72 -0.104828
8.73 -0.11452
8.74 -0.124066
8.75 -0.133394
8.76 -0.142443
8.77 -0.151164
8.78 -0.159493
8.79 -0.167419
8.8 -0.174951
8.81 -0.182096
8.82 -0.18887
8.83 -0.1953
8.84 -0.201416
8.85 -0.207235
8.86 -0.212833
8.87 -0.218249
8.88 -0.223525
8.89 -0.228694
8.9 -0.233787
8.91 -0.23882
8.92 -0.243808
8.93 -0.248752
8.94 -0.253644
8.95 -0.258463
8.96 -0.26318
8.97 -0.267759
8.98 -0.272129
8.99 -0.276259
9 -0.280097
9.01 -0.283591
9.02 -0.286691
9.03 -0.289352
9.04 -0.291506
9.05 -0.293112
9.06 -0.294181
9.07 -0.294702
9.08 -0.294678
9.09 -0.294119
9.1 -0.293051
9.11 -0.291459
9.12 -0.28944
9.13 -0.28705
9.14 -0.284349
9.15 -0.281398
9.16 -0.278262
9.17 -0.274999
9.18 -0.271678
9.19 -0.26836
9.2 -0.265092
9.21 -0.261913
9.22 -0.258851
9.23 -0.255926
9.24 -0.253159
9.25 -0.250536
9.26 -0.248039
9.27 -0.245645
9.28 -0.243325
9.29 -0.241043
9.3 -0.23876
9.31 -0.236426
9.32 -0.234003
9.33 -0.231456
9.34 -0.228753
9.35 -0.225869
9.36 -0.222789
9.37 -0.219488
9.38 -0.215979
9.39 -0.212285
9.4 -0.208428
9.41 -0.20444
9.42 -0.200361
9.43 -0.196233
9.44 -0.192112
9.45 -0.188051
9.46 -0.184097
9.47 -0.180294
9.48 -0.17668
9.49 -0.173283
9.5 -0.17014
9.51 -0.16725
9.52 -0.164594
9.53 -0.162147
9.54 -0.159871
9.55 -0.157716
9.56 -0.155616
9.57 -0.153483
9.58 -0.151225
9.59 -0.148745
9.6 -0.145945
9.61 -0.142722
9.62 -0.138977
9.63 -0.134567
9.64 -0.129395
9.65 -0.123417
9.66 -0.116568
9.67 -0.108797
9.68 -0.100066
9.69 -0.0903562
9.7 -0.0795531
9.71 -0.0677876
9.72 -0.0550965
9.73 -0.0415303
9.74 -0.0271533
9.75 -0.0120413
9.76 0.00374833
9.77 0.0201157
9.78 0.0369209
9.79 0.054064
9.8 0.0714461
9.81 0.0889717
9.82 0.10655
9.83 0.124088
9.84 0.141506
9.85 0.158741
9.86 0.175742
9.87 0.192464
9.88 0.208875
9.89 0.224934
9.9 0.24061
9.91 0.255918
9.92 0.270854
9.93 0.285414
9.94 0.299595
9.95 0.313394
9.96 0.326766
9.97 0.339728
9.98 0.352272
9.99 0.364376
10 0.376013
10.01 0.387148
10.02 0.397726
10.03 0.407663
10.04 0.416961
10.05 0.425573
10.06 0.43345
10.07 0.440549
10.08 0.446831
10.09 0.45219
10.1 0.45664
10.11 0.460201
10.12 0.462872
10.13 0.464668
10.14 0.465614
10.15 0.465739
10.16 0.465044
10.17 0.463677
10.18 0.461718
10.19 0.459258
10.2 0.456393
10.21 0.453225
10.22 0.44985
10.23 0.446392
10.24 0.442956
10.25 0.439635
10.26 0.43651
10.27 0.433651
10.28 0.431119
10.29 0.428995
10.3 0.427262
10.31 0.425925
10.32 0.424967
10.33 0.424359
10.34 0.424053
10.35 0.423996
10.36 0.4241
10.37 0.424264
10.38 0.424392
10.39 0.424384
10.4 0.424137
10.41 0.423549
10.42 0.42246
10.43 0.420817
10.44 0.41854
10.45 0.415556
10.46 0.411804
10.47 0.407238
10.48 0.401781
10.49 0.395394
10.5 0.388135
10.51 0.380014
10.52 0.371053
10.53 0.361285
10.54 0.350751
10.55 0.339435
10.56 0.327458
10.57 0.314891
10.58 0.301792
10.59 0.288221
10.6 0.274233
10.61 0.259872
10.62 0.245177
10.63 0.230218
10.64 0.215031
10.65 0.199646
10.66 0.184085
10.67 0.168369
10.68 0.152497
10.69 0.136492
10.7 0.120363
10.71 0.104117
10.72 0.087759
10.73 0.0712974
10.74 0.0547389
10.75 0.0380929
10.76 0.0213849
10.77 0.00463623
10.78 -0.0121272
10.79 -0.0288755
10.8 -0.0455748
10.81 -0.0621776
10.82 -0.0786425
10.83 -0.0949315
10.84 -0.111003
10.85 -0.126818
10.86 -0.142338
10.87 -0.157523
10.88 -0.172311
10.89 -0.186715
10.9 -0.200718
10.91 -0.214315
10.92 -0.227505
10.93 -0.240296
10.94 -0.252677
10.95 -0.264681
10.96 -0.276354
10.97 -0.28773
10.98 -0.298841
10.99 -0.309724
11 -0.320413
11.01 -0.330927
11.02 -0.341312
11.03 -0.351591
11.04 -0.361776
11.05 -0.371873
11.06 -0.381875
11.07 -0.391759
11.08 -0.401494
11.09 -0.411046
11.1 -0.420367
11.11 -0.429397
11.12 -0.43807
11.13 -0.446315
11.14 -0.453988
11.15 -0.461055
11.16 -0.467438
11.17 -0.473059
11.18 -0.477845
11.19 -0.481729
11.2 -0.484604
11.21 -0.486391
11.22 -0.487124
11.23 -0.486783
11.24 -0.485358
11.25 -0.482855
11.26 -0.479292
11.27 -0.474604
11.28 -0.468925
11.29 -0.46233
11.3 -0.454884
11.31 -0.44666
11.32 -0.437733
11.33 -0.428166
11.34 -0.418022
11.35 -0.40743
11.36 -0.396462
11.37 -0.385185
11.38 -0.373657
11.39 -0.36193
11.4 -0.350032
11.41 -0.338006
11.42 -0.325873
11.43 -0.313641
11.44 -0.301309
11.45 -0.288868
11.46 -0.2763
11.47 -0.26357
11.48 -0.250667
11.49 -0.237567
11.5 -0.224249
11.51 -0.210693
11.52 -0.196887
11.53 -0.182805
11.54 -0.168462
11.55 -0.153884
11.56 -0.139097
11.57 -0.124138
11.58 -0.109056
11.59 -0.0939081
11.6 -0.0787723
11.61 -0.0637319
11.62 -0.0488705
11.63 -0.0342759
11.64 -0.0200376
11.65 -0.00624472
11.66 0.00697545
11.67 0.0195388
11.68 0.0314013
11.69 0.0425012
11.7 0.0527881
11.71 0.0622247
11.72 0.0707857
11.73 0.0783633
11.74 0.0850685
11.75 0.0909257
11.76 0.095973
11.77 0.100261
11.78 0.10385
11.79 0.106782
11.8 0.109143
11.81 0.111052
11.82 0.112596
11.83 0.113855
11.84 0.114911
11.85 0.115837
11.86 0.116697
11.87 0.117557
11.88 0.11846
11.89 0.119432
11.9 0.120489
11.91 0.121632
11.92 0.122849
11.93 0.12411
11.94 0.125368
11.95 0.126569
11.96 0.127652
11.97 0.128548
11.98 0.129183
11.99 0.129436
12 0.129248
12.01 0.128547
12.02 0.127259
12.03 0.125316
12.04 0.122656
12.05 0.119199
12.06 0.114853
12.07 0.109655
12.08 0.103583
12.09 0.0966277
12.1 0.088791
12.11 0.0800844
12.12 0.070459
12.13 0.0599968
12.14 0.0487645
12.15 0.0368092
12.16 0.0241836
12.17 0.0109452
12.18 -0.00285555
