# xPDFsuite Configuration #
[PDF]
wavelength = 0.1
dataformat = QA
inputfile = BiMsol6_insitu_700 C-00680.xy
backgroundfile = Quartz2mm-dist500-00000.xy
mode = xray
bgscale = 0.0042
composition = Bi2Fe4O9
outputtype = gr
qmaxinst = 24.998449118
qmin = 0.1
qmax = 21.4986662415
rmax = 80.0
rmin = 0.0
rstep = 0.01
rpoly = 0.9

[Misc]
inputdir = C:/Data/Seafile/CPH/Beamtime/Desy Oct 20/In situ data/Processed/BiMsol6/PDF
savedir = C:/Data/Seafile/CPH/Beamtime/Desy Oct 20/In situ data/PDF/BiMsol6
backgroundfilefull = C:/Data/Seafile/CPH/Beamtime/Desy Oct 20/In situ data/Processed/Standard_Empty_Cap/Quartz2mm-dist500-00000.xy

#### start data
#S 1
#L r($\AA$)  G($\AA^{-2}$)
0 0
0.01 0.00532589
0.02 0.0103407
0.03 0.0147783
0.04 0.0184007
0.05 0.0210087
0.06 0.0224515
0.07 0.0225655
0.08 0.0213067
0.09 0.0188024
0.1 0.015159
0.11 0.0105391
0.12 0.00515408
0.13 -0.000745269
0.14 -0.00687381
0.15 -0.0128847
0.16 -0.0184841
0.17 -0.023398
0.18 -0.027383
0.19 -0.030239
0.2 -0.0317621
0.21 -0.0318202
0.22 -0.0305132
0.23 -0.0279138
0.24 -0.0241634
0.25 -0.019467
0.26 -0.0140858
0.27 -0.00832346
0.28 -0.00258932
0.29 0.00275152
0.3 0.00734585
0.31 0.0108618
0.32 0.0130054
0.33 0.0134812
0.34 0.0120057
0.35 0.00865364
0.36 0.0034479
0.37 -0.00349355
0.38 -0.0119571
0.39 -0.0216366
0.4 -0.0321699
0.41 -0.0429792
0.42 -0.0535006
0.43 -0.0631602
0.44 -0.0713685
0.45 -0.0775426
0.46 -0.081067
0.47 -0.0811451
0.48 -0.0776358
0.49 -0.0702357
0.5 -0.0587571
0.51 -0.0431403
0.52 -0.0234627
0.53 0.000309299
0.54 0.027634
0.55 0.0578125
0.56 0.0901948
0.57 0.124027
0.58 0.158471
0.59 0.192617
0.6 0.225297
0.61 0.255626
0.62 0.282703
0.63 0.305685
0.64 0.323817
0.65 0.336454
0.66 0.342692
0.67 0.342178
0.68 0.3351
0.69 0.321481
0.7 0.301515
0.71 0.275567
0.72 0.24416
0.73 0.2075
0.74 0.167013
0.75 0.123622
0.76 0.0783075
0.77 0.0320831
0.78 -0.014029
0.79 -0.0589239
0.8 -0.101492
0.81 -0.14098
0.82 -0.176659
0.83 -0.207932
0.84 -0.234344
0.85 -0.255595
0.86 -0.270998
0.87 -0.28108
0.88 -0.286127
0.89 -0.28649
0.9 -0.282643
0.91 -0.275165
0.92 -0.264628
0.93 -0.25177
0.94 -0.237564
0.95 -0.222759
0.96 -0.208076
0.97 -0.194187
0.98 -0.181696
0.99 -0.17133
1 -0.163404
1.01 -0.158138
1.02 -0.155686
1.03 -0.156085
1.04 -0.159261
1.05 -0.165101
1.06 -0.173431
1.07 -0.183659
1.08 -0.195365
1.09 -0.208096
1.1 -0.221381
1.11 -0.234751
1.12 -0.247697
1.13 -0.259778
1.14 -0.270669
1.15 -0.280094
1.16 -0.287853
1.17 -0.293823
1.18 -0.297928
1.19 -0.300066
1.2 -0.300546
1.21 -0.29955
1.22 -0.297312
1.23 -0.294102
1.24 -0.290213
1.25 -0.285941
1.26 -0.281632
1.27 -0.277571
1.28 -0.273992
1.29 -0.271089
1.3 -0.269
1.31 -0.267817
1.32 -0.26766
1.33 -0.268381
1.34 -0.269881
1.35 -0.272015
1.36 -0.2746
1.37 -0.277425
1.38 -0.280248
1.39 -0.282802
1.4 -0.284866
1.41 -0.286242
1.42 -0.286761
1.43 -0.286297
1.44 -0.28477
1.45 -0.282034
1.46 -0.278245
1.47 -0.273502
1.48 -0.26795
1.49 -0.261776
1.5 -0.255202
1.51 -0.248484
1.52 -0.241928
1.53 -0.235808
1.54 -0.230377
1.55 -0.225866
1.56 -0.222468
1.57 -0.220336
1.58 -0.21971
1.59 -0.220508
1.6 -0.222671
1.61 -0.2261
1.62 -0.230637
1.63 -0.236069
1.64 -0.242148
1.65 -0.248544
1.66 -0.254879
1.67 -0.260812
1.68 -0.266001
1.69 -0.270122
1.7 -0.272875
1.71 -0.273834
1.72 -0.272875
1.73 -0.269907
1.74 -0.264859
1.75 -0.257729
1.76 -0.248582
1.77 -0.23751
1.78 -0.224631
1.79 -0.210378
1.8 -0.195059
1.81 -0.179014
1.82 -0.162601
1.83 -0.146185
1.84 -0.130182
1.85 -0.114954
1.86 -0.100782
1.87 -0.0879162
1.88 -0.0765512
1.89 -0.0668228
1.9 -0.0588273
1.91 -0.0527126
1.92 -0.0482267
1.93 -0.0452343
1.94 -0.0435485
1.95 -0.0429389
1.96 -0.0431428
1.97 -0.0438918
1.98 -0.0448421
1.99 -0.0456866
2 -0.0461635
2.01 -0.0460436
2.02 -0.0451406
2.03 -0.0433161
2.04 -0.0403823
2.05 -0.0364493
2.06 -0.0315842
2.07 -0.0259159
2.08 -0.0196312
2.09 -0.012968
2.1 -0.00622026
2.11 0.000245975
2.12 0.00609091
2.13 0.0109742
2.14 0.0145649
2.15 0.0165542
2.16 0.0166678
2.17 0.014427
2.18 0.00986785
2.19 0.0029138
2.2 -0.00645855
2.21 -0.0182016
2.22 -0.0321971
2.23 -0.0483411
2.24 -0.0663874
2.25 -0.0858737
2.26 -0.106441
2.27 -0.1277
2.28 -0.149243
2.29 -0.170656
2.3 -0.191443
2.31 -0.211226
2.32 -0.229674
2.33 -0.246493
2.34 -0.261445
2.35 -0.274351
2.36 -0.285024
2.37 -0.293315
2.38 -0.299448
2.39 -0.303525
2.4 -0.305712
2.41 -0.306221
2.42 -0.305309
2.43 -0.303193
2.44 -0.300288
2.45 -0.296944
2.46 -0.293476
2.47 -0.290182
2.48 -0.287333
2.49 -0.285189
2.5 -0.284028
2.51 -0.283918
2.52 -0.284943
2.53 -0.287136
2.54 -0.290481
2.55 -0.29491
2.56 -0.300378
2.57 -0.306678
2.58 -0.313587
2.59 -0.3209
2.6 -0.328402
2.61 -0.335875
2.62 -0.343103
2.63 -0.349824
2.64 -0.355896
2.65 -0.361179
2.66 -0.365562
2.67 -0.36897
2.68 -0.371366
2.69 -0.372684
2.7 -0.37298
2.71 -0.372379
2.72 -0.370981
2.73 -0.368903
2.74 -0.366281
2.75 -0.363256
2.76 -0.359962
2.77 -0.356581
2.78 -0.353241
2.79 -0.350055
2.8 -0.347115
2.81 -0.344493
2.82 -0.342256
2.83 -0.340427
2.84 -0.338973
2.85 -0.337863
2.86 -0.337044
2.87 -0.336448
2.88 -0.335994
2.89 -0.33559
2.9 -0.335128
2.91 -0.334517
2.92 -0.333671
2.93 -0.332514
2.94 -0.33098
2.95 -0.328998
2.96 -0.326511
2.97 -0.323534
2.98 -0.320059
2.99 -0.316091
3 -0.311643
3.01 -0.306733
3.02 -0.301341
3.03 -0.295519
3.04 -0.289286
3.05 -0.282643
3.06 -0.275575
3.07 -0.268052
3.08 -0.260011
3.09 -0.251346
3.1 -0.242012
3.11 -0.231907
3.12 -0.220914
3.13 -0.208906
3.14 -0.195752
3.15 -0.181199
3.16 -0.165171
3.17 -0.147594
3.18 -0.128373
3.19 -0.107434
3.2 -0.0847313
3.21 -0.0602155
3.22 -0.0337863
3.23 -0.00568836
3.24 0.023964
3.25 0.0550159
3.26 0.0872734
3.27 0.120506
3.28 0.154479
3.29 0.188835
3.3 0.223226
3.31 0.257318
3.32 0.290771
3.33 0.323246
3.34 0.354395
3.35 0.38371
3.36 0.411051
3.37 0.436164
3.38 0.458827
3.39 0.478862
3.4 0.496129
3.41 0.510353
3.42 0.52151
3.43 0.529762
3.44 0.535161
3.45 0.537794
3.46 0.537783
3.47 0.535283
3.48 0.530226
3.49 0.523095
3.5 0.514104
3.51 0.503473
3.52 0.49142
3.53 0.478159
3.54 0.463854
3.55 0.448714
3.56 0.432976
3.57 0.416794
3.58 0.400305
3.59 0.383627
3.6 0.36686
3.61 0.350094
3.62 0.333403
3.63 0.316841
3.64 0.300455
3.65 0.284284
3.66 0.268367
3.67 0.252757
3.68 0.237514
3.69 0.222663
3.7 0.208262
3.71 0.194374
3.72 0.181074
3.73 0.168443
3.74 0.156653
3.75 0.14576
3.76 0.135849
3.77 0.127026
3.78 0.119397
3.79 0.113064
3.8 0.10817
3.81 0.1049
3.82 0.103206
3.83 0.10315
3.84 0.10478
3.85 0.108125
3.86 0.113196
3.87 0.120126
3.88 0.128802
3.89 0.139115
3.9 0.150998
3.91 0.164368
3.92 0.179128
3.93 0.195186
3.94 0.212496
3.95 0.2308
3.96 0.249955
3.97 0.269814
3.98 0.290228
3.99 0.311045
4 0.33212
4.01 0.353275
4.02 0.374353
4.03 0.39521
4.04 0.415708
4.05 0.435714
4.06 0.455093
4.07 0.473634
4.08 0.491292
4.09 0.507961
4.1 0.523539
4.11 0.537933
4.12 0.551057
4.13 0.562746
4.14 0.572925
4.15 0.581612
4.16 0.588758
4.17 0.594322
4.18 0.598273
4.19 0.600591
4.2 0.601081
4.21 0.599925
4.22 0.597144
4.23 0.592762
4.24 0.586811
4.25 0.579334
4.26 0.570312
4.27 0.559784
4.28 0.547912
4.29 0.534763
4.3 0.520407
4.31 0.504914
4.32 0.488353
4.33 0.470696
4.34 0.452102
4.35 0.432645
4.36 0.41238
4.37 0.391358
4.38 0.369622
4.39 0.347192
4.4 0.32408
4.41 0.300374
4.42 0.276105
4.43 0.251304
4.44 0.226004
4.45 0.200241
4.46 0.174021
4.47 0.147423
4.48 0.120515
4.49 0.0933593
4.5 0.0660299
4.51 0.0386089
4.52 0.0111906
4.53 -0.0161038
4.54 -0.043166
4.55 -0.0698801
4.56 -0.0961262
4.57 -0.121783
4.58 -0.146728
4.59 -0.170768
4.6 -0.193813
4.61 -0.215792
4.62 -0.236615
4.63 -0.256206
4.64 -0.274505
4.65 -0.291446
4.66 -0.306889
4.67 -0.320969
4.68 -0.333705
4.69 -0.345133
4.7 -0.355309
4.71 -0.364302
4.72 -0.372127
4.73 -0.378918
4.74 -0.384833
4.75 -0.389981
4.76 -0.394474
4.77 -0.398423
4.78 -0.401933
4.79 -0.405077
4.8 -0.407991
4.81 -0.410749
4.82 -0.413414
4.83 -0.416035
4.84 -0.418646
4.85 -0.421269
4.86 -0.423909
4.87 -0.426556
4.88 -0.429189
4.89 -0.431779
4.9 -0.434291
4.91 -0.436682
4.92 -0.438887
4.93 -0.440873
4.94 -0.442598
4.95 -0.444025
4.96 -0.445119
4.97 -0.445852
4.98 -0.446183
4.99 -0.446087
5 -0.445584
5.01 -0.444675
5.02 -0.443363
5.03 -0.441658
5.04 -0.439572
5.05 -0.437083
5.06 -0.434235
5.07 -0.431048
5.08 -0.42753
5.09 -0.423687
5.1 -0.419521
5.11 -0.415018
5.12 -0.410153
5.13 -0.404942
5.14 -0.39937
5.15 -0.39342
5.16 -0.387075
5.17 -0.380319
5.18 -0.3731
5.19 -0.365435
5.2 -0.357335
5.21 -0.348808
5.22 -0.339869
5.23 -0.330547
5.24 -0.320872
5.25 -0.310879
5.26 -0.300665
5.27 -0.2903
5.28 -0.279866
5.29 -0.269452
5.3 -0.25915
5.31 -0.249082
5.32 -0.239348
5.33 -0.230032
5.34 -0.221222
5.35 -0.212998
5.36 -0.205427
5.37 -0.198578
5.38 -0.192563
5.39 -0.187331
5.4 -0.182889
5.41 -0.179228
5.42 -0.176323
5.43 -0.174136
5.44 -0.172652
5.45 -0.171788
5.46 -0.171436
5.47 -0.171514
5.48 -0.17194
5.49 -0.172628
5.5 -0.173497
5.51 -0.174472
5.52 -0.175463
5.53 -0.17641
5.54 -0.177262
5.55 -0.177977
5.56 -0.178525
5.57 -0.178873
5.58 -0.179008
5.59 -0.178941
5.6 -0.178675
5.61 -0.178216
5.62 -0.177573
5.63 -0.176753
5.64 -0.175741
5.65 -0.17455
5.66 -0.173171
5.67 -0.171582
5.68 -0.169753
5.69 -0.167642
5.7 -0.165181
5.71 -0.162285
5.72 -0.15891
5.73 -0.154977
5.74 -0.150408
5.75 -0.145121
5.76 -0.139039
5.77 -0.132001
5.78 -0.124005
5.79 -0.115026
5.8 -0.105032
5.81 -0.0940134
5.82 -0.0819806
5.83 -0.0689343
5.84 -0.0548923
5.85 -0.040019
5.86 -0.0244179
5.87 -0.00821163
5.88 0.00846063
5.89 0.0254463
5.9 0.0425811
5.91 0.0596675
5.92 0.0765329
5.93 0.0930133
5.94 0.108954
5.95 0.124213
5.96 0.138647
5.97 0.152073
5.98 0.164497
5.99 0.175871
6 0.186172
6.01 0.195404
6.02 0.203599
6.03 0.21074
6.04 0.21695
6.05 0.222366
6.06 0.227099
6.07 0.231268
6.08 0.234996
6.09 0.238403
6.1 0.2416
6.11 0.244721
6.12 0.247852
6.13 0.251063
6.14 0.254402
6.15 0.257891
6.16 0.261538
6.17 0.265308
6.18 0.269137
6.19 0.272946
6.2 0.276639
6.21 0.280102
6.22 0.283209
6.23 0.285752
6.24 0.287641
6.25 0.288739
6.26 0.288921
6.27 0.28807
6.28 0.286088
6.29 0.282827
6.3 0.278208
6.31 0.272284
6.32 0.265051
6.33 0.256535
6.34 0.246785
6.35 0.235873
6.36 0.223792
6.37 0.210771
6.38 0.196954
6.39 0.18248
6.4 0.167497
6.41 0.152155
6.42 0.136595
6.43 0.120973
6.44 0.105428
6.45 0.0900713
6.46 0.0749957
6.47 0.0602755
6.48 0.0459649
6.49 0.032141
6.5 0.0187826
6.51 0.00586884
6.52 -0.00662854
6.53 -0.0187523
6.54 -0.0305573
6.55 -0.0421013
6.56 -0.0534529
6.57 -0.0647037
6.58 -0.0759221
6.59 -0.0871707
6.6 -0.0985037
6.61 -0.109964
6.62 -0.121596
6.63 -0.133406
6.64 -0.145384
6.65 -0.157508
6.66 -0.169742
6.67 -0.182033
6.68 -0.194315
6.69 -0.206492
6.7 -0.218477
6.71 -0.230173
6.72 -0.241479
6.73 -0.252293
6.74 -0.262515
6.75 -0.271988
6.76 -0.280626
6.77 -0.288377
6.78 -0.295166
6.79 -0.300928
6.8 -0.305609
6.81 -0.309155
6.82 -0.311414
6.83 -0.312489
6.84 -0.312368
6.85 -0.311049
6.86 -0.308535
6.87 -0.304833
6.88 -0.299887
6.89 -0.293719
6.9 -0.286412
6.91 -0.277981
6.92 -0.268443
6.93 -0.257812
6.94 -0.246099
6.95 -0.233193
6.96 -0.219223
6.97 -0.2042
6.98 -0.188131
6.99 -0.171023
7 -0.152887
7.01 -0.133685
7.02 -0.113422
7.03 -0.0921884
7.04 -0.070016
7.05 -0.0469431
7.06 -0.0230164
7.07 0.00170845
7.08 0.0272349
7.09 0.0534141
7.1 0.0801514
7.11 0.107354
7.12 0.134921
7.13 0.162748
7.14 0.190723
7.15 0.218716
7.16 0.2466
7.17 0.274256
7.18 0.301567
7.19 0.328419
7.2 0.354699
7.21 0.380228
7.22 0.404941
7.23 0.42876
7.24 0.451598
7.25 0.473377
7.26 0.494022
7.27 0.513434
7.28 0.531468
7.29 0.548181
7.3 0.563526
7.31 0.577461
7.32 0.589949
7.33 0.600955
7.34 0.610322
7.35 0.618084
7.36 0.624269
7.37 0.628851
7.38 0.631805
7.39 0.633108
7.4 0.632709
7.41 0.630448
7.42 0.626476
7.43 0.620781
7.44 0.613359
7.45 0.604207
7.46 0.593332
7.47 0.58063
7.48 0.566168
7.49 0.550063
7.5 0.53236
7.51 0.513118
7.52 0.492407
7.53 0.470303
7.54 0.446777
7.55 0.422093
7.56 0.396372
7.57 0.369747
7.58 0.342361
7.59 0.314367
7.6 0.285907
7.61 0.257172
7.62 0.228356
7.63 0.19963
7.64 0.171163
7.65 0.143123
7.66 0.115672
7.67 0.0890665
7.68 0.0633852
7.69 0.0387577
7.7 0.015304
7.71 -0.00686942
7.72 -0.0276719
7.73 -0.0469568
7.74 -0.0646285
7.75 -0.0807523
7.76 -0.0953103
7.77 -0.108302
7.78 -0.119741
7.79 -0.129661
7.8 -0.137963
7.81 -0.144838
7.82 -0.150384
7.83 -0.154681
7.84 -0.157818
7.85 -0.159889
7.86 -0.160957
7.87 -0.161095
7.88 -0.160475
7.89 -0.15919
7.9 -0.157324
7.91 -0.154959
7.92 -0.152166
7.93 -0.148982
7.94 -0.145488
7.95 -0.141736
7.96 -0.137759
7.97 -0.133581
7.98 -0.129217
7.99 -0.124672
8 -0.119937
8.01 -0.115023
8.02 -0.109927
8.03 -0.104641
8.04 -0.0991604
8.05 -0.093482
8.06 -0.0875918
8.07 -0.0815057
8.08 -0.0752458
8.09 -0.068834
8.1 -0.0622999
8.11 -0.055681
8.12 -0.0490228
8.13 -0.042386
8.14 -0.0358335
8.15 -0.0294297
8.16 -0.0232417
8.17 -0.0173376
8.18 -0.0117847
8.19 -0.00667949
8.2 -0.00208153
8.21 0.00198032
8.22 0.00546546
8.23 0.00834427
8.24 0.0105994
8.25 0.0122245
8.26 0.0131638
8.27 0.013516
8.28 0.013322
8.29 0.012635
8.3 0.0115194
8.31 0.0100494
8.32 0.00829622
8.33 0.00635958
8.34 0.0043446
8.35 0.0023396
8.36 0.000429121
8.37 -0.00130876
8.38 -0.00280496
8.39 -0.00396406
8.4 -0.00477057
8.41 -0.00520183
8.42 -0.00524918
8.43 -0.0049208
8.44 -0.00424167
8.45 -0.00324181
8.46 -0.00198147
8.47 -0.000555984
8.48 0.000950053
8.49 0.00244355
8.5 0.00382569
8.51 0.00499488
8.52 0.00580908
8.53 0.00618544
8.54 0.00604074
8.55 0.0052955
8.56 0.00388239
8.57 0.0017482
8.58 -0.00117132
8.59 -0.00493538
8.6 -0.00947951
8.61 -0.0147856
8.62 -0.0208194
8.63 -0.0275315
8.64 -0.0348595
8.65 -0.0427693
8.66 -0.0511361
8.67 -0.0598539
8.68 -0.0688305
8.69 -0.0779737
8.7 -0.087194
8.71 -0.0964056
8.72 -0.105517
8.73 -0.114468
8.74 -0.123204
8.75 -0.131686
8.76 -0.139885
8.77 -0.147787
8.78 -0.155367
8.79 -0.162644
8.8 -0.169652
8.81 -0.176417
8.82 -0.182972
8.83 -0.189352
8.84 -0.195592
8.85 -0.201721
8.86 -0.207783
8.87 -0.213803
8.88 -0.219797
8.89 -0.225774
8.9 -0.231734
8.91 -0.237661
8.92 -0.243533
8.93 -0.249319
8.94 -0.254979
8.95 -0.260467
8.96 -0.265734
8.97 -0.270723
8.98 -0.275338
8.99 -0.279556
9 -0.283331
9.01 -0.286617
9.02 -0.28938
9.03 -0.291591
9.04 -0.293204
9.05 -0.294205
9.06 -0.294641
9.07 -0.294528
9.08 -0.293897
9.09 -0.292785
9.1 -0.291239
9.11 -0.289277
9.12 -0.287002
9.13 -0.284477
9.14 -0.281764
9.15 -0.278921
9.16 -0.276004
9.17 -0.273063
9.18 -0.270148
9.19 -0.267291
9.2 -0.264515
9.21 -0.261834
9.22 -0.259251
9.23 -0.256762
9.24 -0.254358
9.25 -0.25201
9.26 -0.249687
9.27 -0.247358
9.28 -0.24499
9.29 -0.242549
9.3 -0.239999
9.31 -0.2373
9.32 -0.234442
9.33 -0.231408
9.34 -0.22819
9.35 -0.22479
9.36 -0.221216
9.37 -0.217473
9.38 -0.2136
9.39 -0.209634
9.4 -0.205614
9.41 -0.201581
9.42 -0.197579
9.43 -0.193654
9.44 -0.189863
9.45 -0.186233
9.46 -0.182794
9.47 -0.179568
9.48 -0.176569
9.49 -0.173798
9.5 -0.171262
9.51 -0.168928
9.52 -0.166753
9.53 -0.164691
9.54 -0.162684
9.55 -0.160669
9.56 -0.158571
9.57 -0.156287
9.58 -0.153745
9.59 -0.15086
9.6 -0.147552
9.61 -0.14374
9.62 -0.139351
9.63 -0.134272
9.64 -0.128443
9.65 -0.121852
9.66 -0.114465
9.67 -0.106257
9.68 -0.0972163
9.69 -0.087341
9.7 -0.0765493
9.71 -0.0649595
9.72 -0.0526058
9.73 -0.0395288
9.74 -0.025776
9.75 -0.0114003
9.76 0.00356746
9.77 0.0190656
9.78 0.0349968
9.79 0.0513001
9.8 0.0679154
9.81 0.0847847
9.82 0.101852
9.83 0.119072
9.84 0.136377
9.85 0.153716
9.86 0.171043
9.87 0.188313
9.88 0.205481
9.89 0.222497
9.9 0.239302
9.91 0.255863
9.92 0.272134
9.93 0.288066
9.94 0.303608
9.95 0.318709
9.96 0.333264
9.97 0.347246
9.98 0.360612
9.99 0.373308
10 0.385282
10.01 0.396485
10.02 0.406846
10.03 0.416271
10.04 0.424802
10.05 0.432415
10.06 0.439096
10.07 0.444841
10.08 0.449656
10.09 0.453486
10.1 0.456405
10.11 0.458488
10.12 0.459783
10.13 0.460351
10.14 0.460259
10.15 0.459572
10.16 0.458338
10.17 0.456696
10.18 0.454729
10.19 0.452521
10.2 0.450152
10.21 0.447698
10.22 0.445233
10.23 0.442828
10.24 0.440535
10.25 0.438396
10.26 0.436443
10.27 0.434697
10.28 0.433169
10.29 0.431882
10.3 0.430797
10.31 0.42989
10.32 0.429132
10.33 0.428482
10.34 0.427896
10.35 0.42732
10.36 0.426693
10.37 0.425956
10.38 0.425052
10.39 0.423923
10.4 0.422514
10.41 0.420768
10.42 0.418588
10.43 0.415963
10.44 0.412853
10.45 0.409221
10.46 0.405032
10.47 0.400261
10.48 0.39485
10.49 0.388769
10.5 0.382044
10.51 0.374665
10.52 0.366627
10.53 0.357928
10.54 0.348567
10.55 0.338484
10.56 0.327743
10.57 0.316364
10.58 0.304362
10.59 0.291753
10.6 0.278556
10.61 0.264773
10.62 0.250413
10.63 0.235548
10.64 0.220212
10.65 0.204441
10.66 0.188275
10.67 0.171756
10.68 0.154905
10.69 0.137796
10.7 0.120487
10.71 0.103029
10.72 0.0854744
10.73 0.0678763
10.74 0.0502877
10.75 0.0327696
10.76 0.0153683
10.77 -0.0018714
10.78 -0.0189081
10.79 -0.0357048
10.8 -0.0522292
10.81 -0.0684287
10.82 -0.0842926
10.83 -0.0998181
10.84 -0.114997
10.85 -0.129826
10.86 -0.144309
10.87 -0.158447
10.88 -0.172227
10.89 -0.1857
10.9 -0.198886
10.91 -0.211806
10.92 -0.224483
10.93 -0.236941
10.94 -0.249189
10.95 -0.261257
10.96 -0.27317
10.97 -0.284945
10.98 -0.296591
10.99 -0.308115
11 -0.319518
11.01 -0.330781
11.02 -0.341909
11.03 -0.352884
11.04 -0.363685
11.05 -0.374286
11.06 -0.384656
11.07 -0.394742
11.08 -0.404498
11.09 -0.413897
11.1 -0.422893
11.11 -0.431442
11.12 -0.439495
11.13 -0.447006
11.14 -0.453858
11.15 -0.460064
11.16 -0.465587
11.17 -0.470389
11.18 -0.474435
11.19 -0.477694
11.2 -0.480104
11.21 -0.48162
11.22 -0.482287
11.23 -0.482096
11.24 -0.481045
11.25 -0.479136
11.26 -0.476377
11.27 -0.472698
11.28 -0.468188
11.29 -0.462884
11.3 -0.456812
11.31 -0.45
11.32 -0.44248
11.33 -0.434263
11.34 -0.425356
11.35 -0.415849
11.36 -0.405778
11.37 -0.395176
11.38 -0.384075
11.39 -0.372508
11.4 -0.360468
11.41 -0.348012
11.42 -0.335178
11.43 -0.321992
11.44 -0.308474
11.45 -0.294647
11.46 -0.280525
11.47 -0.266113
11.48 -0.251458
11.49 -0.236582
11.5 -0.221509
11.51 -0.206265
11.52 -0.190879
11.53 -0.175376
11.54 -0.159803
11.55 -0.144205
11.56 -0.128626
11.57 -0.113115
11.58 -0.0977263
11.59 -0.0825177
11.6 -0.0675775
11.61 -0.0529473
11.62 -0.038689
11.63 -0.0248643
11.64 -0.0115332
11.65 0.0012469
11.66 0.0133793
11.67 0.0248189
11.68 0.0355573
11.69 0.0455626
11.7 0.0548118
11.71 0.0632912
11.72 0.0709957
11.73 0.077847
11.74 0.0839538
11.75 0.0893454
11.76 0.0940601
11.77 0.0981447
11.78 0.101653
11.79 0.104619
11.8 0.107115
11.81 0.109236
11.82 0.111051
11.83 0.112623
11.84 0.114014
11.85 0.115278
11.86 0.116462
11.87 0.117616
11.88 0.118768
11.89 0.119936
11.9 0.121127
11.91 0.122337
11.92 0.12355
11.93 0.124732
11.94 0.125846
11.95 0.126845
11.96 0.127675
11.97 0.128276
11.98 0.128584
11.99 0.128494
12 0.127958
12.01 0.126921
12.02 0.125322
12.03 0.123104
12.04 0.120219
12.05 0.116599
12.06 0.112168
12.07 0.106961
12.08 0.100966
12.09 0.0941736
12.1 0.0865875
12.11 0.0782171
12.12 0.0690158
12.13 0.0590528
12.14 0.0483826
12.15 0.03704
12.16 0.0250634
12.17 0.0124942
12.18 -0.000635063
