# xPDFsuite Configuration #
[PDF]
wavelength = 0.1
dataformat = QA
inputfile = BiMsol6_insitu_700 C-00396.xy
backgroundfile = Quartz2mm-dist500-00000.xy
mode = xray
bgscale = 0.0042
composition = Bi2Fe4O9
outputtype = gr
qmaxinst = 24.998449118
qmin = 0.1
qmax = 21.4986662415
rmax = 80.0
rmin = 0.0
rstep = 0.01
rpoly = 0.9

[Misc]
inputdir = C:/Data/Seafile/CPH/Beamtime/Desy Oct 20/In situ data/Processed/BiMsol6/PDF
savedir = C:/Data/Seafile/CPH/Beamtime/Desy Oct 20/In situ data/PDF/BiMsol6
backgroundfilefull = C:/Data/Seafile/CPH/Beamtime/Desy Oct 20/In situ data/Processed/Standard_Empty_Cap/Quartz2mm-dist500-00000.xy

#### start data
#S 1
#L r($\AA$)  G($\AA^{-2}$)
0 0
0.01 0.00725377
0.02 0.0141035
0.03 0.0202032
0.04 0.0252422
0.05 0.0289593
0.06 0.031155
0.07 0.0316102
0.08 0.0302594
0.09 0.0272604
0.1 0.0227421
0.11 0.0169059
0.12 0.0100169
0.13 0.00239187
0.14 -0.00561466
0.15 -0.0135502
0.16 -0.0210336
0.17 -0.0277065
0.18 -0.0332468
0.19 -0.0373837
0.2 -0.0398383
0.21 -0.0404169
0.22 -0.0392215
0.23 -0.0363188
0.24 -0.0318621
0.25 -0.0260863
0.26 -0.0192993
0.27 -0.0118481
0.28 -0.00424559
0.29 0.00305221
0.3 0.00960199
0.31 0.0149806
0.32 0.0188058
0.33 0.0206896
0.34 0.0202501
0.35 0.0175319
0.36 0.0125206
0.37 0.00531533
0.38 -0.0038689
0.39 -0.0147047
0.4 -0.0268164
0.41 -0.0395358
0.42 -0.0522056
0.43 -0.0641583
0.44 -0.0747015
0.45 -0.0831436
0.46 -0.0887532
0.47 -0.0905912
0.48 -0.0884383
0.49 -0.0819059
0.5 -0.0707365
0.51 -0.0548199
0.52 -0.0342036
0.53 -0.00880147
0.54 0.020804
0.55 0.0538396
0.56 0.0895875
0.57 0.127207
0.58 0.165755
0.59 0.204207
0.6 0.241259
0.61 0.275875
0.62 0.307024
0.63 0.333736
0.64 0.355143
0.65 0.370499
0.66 0.378774
0.67 0.379551
0.68 0.373019
0.69 0.359195
0.7 0.338288
0.71 0.310703
0.72 0.277024
0.73 0.23749
0.74 0.193696
0.75 0.146683
0.76 0.0975534
0.77 0.0474459
0.78 -0.00249343
0.79 -0.0510271
0.8 -0.0969192
0.81 -0.139339
0.82 -0.177487
0.83 -0.210714
0.84 -0.238535
0.85 -0.260644
0.86 -0.276317
0.87 -0.286171
0.88 -0.29056
0.89 -0.289911
0.9 -0.284786
0.91 -0.275861
0.92 -0.263809
0.93 -0.249485
0.94 -0.233962
0.95 -0.218074
0.96 -0.202618
0.97 -0.188323
0.98 -0.175833
0.99 -0.165939
1 -0.158924
1.01 -0.154973
1.02 -0.154201
1.03 -0.156585
1.04 -0.161981
1.05 -0.170195
1.06 -0.180953
1.07 -0.19356
1.08 -0.207507
1.09 -0.222254
1.1 -0.237258
1.11 -0.251989
1.12 -0.265856
1.13 -0.278411
1.14 -0.28934
1.15 -0.298387
1.16 -0.305387
1.17 -0.310273
1.18 -0.313039
1.19 -0.313667
1.2 -0.312584
1.21 -0.310077
1.22 -0.306481
1.23 -0.302166
1.24 -0.297516
1.25 -0.292943
1.26 -0.288851
1.27 -0.285548
1.28 -0.283288
1.29 -0.282262
1.3 -0.282584
1.31 -0.284301
1.32 -0.287498
1.33 -0.291883
1.34 -0.297253
1.35 -0.303343
1.36 -0.309847
1.37 -0.316428
1.38 -0.322697
1.39 -0.328253
1.4 -0.332794
1.41 -0.336036
1.42 -0.337749
1.43 -0.337766
1.44 -0.335992
1.45 -0.332215
1.46 -0.326714
1.47 -0.31966
1.48 -0.311289
1.49 -0.301898
1.5 -0.291837
1.51 -0.2815
1.52 -0.271361
1.53 -0.261847
1.54 -0.253354
1.55 -0.246241
1.56 -0.240822
1.57 -0.237345
1.58 -0.236208
1.59 -0.237317
1.6 -0.240614
1.61 -0.245989
1.62 -0.253242
1.63 -0.262094
1.64 -0.272225
1.65 -0.283194
1.66 -0.294443
1.67 -0.305485
1.68 -0.315829
1.69 -0.324995
1.7 -0.332538
1.71 -0.337847
1.72 -0.340685
1.73 -0.340874
1.74 -0.338268
1.75 -0.332813
1.76 -0.324555
1.77 -0.313571
1.78 -0.299974
1.79 -0.284339
1.8 -0.267068
1.81 -0.248613
1.82 -0.229467
1.83 -0.210139
1.84 -0.191205
1.85 -0.173205
1.86 -0.156567
1.87 -0.14168
1.88 -0.128864
1.89 -0.118359
1.9 -0.110355
1.91 -0.105132
1.92 -0.102378
1.93 -0.10195
1.94 -0.103621
1.95 -0.107094
1.96 -0.112014
1.97 -0.118021
1.98 -0.124601
1.99 -0.131265
2 -0.137585
2.01 -0.143159
2.02 -0.147628
2.03 -0.150685
2.04 -0.151895
2.05 -0.151288
2.06 -0.148813
2.07 -0.144499
2.08 -0.138463
2.09 -0.130895
2.1 -0.122005
2.11 -0.112169
2.12 -0.101841
2.13 -0.0914269
2.14 -0.0813485
2.15 -0.0720228
2.16 -0.0638486
2.17 -0.0573933
2.18 -0.0528413
2.19 -0.050423
2.2 -0.0503107
2.21 -0.0526012
2.22 -0.0573126
2.23 -0.0644853
2.24 -0.0740101
2.25 -0.0854943
2.26 -0.098654
2.27 -0.113157
2.28 -0.128635
2.29 -0.144696
2.3 -0.160919
2.31 -0.176855
2.32 -0.192134
2.33 -0.206424
2.34 -0.219441
2.35 -0.230953
2.36 -0.240731
2.37 -0.248581
2.38 -0.254628
2.39 -0.258921
2.4 -0.261573
2.41 -0.26275
2.42 -0.262668
2.43 -0.261519
2.44 -0.259681
2.45 -0.257482
2.46 -0.255222
2.47 -0.253193
2.48 -0.251663
2.49 -0.250893
2.5 -0.251169
2.51 -0.252559
2.52 -0.255153
2.53 -0.258988
2.54 -0.264052
2.55 -0.270279
2.56 -0.277628
2.57 -0.285885
2.58 -0.294816
2.59 -0.304206
2.6 -0.313828
2.61 -0.323447
2.62 -0.332828
2.63 -0.341687
2.64 -0.349861
2.65 -0.357184
2.66 -0.363525
2.67 -0.368785
2.68 -0.372903
2.69 -0.375778
2.7 -0.377441
2.71 -0.378002
2.72 -0.377535
2.73 -0.376134
2.74 -0.373908
2.75 -0.370971
2.76 -0.367387
2.77 -0.363342
2.78 -0.358932
2.79 -0.354236
2.8 -0.34931
2.81 -0.344185
2.82 -0.338858
2.83 -0.333302
2.84 -0.327479
2.85 -0.32132
2.86 -0.314739
2.87 -0.307638
2.88 -0.299911
2.89 -0.291362
2.9 -0.281952
2.91 -0.271601
2.92 -0.26024
2.93 -0.247821
2.94 -0.23432
2.95 -0.219699
2.96 -0.203968
2.97 -0.187278
2.98 -0.16973
2.99 -0.151449
3 -0.132581
3.01 -0.113289
3.02 -0.0937449
3.03 -0.0741688
3.04 -0.0547468
3.05 -0.0356522
3.06 -0.0170445
3.07 0.00093497
3.08 0.0181416
3.09 0.0344315
3.1 0.0498171
3.11 0.0642769
3.12 0.0778207
3.13 0.0904879
3.14 0.102346
3.15 0.113436
3.16 0.123924
3.17 0.133964
3.18 0.143693
3.19 0.153253
3.2 0.162779
3.21 0.172406
3.22 0.182273
3.23 0.192459
3.24 0.203028
3.25 0.214019
3.26 0.225442
3.27 0.237282
3.28 0.249514
3.29 0.262042
3.3 0.27475
3.31 0.287519
3.32 0.300216
3.33 0.312696
3.34 0.324808
3.35 0.336335
3.36 0.347182
3.37 0.35722
3.38 0.366339
3.39 0.374448
3.4 0.381478
3.41 0.387313
3.42 0.391947
3.43 0.395458
3.44 0.397887
3.45 0.3993
3.46 0.399783
3.47 0.399443
3.48 0.398335
3.49 0.396688
3.5 0.394643
3.51 0.392348
3.52 0.389944
3.53 0.387573
3.54 0.38538
3.55 0.383508
3.56 0.382047
3.57 0.381088
3.58 0.380705
3.59 0.380954
3.6 0.381877
3.61 0.383574
3.62 0.38599
3.63 0.389111
3.64 0.39292
3.65 0.397392
3.66 0.402491
3.67 0.408199
3.68 0.414482
3.69 0.421247
3.7 0.428442
3.71 0.436014
3.72 0.443907
3.73 0.452067
3.74 0.460452
3.75 0.468983
3.76 0.477596
3.77 0.48623
3.78 0.494821
3.79 0.503303
3.8 0.511597
3.81 0.519605
3.82 0.527265
3.83 0.534495
3.84 0.541209
3.85 0.547321
3.86 0.552742
3.87 0.55731
3.88 0.560962
3.89 0.563642
3.9 0.565266
3.91 0.565758
3.92 0.565048
3.93 0.563049
3.94 0.559596
3.95 0.554771
3.96 0.548545
3.97 0.540895
3.98 0.531811
3.99 0.521292
4 0.509248
4.01 0.495737
4.02 0.480855
4.03 0.46464
4.04 0.447134
4.05 0.42839
4.06 0.408453
4.07 0.387277
4.08 0.365056
4.09 0.341859
4.1 0.317759
4.11 0.292831
4.12 0.267157
4.13 0.240785
4.14 0.213821
4.15 0.186396
4.16 0.158608
4.17 0.130564
4.18 0.102373
4.19 0.0741488
4.2 0.0460365
4.21 0.0181624
4.22 -0.00934651
4.23 -0.0363614
4.24 -0.0627541
4.25 -0.0883986
4.26 -0.113124
4.27 -0.136782
4.28 -0.15933
4.29 -0.180676
4.3 -0.200746
4.31 -0.219478
4.32 -0.236831
4.33 -0.252639
4.34 -0.267026
4.35 -0.280038
4.36 -0.291718
4.37 -0.30213
4.38 -0.311357
4.39 -0.319459
4.4 -0.326524
4.41 -0.332758
4.42 -0.338291
4.43 -0.343253
4.44 -0.347772
4.45 -0.351972
4.46 -0.355958
4.47 -0.359854
4.48 -0.363747
4.49 -0.367701
4.5 -0.37176
4.51 -0.375947
4.52 -0.380269
4.53 -0.38471
4.54 -0.389218
4.55 -0.393736
4.56 -0.398194
4.57 -0.402513
4.58 -0.406606
4.59 -0.410351
4.6 -0.413665
4.61 -0.416479
4.62 -0.418724
4.63 -0.420343
4.64 -0.421296
4.65 -0.42155
4.66 -0.421046
4.67 -0.419877
4.68 -0.418086
4.69 -0.415737
4.7 -0.41291
4.71 -0.409699
4.72 -0.4062
4.73 -0.402554
4.74 -0.398893
4.75 -0.395338
4.76 -0.392006
4.77 -0.389006
4.78 -0.386439
4.79 -0.384451
4.8 -0.383052
4.81 -0.382287
4.82 -0.382177
4.83 -0.382725
4.84 -0.383913
4.85 -0.385739
4.86 -0.388138
4.87 -0.391005
4.88 -0.394259
4.89 -0.397811
4.9 -0.401568
4.91 -0.405437
4.92 -0.409317
4.93 -0.413115
4.94 -0.416753
4.95 -0.420167
4.96 -0.423303
4.97 -0.426121
4.98 -0.428575
4.99 -0.43064
5 -0.432339
5.01 -0.433678
5.02 -0.434671
5.03 -0.435332
5.04 -0.435682
5.05 -0.435706
5.06 -0.435442
5.07 -0.434894
5.08 -0.434056
5.09 -0.432906
5.1 -0.43141
5.11 -0.429504
5.12 -0.427095
5.13 -0.424138
5.14 -0.420543
5.15 -0.416209
5.16 -0.411031
5.17 -0.404898
5.18 -0.397593
5.19 -0.389058
5.2 -0.379222
5.21 -0.367991
5.22 -0.355287
5.23 -0.341045
5.24 -0.325176
5.25 -0.307542
5.26 -0.288287
5.27 -0.267427
5.28 -0.244998
5.29 -0.221056
5.3 -0.195671
5.31 -0.168835
5.32 -0.140714
5.33 -0.111473
5.34 -0.081231
5.35 -0.0501112
5.36 -0.0182383
5.37 0.0142703
5.38 0.0473242
5.39 0.0807443
5.4 0.114419
5.41 0.148243
5.42 0.182115
5.43 0.215937
5.44 0.249599
5.45 0.282998
5.46 0.316047
5.47 0.34865
5.48 0.380703
5.49 0.412099
5.5 0.442717
5.51 0.472311
5.52 0.500832
5.53 0.528126
5.54 0.554032
5.55 0.578379
5.56 0.600988
5.57 0.62156
5.58 0.63987
5.59 0.655859
5.6 0.669356
5.61 0.680202
5.62 0.688256
5.63 0.693397
5.64 0.695197
5.65 0.693886
5.66 0.689466
5.67 0.681945
5.68 0.671368
5.69 0.657815
5.7 0.641281
5.71 0.621866
5.72 0.599964
5.73 0.575789
5.74 0.54958
5.75 0.52159
5.76 0.492085
5.77 0.461243
5.78 0.429462
5.79 0.397031
5.8 0.364201
5.81 0.331208
5.82 0.298267
5.83 0.265582
5.84 0.233358
5.85 0.2017
5.86 0.17071
5.87 0.140464
5.88 0.111013
5.89 0.0823849
5.9 0.0546621
5.91 0.0277925
5.92 0.00173507
5.93 -0.0235294
5.94 -0.0480191
5.95 -0.0717472
5.96 -0.0947009
5.97 -0.116812
5.98 -0.138126
5.99 -0.158596
6 -0.178158
6.01 -0.196733
6.02 -0.214223
6.03 -0.230419
6.04 -0.24522
6.05 -0.258548
6.06 -0.27027
6.07 -0.280261
6.08 -0.2884
6.09 -0.29456
6.1 -0.29845
6.11 -0.300224
6.12 -0.299849
6.13 -0.297325
6.14 -0.292683
6.15 -0.285987
6.16 -0.277214
6.17 -0.266537
6.18 -0.254222
6.19 -0.240455
6.2 -0.225445
6.21 -0.209414
6.22 -0.192594
6.23 -0.175185
6.24 -0.157506
6.25 -0.139782
6.26 -0.122221
6.27 -0.105013
6.28 -0.0883245
6.29 -0.0723338
6.3 -0.0571704
6.31 -0.0428587
6.32 -0.0294349
6.33 -0.016904
6.34 -0.00524087
6.35 0.00560636
6.36 0.0156459
6.37 0.0250571
6.38 0.0339635
6.39 0.0424902
6.4 0.0507673
6.41 0.0589249
6.42 0.067095
6.43 0.0754153
6.44 0.0839864
6.45 0.0928959
6.46 0.102215
6.47 0.111995
6.48 0.122272
6.49 0.13311
6.5 0.144468
6.51 0.156316
6.52 0.168622
6.53 0.181345
6.54 0.194438
6.55 0.207857
6.56 0.221558
6.57 0.235466
6.58 0.249538
6.59 0.263735
6.6 0.278029
6.61 0.292399
6.62 0.306838
6.63 0.321341
6.64 0.33591
6.65 0.350556
6.66 0.36529
6.67 0.380127
6.68 0.395078
6.69 0.410157
6.7 0.425348
6.71 0.440634
6.72 0.455985
6.73 0.471355
6.74 0.486684
6.75 0.501877
6.76 0.516828
6.77 0.531425
6.78 0.54554
6.79 0.55903
6.8 0.571744
6.81 0.583512
6.82 0.594041
6.83 0.603275
6.84 0.611053
6.85 0.617225
6.86 0.621652
6.87 0.624207
6.88 0.624654
6.89 0.622904
6.9 0.619004
6.91 0.612912
6.92 0.604608
6.93 0.594094
6.94 0.581395
6.95 0.566315
6.96 0.549164
6.97 0.530031
6.98 0.50901
6.99 0.486206
7 0.461734
7.01 0.435641
7.02 0.408046
7.03 0.379175
7.04 0.349151
7.05 0.318094
7.06 0.286123
7.07 0.253351
7.08 0.219826
7.09 0.185727
7.1 0.151163
7.11 0.116232
7.12 0.081031
7.13 0.045654
7.14 0.0101973
7.15 -0.025229
7.16 -0.060522
7.17 -0.0955813
7.18 -0.130304
7.19 -0.164586
7.2 -0.198319
7.21 -0.231324
7.22 -0.263524
7.23 -0.294827
7.24 -0.32513
7.25 -0.354331
7.26 -0.382337
7.27 -0.409024
7.28 -0.434223
7.29 -0.457988
7.3 -0.48027
7.31 -0.501034
7.32 -0.520259
7.33 -0.537939
7.34 -0.553962
7.35 -0.568423
7.36 -0.581418
7.37 -0.592998
7.38 -0.603224
7.39 -0.612164
7.4 -0.619873
7.41 -0.626347
7.42 -0.631783
7.43 -0.636259
7.44 -0.639849
7.45 -0.642623
7.46 -0.64464
7.47 -0.64591
7.48 -0.646496
7.49 -0.646463
7.5 -0.645833
7.51 -0.64462
7.52 -0.642826
7.53 -0.640446
7.54 -0.637405
7.55 -0.633753
7.56 -0.629471
7.57 -0.624541
7.58 -0.618944
7.59 -0.612663
7.6 -0.605644
7.61 -0.597881
7.62 -0.589414
7.63 -0.580249
7.64 -0.570402
7.65 -0.559893
7.66 -0.54875
7.67 -0.536946
7.68 -0.524591
7.69 -0.511735
7.7 -0.498428
7.71 -0.484723
7.72 -0.470676
7.73 -0.456329
7.74 -0.441742
7.75 -0.426985
7.76 -0.41211
7.77 -0.397166
7.78 -0.382197
7.79 -0.367248
7.8 -0.352367
7.81 -0.337592
7.82 -0.32296
7.83 -0.308505
7.84 -0.294262
7.85 -0.280269
7.86 -0.266573
7.87 -0.253233
7.88 -0.240268
7.89 -0.22772
7.9 -0.215635
7.91 -0.204061
7.92 -0.193047
7.93 -0.182701
7.94 -0.173041
7.95 -0.164098
7.96 -0.155918
7.97 -0.148542
7.98 -0.142008
7.99 -0.136368
8 -0.131707
8.01 -0.127958
8.02 -0.125125
8.03 -0.123203
8.04 -0.122178
8.05 -0.122023
8.06 -0.12277
8.07 -0.124335
8.08 -0.126634
8.09 -0.129611
8.1 -0.133203
8.11 -0.137344
8.12 -0.141972
8.13 -0.147044
8.14 -0.152446
8.15 -0.158111
8.16 -0.163975
8.17 -0.16998
8.18 -0.176069
8.19 -0.182189
8.2 -0.188288
8.21 -0.194319
8.22 -0.200243
8.23 -0.206021
8.24 -0.211615
8.25 -0.216985
8.26 -0.222058
8.27 -0.226814
8.28 -0.231205
8.29 -0.235176
8.3 -0.238668
8.31 -0.241613
8.32 -0.243899
8.33 -0.245431
8.34 -0.24616
8.35 -0.245997
8.36 -0.244847
8.37 -0.242618
8.38 -0.239217
8.39 -0.234405
8.4 -0.228219
8.41 -0.220595
8.42 -0.211468
8.43 -0.200786
8.44 -0.188511
8.45 -0.174546
8.46 -0.158844
8.47 -0.141536
8.48 -0.122656
8.49 -0.102253
8.5 -0.0803913
8.51 -0.0571518
8.52 -0.0325109
8.53 -0.00668738
8.54 0.0201809
8.55 0.047975
8.56 0.0765732
8.57 0.105854
8.58 0.135712
8.59 0.16604
8.6 0.196687
8.61 0.227554
8.62 0.258553
8.63 0.289605
8.64 0.320643
8.65 0.351595
8.66 0.382412
8.67 0.413053
8.68 0.443484
8.69 0.473671
8.7 0.503581
8.71 0.533173
8.72 0.562379
8.73 0.591181
8.74 0.619525
8.75 0.647345
8.76 0.674565
8.77 0.701093
8.78 0.726758
8.79 0.751455
8.8 0.775085
8.81 0.797507
8.82 0.818571
8.83 0.838121
8.84 0.855976
8.85 0.871783
8.86 0.885565
8.87 0.897171
8.88 0.906458
8.89 0.913298
8.9 0.917577
8.91 0.919018
8.92 0.917571
8.93 0.913324
8.94 0.906249
8.95 0.896339
8.96 0.883612
8.97 0.868104
8.98 0.849569
8.99 0.828414
9 0.80474
9.01 0.778662
9.02 0.750311
9.03 0.719825
9.04 0.687254
9.05 0.652759
9.06 0.616622
9.07 0.579003
9.08 0.540062
9.09 0.49996
9.1 0.458853
9.11 0.416823
9.12 0.374121
9.13 0.330906
9.14 0.287327
9.15 0.243533
9.16 0.199671
9.17 0.1559
9.18 0.112399
9.19 0.0693134
9.2 0.0267979
9.21 -0.0149896
9.22 -0.0558884
9.23 -0.0957354
9.24 -0.134233
9.25 -0.171286
9.26 -0.206758
9.27 -0.240484
9.28 -0.272307
9.29 -0.302075
9.3 -0.329569
9.31 -0.354514
9.32 -0.376983
9.33 -0.396872
9.34 -0.414097
9.35 -0.428588
9.36 -0.440296
9.37 -0.448955
9.38 -0.454703
9.39 -0.457649
9.4 -0.457829
9.41 -0.455298
9.42 -0.450128
9.43 -0.442356
9.44 -0.431915
9.45 -0.419165
9.46 -0.404233
9.47 -0.387255
9.48 -0.368367
9.49 -0.347715
9.5 -0.325333
9.51 -0.301434
9.52 -0.27623
9.53 -0.24986
9.54 -0.222462
9.55 -0.194167
9.56 -0.1651
9.57 -0.135338
9.58 -0.105084
9.59 -0.0744569
9.6 -0.0435763
9.61 -0.0125605
9.62 0.0184722
9.63 0.0493881
9.64 0.0800484
9.65 0.110337
9.66 0.140128
9.67 0.169295
9.68 0.19771
9.69 0.225244
9.7 0.251638
9.71 0.276869
9.72 0.300816
9.73 0.323362
9.74 0.344398
9.75 0.363822
9.76 0.381452
9.77 0.397175
9.78 0.411041
9.79 0.423005
9.8 0.433038
9.81 0.441127
9.82 0.447275
9.83 0.451307
9.84 0.453442
9.85 0.453762
9.86 0.452335
9.87 0.449245
9.88 0.444584
9.89 0.438399
9.9 0.430762
9.91 0.421897
9.92 0.411918
9.93 0.400935
9.94 0.38906
9.95 0.376395
9.96 0.362986
9.97 0.34898
9.98 0.334474
9.99 0.319542
10 0.304246
10.01 0.288641
10.02 0.272768
10.03 0.256656
10.04 0.240359
10.05 0.223903
10.06 0.207309
10.07 0.190597
10.08 0.173785
10.09 0.156885
10.1 0.139923
10.11 0.122924
10.12 0.105911
10.13 0.0889142
10.14 0.0719641
10.15 0.0550989
10.16 0.0383735
10.17 0.0218222
10.18 0.00549089
10.19 -0.010573
10.2 -0.0263212
10.21 -0.0417057
10.22 -0.0566474
10.23 -0.0711066
10.24 -0.0850624
10.25 -0.0984795
10.26 -0.111328
10.27 -0.123584
10.28 -0.135226
10.29 -0.146178
10.3 -0.156507
10.31 -0.166219
10.32 -0.175327
10.33 -0.183848
10.34 -0.191808
10.35 -0.199209
10.36 -0.206093
10.37 -0.21253
10.38 -0.218564
10.39 -0.22424
10.4 -0.229605
10.41 -0.234706
10.42 -0.239572
10.43 -0.244277
10.44 -0.248866
10.45 -0.253382
10.46 -0.257865
10.47 -0.262352
10.48 -0.26688
10.49 -0.271484
10.5 -0.276187
10.51 -0.281009
10.52 -0.285968
10.53 -0.291076
10.54 -0.296341
10.55 -0.301784
10.56 -0.307388
10.57 -0.313146
10.58 -0.319047
10.59 -0.325076
10.6 -0.331214
10.61 -0.337443
10.62 -0.343733
10.63 -0.350051
10.64 -0.356364
10.65 -0.362639
10.66 -0.368841
10.67 -0.374937
10.68 -0.380876
10.69 -0.386631
10.7 -0.392174
10.71 -0.39748
10.72 -0.402523
10.73 -0.407286
10.74 -0.411745
10.75 -0.415873
10.76 -0.419695
10.77 -0.423216
10.78 -0.426445
10.79 -0.4294
10.8 -0.432101
10.81 -0.434558
10.82 -0.436816
10.83 -0.438916
10.84 -0.440891
10.85 -0.442778
10.86 -0.44461
10.87 -0.446418
10.88 -0.448233
10.89 -0.45008
10.9 -0.451975
10.91 -0.453926
10.92 -0.455935
10.93 -0.457996
10.94 -0.460095
10.95 -0.462203
10.96 -0.464287
10.97 -0.466307
10.98 -0.468215
10.99 -0.46996
11 -0.471485
11.01 -0.472693
11.02 -0.47355
11.03 -0.473995
11.04 -0.473971
11.05 -0.473422
11.06 -0.472299
11.07 -0.470518
11.08 -0.468036
11.09 -0.464864
11.1 -0.460981
11.11 -0.456377
11.12 -0.451049
11.13 -0.445005
11.14 -0.438182
11.15 -0.430679
11.16 -0.422531
11.17 -0.413771
11.18 -0.404439
11.19 -0.394578
11.2 -0.384209
11.21 -0.373374
11.22 -0.36215
11.23 -0.350579
11.24 -0.338701
11.25 -0.326553
11.26 -0.314168
11.27 -0.301558
11.28 -0.288767
11.29 -0.275821
11.3 -0.262735
11.31 -0.249523
11.32 -0.236198
11.33 -0.222762
11.34 -0.209219
11.35 -0.195582
11.36 -0.181854
11.37 -0.168038
11.38 -0.154136
11.39 -0.140152
11.4 -0.12608
11.41 -0.111928
11.42 -0.0976996
11.43 -0.0833963
11.44 -0.0690183
11.45 -0.0545647
11.46 -0.0400309
11.47 -0.0254057
11.48 -0.0106886
11.49 0.00413041
11.5 0.0190646
11.51 0.0341296
11.52 0.0493439
11.53 0.0647431
11.54 0.0803467
11.55 0.0961717
11.56 0.112243
11.57 0.128583
11.58 0.145214
11.59 0.16216
11.6 0.179467
11.61 0.197112
11.62 0.215097
11.63 0.23342
11.64 0.252068
11.65 0.271022
11.66 0.29027
11.67 0.309763
11.68 0.329441
11.69 0.349247
11.7 0.369118
11.71 0.388986
11.72 0.408773
11.73 0.428373
11.74 0.447712
11.75 0.466706
11.76 0.485269
11.77 0.503317
11.78 0.520768
11.79 0.537502
11.8 0.553429
11.81 0.568524
11.82 0.582725
11.83 0.595977
11.84 0.608229
11.85 0.619439
11.86 0.629446
11.87 0.638323
11.88 0.646051
11.89 0.652605
11.9 0.657964
11.91 0.662106
11.92 0.664958
11.93 0.666461
11.94 0.666687
11.95 0.665616
11.96 0.663229
11.97 0.659505
11.98 0.654427
11.99 0.647839
12 0.639829
12.01 0.630413
12.02 0.619583
12.03 0.607337
12.04 0.593679
12.05 0.57858
12.06 0.561997
12.07 0.544087
12.08 0.524901
12.09 0.504503
12.1 0.482971
12.11 0.460397
12.12 0.436815
12.13 0.412412
12.14 0.387348
12.15 0.361766
12.16 0.335817
12.17 0.309658
12.18 0.283452
12.19 0.257392
12.2 0.231641
12.21 0.206358
12.22 0.181693
12.23 0.15779
12.24 0.134781
12.25 0.11287
12.26 0.0921432
