# xPDFsuite Configuration #
[PDF]
wavelength = 0.1
dataformat = QA
inputfile = BiMsol6_insitu_700 C-00625.xy
backgroundfile = Quartz2mm-dist500-00000.xy
mode = xray
bgscale = 0.0042
composition = Bi2Fe4O9
outputtype = gr
qmaxinst = 24.998449118
qmin = 0.1
qmax = 21.4986662415
rmax = 80.0
rmin = 0.0
rstep = 0.01
rpoly = 0.9

[Misc]
inputdir = C:/Data/Seafile/CPH/Beamtime/Desy Oct 20/In situ data/Processed/BiMsol6/PDF
savedir = C:/Data/Seafile/CPH/Beamtime/Desy Oct 20/In situ data/PDF/BiMsol6
backgroundfilefull = C:/Data/Seafile/CPH/Beamtime/Desy Oct 20/In situ data/Processed/Standard_Empty_Cap/Quartz2mm-dist500-00000.xy

#### start data
#S 1
#L r($\AA$)  G($\AA^{-2}$)
0 0
0.01 0.0058741
0.02 0.0114125
0.03 0.016328
0.04 0.020363
0.05 0.0233015
0.06 0.0249792
0.07 0.0252166
0.08 0.0239626
0.09 0.0213512
0.1 0.0174932
0.11 0.0125597
0.12 0.00677454
0.13 0.00040447
0.14 -0.00624987
0.15 -0.0128133
0.16 -0.0189692
0.17 -0.0244207
0.18 -0.0289027
0.19 -0.0321944
0.2 -0.0340697
0.21 -0.0343764
0.22 -0.0332102
0.23 -0.0306373
0.24 -0.0267969
0.25 -0.0218965
0.26 -0.016204
0.27 -0.0100265
0.28 -0.00379726
0.29 0.00209775
0.3 0.00728417
0.31 0.0114074
0.32 0.0141498
0.33 0.0151909
0.34 0.0142185
0.35 0.0112902
0.36 0.00641101
0.37 -0.000315394
0.38 -0.00868612
0.39 -0.0184017
0.4 -0.0291129
0.41 -0.040232
0.42 -0.0511833
0.43 -0.061381
0.44 -0.0702202
0.45 -0.0770997
0.46 -0.0813837
0.47 -0.082252
0.48 -0.0795348
0.49 -0.0729046
0.5 -0.06215
0.51 -0.0471892
0.52 -0.0280794
0.53 -0.00476042
0.54 0.0222394
0.55 0.0522267
0.56 0.0845584
0.57 0.118483
0.58 0.153163
0.59 0.187685
0.6 0.220884
0.61 0.251851
0.62 0.279669
0.63 0.303479
0.64 0.322508
0.65 0.336093
0.66 0.34331
0.67 0.343783
0.68 0.337679
0.69 0.325001
0.7 0.305928
0.71 0.280806
0.72 0.250144
0.73 0.214124
0.74 0.17417
0.75 0.131197
0.76 0.0861777
0.77 0.040124
0.78 -0.00594522
0.79 -0.0509313
0.8 -0.0937242
0.81 -0.133557
0.82 -0.169696
0.83 -0.201533
0.84 -0.228606
0.85 -0.250602
0.86 -0.266828
0.87 -0.277788
0.88 -0.283749
0.89 -0.285046
0.9 -0.282136
0.91 -0.275579
0.92 -0.265927
0.93 -0.253894
0.94 -0.240438
0.95 -0.226292
0.96 -0.212163
0.97 -0.198709
0.98 -0.186522
0.99 -0.17631
1 -0.168391
1.01 -0.16299
1.02 -0.160262
1.03 -0.160252
1.04 -0.162899
1.05 -0.168101
1.06 -0.175698
1.07 -0.185132
1.08 -0.196006
1.09 -0.207895
1.1 -0.220354
1.11 -0.232943
1.12 -0.245185
1.13 -0.256669
1.14 -0.267087
1.15 -0.276183
1.16 -0.28377
1.17 -0.289736
1.18 -0.294014
1.19 -0.296513
1.2 -0.297516
1.21 -0.297191
1.22 -0.295752
1.23 -0.293444
1.24 -0.290532
1.25 -0.287279
1.26 -0.28399
1.27 -0.280911
1.28 -0.278241
1.29 -0.276139
1.3 -0.274712
1.31 -0.274023
1.32 -0.274146
1.33 -0.274939
1.34 -0.276294
1.35 -0.278066
1.36 -0.280079
1.37 -0.282135
1.38 -0.284008
1.39 -0.285462
1.4 -0.286322
1.41 -0.28643
1.42 -0.285659
1.43 -0.283928
1.44 -0.281201
1.45 -0.27739
1.46 -0.272682
1.47 -0.267211
1.48 -0.261146
1.49 -0.254695
1.5 -0.248092
1.51 -0.241608
1.52 -0.235545
1.53 -0.230142
1.54 -0.225628
1.55 -0.222201
1.56 -0.220015
1.57 -0.219178
1.58 -0.219882
1.59 -0.221988
1.6 -0.225387
1.61 -0.229934
1.62 -0.235428
1.63 -0.241619
1.64 -0.248222
1.65 -0.254873
1.66 -0.261204
1.67 -0.266872
1.68 -0.271548
1.69 -0.274925
1.7 -0.276734
1.71 -0.276574
1.72 -0.274381
1.73 -0.270117
1.74 -0.263764
1.75 -0.255373
1.76 -0.24506
1.77 -0.232971
1.78 -0.219284
1.79 -0.204454
1.8 -0.188815
1.81 -0.172723
1.82 -0.156543
1.83 -0.140636
1.84 -0.125419
1.85 -0.111215
1.86 -0.0982583
1.87 -0.0867527
1.88 -0.0768432
1.89 -0.0686098
1.9 -0.0620901
1.91 -0.0573606
1.92 -0.0541174
1.93 -0.0521751
1.94 -0.051303
1.95 -0.0512357
1.96 -0.0516845
1.97 -0.0523447
1.98 -0.0528759
1.99 -0.0529976
2 -0.0524702
2.01 -0.0510974
2.02 -0.0487352
2.03 -0.0452948
2.04 -0.0406411
2.05 -0.0349619
2.06 -0.0283867
2.07 -0.021106
2.08 -0.0133649
2.09 -0.00545445
2.1 0.00226874
2.11 0.00939628
2.12 0.0155804
2.13 0.0204683
2.14 0.0237284
2.15 0.0250631
2.16 0.0242206
2.17 0.0207303
2.18 0.014704
2.19 0.00611897
2.2 -0.00499112
2.21 -0.0185184
2.22 -0.0342833
2.23 -0.0521156
2.24 -0.0717014
2.25 -0.0925353
2.26 -0.114217
2.27 -0.136323
2.28 -0.158424
2.29 -0.180096
2.3 -0.200812
2.31 -0.220231
2.32 -0.238053
2.33 -0.254016
2.34 -0.267921
2.35 -0.279637
2.36 -0.289024
2.37 -0.295993
2.38 -0.300823
2.39 -0.30367
2.4 -0.304742
2.41 -0.30429
2.42 -0.302602
2.43 -0.299937
2.44 -0.29671
2.45 -0.293267
2.46 -0.289913
2.47 -0.286927
2.48 -0.284555
2.49 -0.283026
2.5 -0.28258
2.51 -0.283231
2.52 -0.285018
2.53 -0.287932
2.54 -0.291915
2.55 -0.296863
2.56 -0.302686
2.57 -0.309157
2.58 -0.316045
2.59 -0.323142
2.6 -0.330238
2.61 -0.337127
2.62 -0.343612
2.63 -0.349454
2.64 -0.354564
2.65 -0.35884
2.66 -0.362216
2.67 -0.36466
2.68 -0.366178
2.69 -0.366752
2.7 -0.366478
2.71 -0.3655
2.72 -0.363936
2.73 -0.361915
2.74 -0.359574
2.75 -0.357048
2.76 -0.354474
2.77 -0.351984
2.78 -0.349673
2.79 -0.347615
2.8 -0.345861
2.81 -0.344437
2.82 -0.34336
2.83 -0.342604
2.84 -0.342099
2.85 -0.341779
2.86 -0.341563
2.87 -0.341363
2.88 -0.341086
2.89 -0.340613
2.9 -0.339866
2.91 -0.33877
2.92 -0.337265
2.93 -0.335302
2.94 -0.332852
2.95 -0.329879
2.96 -0.326373
2.97 -0.32239
2.98 -0.317962
2.99 -0.313127
3 -0.307925
3.01 -0.302397
3.02 -0.296553
3.03 -0.290437
3.04 -0.284064
3.05 -0.27742
3.06 -0.270472
3.07 -0.263167
3.08 -0.25541
3.09 -0.247057
3.1 -0.238025
3.11 -0.228175
3.12 -0.217358
3.13 -0.205418
3.14 -0.1922
3.15 -0.177421
3.16 -0.161007
3.17 -0.142892
3.18 -0.122993
3.19 -0.101258
3.2 -0.0776707
3.21 -0.0522204
3.22 -0.024856
3.23 0.00412447
3.24 0.0345556
3.25 0.0662316
3.26 0.0989098
3.27 0.132315
3.28 0.166153
3.29 0.200043
3.3 0.233634
3.31 0.266586
3.32 0.29857
3.33 0.329266
3.34 0.358359
3.35 0.385367
3.36 0.410239
3.37 0.432785
3.38 0.452858
3.39 0.470354
3.4 0.485213
3.41 0.49725
3.42 0.506523
3.43 0.513244
3.44 0.517516
3.45 0.519469
3.46 0.51925
3.47 0.517026
3.48 0.51278
3.49 0.506915
3.5 0.499609
3.51 0.491027
3.52 0.481326
3.53 0.470645
3.54 0.459073
3.55 0.446719
3.56 0.433725
3.57 0.420161
3.58 0.406085
3.59 0.391544
3.6 0.376577
3.61 0.361184
3.62 0.345441
3.63 0.329394
3.64 0.31309
3.65 0.296591
3.66 0.279968
3.67 0.26331
3.68 0.246739
3.69 0.230377
3.7 0.214358
3.71 0.198826
3.72 0.183938
3.73 0.169852
3.74 0.156838
3.75 0.145004
3.76 0.13448
3.77 0.125405
3.78 0.117905
3.79 0.112086
3.8 0.108087
3.81 0.106079
3.82 0.105936
3.83 0.107661
3.84 0.111232
3.85 0.1166
3.86 0.123697
3.87 0.132558
3.88 0.14298
3.89 0.154782
3.9 0.167831
3.91 0.181986
3.92 0.197105
3.93 0.213061
3.94 0.229754
3.95 0.246979
3.96 0.264616
3.97 0.282556
3.98 0.300702
3.99 0.318965
4 0.337265
4.01 0.355521
4.02 0.373672
4.03 0.391658
4.04 0.409424
4.05 0.426911
4.06 0.444059
4.07 0.460751
4.08 0.476955
4.09 0.492588
4.1 0.507562
4.11 0.521781
4.12 0.535139
4.13 0.547461
4.14 0.558617
4.15 0.568547
4.16 0.577135
4.17 0.584271
4.18 0.589852
4.19 0.593787
4.2 0.595793
4.21 0.595994
4.22 0.594358
4.23 0.590867
4.24 0.585521
4.25 0.578345
4.26 0.569298
4.27 0.558423
4.28 0.545926
4.29 0.531905
4.3 0.516472
4.31 0.499746
4.32 0.481848
4.33 0.462809
4.34 0.442854
4.35 0.422111
4.36 0.400684
4.37 0.378666
4.38 0.356137
4.39 0.333148
4.4 0.309742
4.41 0.285986
4.42 0.261906
4.43 0.237516
4.44 0.212822
4.45 0.18783
4.46 0.162513
4.47 0.136899
4.48 0.111007
4.49 0.0848602
4.5 0.0584923
4.51 0.0319515
4.52 0.00530028
4.53 -0.0213713
4.54 -0.0479554
4.55 -0.0743386
4.56 -0.100395
4.57 -0.125989
4.58 -0.150979
4.59 -0.175147
4.6 -0.198365
4.61 -0.220524
4.62 -0.241499
4.63 -0.261182
4.64 -0.279482
4.65 -0.296305
4.66 -0.311478
4.67 -0.325139
4.68 -0.337305
4.69 -0.34802
4.7 -0.357354
4.71 -0.3654
4.72 -0.372203
4.73 -0.377939
4.74 -0.382812
4.75 -0.386977
4.76 -0.390589
4.77 -0.393803
4.78 -0.396764
4.79 -0.399605
4.8 -0.402463
4.81 -0.40543
4.82 -0.408572
4.83 -0.411933
4.84 -0.41553
4.85 -0.419368
4.86 -0.42341
4.87 -0.427585
4.88 -0.43182
4.89 -0.436025
4.9 -0.440105
4.91 -0.443958
4.92 -0.447434
4.93 -0.45046
4.94 -0.452951
4.95 -0.454833
4.96 -0.456047
4.97 -0.456553
4.98 -0.456293
4.99 -0.455252
5 -0.453505
5.01 -0.451091
5.02 -0.448066
5.03 -0.444501
5.04 -0.440471
5.05 -0.436032
5.06 -0.431309
5.07 -0.426389
5.08 -0.421347
5.09 -0.416247
5.1 -0.411137
5.11 -0.406054
5.12 -0.401017
5.13 -0.396017
5.14 -0.391031
5.15 -0.38602
5.16 -0.380931
5.17 -0.3757
5.18 -0.370227
5.19 -0.36444
5.2 -0.358269
5.21 -0.351644
5.22 -0.344505
5.23 -0.336805
5.24 -0.328497
5.25 -0.319532
5.26 -0.309982
5.27 -0.299885
5.28 -0.289304
5.29 -0.278323
5.3 -0.267047
5.31 -0.255593
5.32 -0.244125
5.33 -0.232795
5.34 -0.221756
5.35 -0.211158
5.36 -0.201145
5.37 -0.191864
5.38 -0.183523
5.39 -0.176138
5.4 -0.169781
5.41 -0.164497
5.42 -0.160306
5.43 -0.157198
5.44 -0.155202
5.45 -0.154228
5.46 -0.15413
5.47 -0.1548
5.48 -0.15611
5.49 -0.157923
5.5 -0.160098
5.51 -0.162495
5.52 -0.164936
5.53 -0.167291
5.54 -0.169439
5.55 -0.171279
5.56 -0.172725
5.57 -0.173684
5.58 -0.174106
5.59 -0.174003
5.6 -0.173376
5.61 -0.172243
5.62 -0.170639
5.63 -0.168606
5.64 -0.166163
5.65 -0.163407
5.66 -0.160394
5.67 -0.157173
5.68 -0.153782
5.69 -0.150246
5.7 -0.146572
5.71 -0.142748
5.72 -0.138757
5.73 -0.134556
5.74 -0.130087
5.75 -0.125279
5.76 -0.12005
5.77 -0.114253
5.78 -0.107825
5.79 -0.100689
5.8 -0.0927612
5.81 -0.0839734
5.82 -0.074271
5.83 -0.0635874
5.84 -0.0518632
5.85 -0.0391984
5.86 -0.025639
5.87 -0.0112577
5.88 0.00384724
5.89 0.0195538
5.9 0.035744
5.91 0.0522095
5.92 0.0687607
5.93 0.0852148
5.94 0.101388
5.95 0.117102
5.96 0.13217
5.97 0.146362
5.98 0.159614
5.99 0.171825
6 0.182919
6.01 0.192853
6.02 0.201615
6.03 0.209139
6.04 0.215524
6.05 0.2209
6.06 0.225375
6.07 0.229072
6.08 0.232129
6.09 0.23469
6.1 0.236888
6.11 0.238916
6.12 0.240904
6.13 0.242969
6.14 0.245205
6.15 0.24768
6.16 0.250456
6.17 0.253539
6.18 0.256888
6.19 0.260444
6.2 0.264126
6.21 0.267823
6.22 0.271405
6.23 0.274676
6.24 0.277493
6.25 0.27969
6.26 0.281106
6.27 0.281584
6.28 0.280984
6.29 0.279112
6.3 0.275843
6.31 0.271188
6.32 0.265111
6.33 0.257607
6.34 0.248703
6.35 0.238455
6.36 0.226829
6.37 0.214073
6.38 0.200341
6.39 0.185789
6.4 0.170586
6.41 0.154908
6.42 0.138925
6.43 0.122828
6.44 0.106794
6.45 0.0909677
6.46 0.0754707
6.47 0.060404
6.48 0.0458441
6.49 0.0318964
6.5 0.0185432
6.51 0.00576432
6.52 -0.00647074
6.53 -0.0182128
6.54 -0.0295295
6.55 -0.0404941
6.56 -0.0511945
6.57 -0.0617531
6.58 -0.072262
6.59 -0.0828069
6.6 -0.0934637
6.61 -0.104294
6.62 -0.115364
6.63 -0.126688
6.64 -0.138259
6.65 -0.150055
6.66 -0.162033
6.67 -0.174131
6.68 -0.186269
6.69 -0.19833
6.7 -0.210203
6.71 -0.221767
6.72 -0.2329
6.73 -0.243476
6.74 -0.253375
6.75 -0.262416
6.76 -0.270503
6.77 -0.277583
6.78 -0.283581
6.79 -0.288439
6.8 -0.292116
6.81 -0.294578
6.82 -0.295695
6.83 -0.29561
6.84 -0.294347
6.85 -0.291941
6.86 -0.288434
6.87 -0.283875
6.88 -0.278255
6.89 -0.271639
6.9 -0.264127
6.91 -0.255762
6.92 -0.246575
6.93 -0.23659
6.94 -0.225823
6.95 -0.214188
6.96 -0.201763
6.97 -0.188534
6.98 -0.174475
6.99 -0.159558
7 -0.143748
7.01 -0.126963
7.02 -0.109149
7.03 -0.0903412
7.04 -0.070521
7.05 -0.0496788
7.06 -0.0278173
7.07 -0.00495314
7.08 0.0189767
7.09 0.0438287
7.1 0.0695198
7.11 0.0959636
7.12 0.123058
7.13 0.150687
7.14 0.178729
7.15 0.207033
7.16 0.235418
7.17 0.263726
7.18 0.291796
7.19 0.319469
7.2 0.346587
7.21 0.372916
7.22 0.398345
7.23 0.422755
7.24 0.446026
7.25 0.468047
7.26 0.488722
7.27 0.507925
7.28 0.52549
7.29 0.541493
7.3 0.555896
7.31 0.568673
7.32 0.579806
7.33 0.589289
7.34 0.596991
7.35 0.602994
7.36 0.607371
7.37 0.610139
7.38 0.611316
7.39 0.610922
7.4 0.608951
7.41 0.605295
7.42 0.600129
7.43 0.59347
7.44 0.585334
7.45 0.575739
7.46 0.564701
7.47 0.552141
7.48 0.538116
7.49 0.522719
7.5 0.50598
7.51 0.487936
7.52 0.468628
7.53 0.448103
7.54 0.426306
7.55 0.403443
7.56 0.379597
7.57 0.354857
7.58 0.329328
7.59 0.30312
7.6 0.276331
7.61 0.249113
7.62 0.221636
7.63 0.194047
7.64 0.166497
7.65 0.13914
7.66 0.112131
7.67 0.0856995
7.68 0.0599593
7.69 0.0350552
7.7 0.0111279
7.71 -0.0116903
7.72 -0.0332773
7.73 -0.0534545
7.74 -0.072083
7.75 -0.0891804
7.76 -0.104687
7.77 -0.11856
7.78 -0.130776
7.79 -0.141329
7.8 -0.150067
7.81 -0.157168
7.82 -0.16271
7.83 -0.166763
7.84 -0.169408
7.85 -0.170742
7.86 -0.170832
7.87 -0.169763
7.88 -0.167753
7.89 -0.164929
7.9 -0.161419
7.91 -0.157347
7.92 -0.152834
7.93 -0.147976
7.94 -0.14291
7.95 -0.137737
7.96 -0.132535
7.97 -0.127372
7.98 -0.122298
7.99 -0.117354
8 -0.112575
8.01 -0.107953
8.02 -0.103481
8.03 -0.0991399
8.04 -0.0949027
8.05 -0.0907346
8.06 -0.0865947
8.07 -0.082434
8.08 -0.0782098
8.09 -0.0738835
8.1 -0.0694217
8.11 -0.0647982
8.12 -0.0599933
8.13 -0.0549843
8.14 -0.0497977
8.15 -0.0444532
8.16 -0.0389821
8.17 -0.033427
8.18 -0.0278405
8.19 -0.0222906
8.2 -0.0168554
8.21 -0.0116064
8.22 -0.00661825
8.23 -0.00196435
8.24 0.0022857
8.25 0.00606687
8.26 0.0092621
8.27 0.0118859
8.28 0.0139114
8.29 0.0153264
8.3 0.0161336
8.31 0.0163516
8.32 0.0159852
8.33 0.0150895
8.34 0.0137619
8.35 0.0120767
8.36 0.010116
8.37 0.0079673
8.38 0.00572033
8.39 0.00347236
8.4 0.00131654
8.41 -0.000671721
8.42 -0.00242757
8.43 -0.00389914
8.44 -0.00504943
8.45 -0.00584224
8.46 -0.00626739
8.47 -0.0063689
8.48 -0.00618317
8.49 -0.00576257
8.5 -0.00517385
8.51 -0.0044959
8.52 -0.00382666
8.53 -0.00327265
8.54 -0.00293238
8.55 -0.00290353
8.56 -0.00327945
8.57 -0.00414601
8.58 -0.0056003
8.59 -0.00774186
8.6 -0.0105654
8.61 -0.0140966
8.62 -0.0183431
8.63 -0.0232946
8.64 -0.028923
8.65 -0.0352337
8.66 -0.0421208
8.67 -0.0494904
8.68 -0.0572575
8.69 -0.0653307
8.7 -0.0736154
8.71 -0.0820173
8.72 -0.0904349
8.73 -0.0987757
8.74 -0.106966
8.75 -0.114942
8.76 -0.122656
8.77 -0.130074
8.78 -0.137151
8.79 -0.143895
8.8 -0.150334
8.81 -0.156493
8.82 -0.16241
8.83 -0.168128
8.84 -0.1737
8.85 -0.179176
8.86 -0.184624
8.87 -0.190095
8.88 -0.195631
8.89 -0.201268
8.9 -0.207028
8.91 -0.212931
8.92 -0.218971
8.93 -0.225119
8.94 -0.23134
8.95 -0.237588
8.96 -0.243803
8.97 -0.249916
8.98 -0.25582
8.99 -0.261447
9 -0.266713
9.01 -0.271538
9.02 -0.275846
9.03 -0.279567
9.04 -0.282609
9.05 -0.284913
9.06 -0.286496
9.07 -0.287347
9.08 -0.287472
9.09 -0.286894
9.1 -0.285653
9.11 -0.283742
9.12 -0.281297
9.13 -0.278404
9.14 -0.275149
9.15 -0.271625
9.16 -0.267923
9.17 -0.264137
9.18 -0.260366
9.19 -0.256691
9.2 -0.253181
9.21 -0.24989
9.22 -0.246861
9.23 -0.244121
9.24 -0.24171
9.25 -0.239602
9.26 -0.23777
9.27 -0.236183
9.28 -0.234798
9.29 -0.233566
9.3 -0.232432
9.31 -0.231331
9.32 -0.230195
9.33 -0.228969
9.34 -0.227601
9.35 -0.226047
9.36 -0.22427
9.37 -0.222224
9.38 -0.219906
9.39 -0.217324
9.4 -0.214488
9.41 -0.211418
9.42 -0.208141
9.43 -0.204691
9.44 -0.201104
9.45 -0.197438
9.46 -0.193736
9.47 -0.190038
9.48 -0.18638
9.49 -0.182788
9.5 -0.179289
9.51 -0.175889
9.52 -0.172577
9.53 -0.169335
9.54 -0.166133
9.55 -0.162929
9.56 -0.159668
9.57 -0.156271
9.58 -0.152671
9.59 -0.148794
9.6 -0.14456
9.61 -0.139891
9.62 -0.134711
9.63 -0.128907
9.64 -0.122411
9.65 -0.115202
9.66 -0.107239
9.67 -0.0984918
9.68 -0.088943
9.69 -0.0785894
9.7 -0.0673512
9.71 -0.0553458
9.72 -0.0426114
9.73 -0.029195
9.74 -0.0151524
9.75 -0.00054576
9.76 0.0145793
9.77 0.0301479
9.78 0.0460569
9.79 0.0622363
9.8 0.0786186
9.81 0.0951403
9.82 0.111742
9.83 0.128369
9.84 0.144967
9.85 0.161493
9.86 0.177913
9.87 0.194195
9.88 0.210311
9.89 0.226226
9.9 0.241903
9.91 0.257333
9.92 0.272489
9.93 0.287341
9.94 0.301858
9.95 0.316002
9.96 0.32969
9.97 0.342901
9.98 0.355597
9.99 0.367725
10 0.379233
10.01 0.390068
10.02 0.400155
10.03 0.409394
10.04 0.417807
10.05 0.425358
10.06 0.43202
10.07 0.437774
10.08 0.442616
10.09 0.446476
10.1 0.449419
10.11 0.451511
10.12 0.452796
10.13 0.453331
10.14 0.453182
10.15 0.452416
10.16 0.451081
10.17 0.449323
10.18 0.447232
10.19 0.444896
10.2 0.442399
10.21 0.439823
10.22 0.437244
10.23 0.434735
10.24 0.432346
10.25 0.430115
10.26 0.428069
10.27 0.426222
10.28 0.424577
10.29 0.42314
10.3 0.421865
10.31 0.420719
10.32 0.419661
10.33 0.418644
10.34 0.417618
10.35 0.416523
10.36 0.415299
10.37 0.413898
10.38 0.412275
10.39 0.410385
10.4 0.408192
10.41 0.405664
10.42 0.402734
10.43 0.399419
10.44 0.39571
10.45 0.391598
10.46 0.387078
10.47 0.382148
10.48 0.376785
10.49 0.37098
10.5 0.364756
10.51 0.358106
10.52 0.351019
10.53 0.34348
10.54 0.335467
10.55 0.326904
10.56 0.317802
10.57 0.308134
10.58 0.297868
10.59 0.286968
10.6 0.275403
10.61 0.263115
10.62 0.250047
10.63 0.236241
10.64 0.221692
10.65 0.206404
10.66 0.190398
10.67 0.173704
10.68 0.156314
10.69 0.13834
10.7 0.119874
10.71 0.101004
10.72 0.0818295
10.73 0.062457
10.74 0.0430014
10.75 0.0235973
10.76 0.00436734
10.77 -0.0145751
10.78 -0.0331231
10.79 -0.0511795
10.8 -0.0686592
10.81 -0.0854359
10.82 -0.101479
10.83 -0.116784
10.84 -0.131339
10.85 -0.145154
10.86 -0.158256
10.87 -0.170683
10.88 -0.182454
10.89 -0.193716
10.9 -0.20456
10.91 -0.215084
10.92 -0.225389
10.93 -0.235578
10.94 -0.245755
10.95 -0.256025
10.96 -0.266464
10.97 -0.277138
10.98 -0.288094
10.99 -0.299361
11 -0.31095
11.01 -0.322878
11.02 -0.335073
11.03 -0.347478
11.04 -0.360017
11.05 -0.372601
11.06 -0.385124
11.07 -0.397455
11.08 -0.409452
11.09 -0.421
11.1 -0.431976
11.11 -0.442258
11.12 -0.451734
11.13 -0.460304
11.14 -0.467762
11.15 -0.474135
11.16 -0.47938
11.17 -0.483466
11.18 -0.486382
11.19 -0.488132
11.2 -0.48869
11.21 -0.488077
11.22 -0.48643
11.23 -0.483818
11.24 -0.480318
11.25 -0.47601
11.26 -0.470981
11.27 -0.465257
11.28 -0.45898
11.29 -0.452233
11.3 -0.445081
11.31 -0.437576
11.32 -0.429761
11.33 -0.421655
11.34 -0.413266
11.35 -0.404615
11.36 -0.395695
11.37 -0.386484
11.38 -0.376955
11.39 -0.367075
11.4 -0.356766
11.41 -0.346009
11.42 -0.334775
11.43 -0.323032
11.44 -0.310751
11.45 -0.297912
11.46 -0.284492
11.47 -0.270453
11.48 -0.255865
11.49 -0.240757
11.5 -0.225171
11.51 -0.209161
11.52 -0.192791
11.53 -0.176121
11.54 -0.15926
11.55 -0.142309
11.56 -0.125367
11.57 -0.108531
11.58 -0.0918999
11.59 -0.0755768
11.6 -0.0597006
11.61 -0.0443228
11.62 -0.0295197
11.63 -0.0153588
11.64 -0.00189639
11.65 0.010822
11.66 0.0227097
11.67 0.0337556
11.68 0.0439923
11.69 0.053424
11.7 0.0620648
11.71 0.0699383
11.72 0.0770747
11.73 0.0834394
11.74 0.0891615
11.75 0.0942905
11.76 0.0988783
11.77 0.102978
11.78 0.106643
11.79 0.109906
11.8 0.112824
11.81 0.115465
11.82 0.117871
11.83 0.12008
11.84 0.122125
11.85 0.124034
11.86 0.125819
11.87 0.127509
11.88 0.129116
11.89 0.130642
11.9 0.132089
11.91 0.13345
11.92 0.134709
11.93 0.135843
11.94 0.136838
11.95 0.137666
11.96 0.138298
11.97 0.138698
11.98 0.138828
11.99 0.138612
12 0.138022
12.01 0.137018
12.02 0.135551
12.03 0.133569
12.04 0.131022
12.05 0.127838
12.06 0.123927
12.07 0.119296
12.08 0.113904
12.09 0.107711
12.1 0.100688
12.11 0.0928071
12.12 0.0839753
12.13 0.0742308
12.14 0.0636029
12.15 0.0521033
12.16 0.0397537
12.17 0.0265865
12.18 0.0126288
