# xPDFsuite Configuration #
[PDF]
wavelength = 0.1
dataformat = QA
inputfile = BiMsol6_insitu_700 C-00099.xy
backgroundfile = Quartz2mm-dist500-00000.xy
mode = xray
bgscale = 0.0042
composition = Bi2Fe4O9
outputtype = gr
qmaxinst = 24.998449118
qmin = 0.1
qmax = 21.4986662415
rmax = 80.0
rmin = 0.0
rstep = 0.01
rpoly = 0.9

[Misc]
inputdir = C:/Data/Seafile/CPH/Beamtime/Desy Oct 20/In situ data/Processed/BiMsol6/PDF
savedir = C:/Data/Seafile/CPH/Beamtime/Desy Oct 20/In situ data/PDF/BiMsol6
backgroundfilefull = C:/Data/Seafile/CPH/Beamtime/Desy Oct 20/In situ data/Processed/Standard_Empty_Cap/Quartz2mm-dist500-00000.xy

#### start data
#S 1
#L r($\AA$)  G($\AA^{-2}$)
0 0
0.01 0.00617578
0.02 0.0120034
0.03 0.0171849
0.04 0.0214531
0.05 0.0245838
0.06 0.0264062
0.07 0.0267339
0.08 0.025513
0.09 0.0228822
0.1 0.0189556
0.11 0.0139101
0.12 0.00797718
0.13 0.00143297
0.14 -0.0054117
0.15 -0.0121675
0.16 -0.0185058
0.17 -0.0241185
0.18 -0.0287298
0.19 -0.03211
0.2 -0.0340233
0.21 -0.0343099
0.22 -0.0330672
0.23 -0.0303616
0.24 -0.0263354
0.25 -0.0212016
0.26 -0.0152359
0.27 -0.0087531
0.28 -0.00220166
0.29 0.00401934
0.3 0.00952269
0.31 0.0139411
0.32 0.0169455
0.33 0.0182031
0.34 0.01739
0.35 0.0145623
0.36 0.00972324
0.37 0.00297713
0.38 -0.00546889
0.39 -0.0153081
0.4 -0.0261829
0.41 -0.0374887
0.42 -0.0486331
0.43 -0.0590132
0.44 -0.0680066
0.45 -0.0749946
0.46 -0.0793233
0.47 -0.0801502
0.48 -0.0773008
0.49 -0.0704397
0.5 -0.0593521
0.51 -0.0439575
0.52 -0.0243189
0.53 -0.000382517
0.54 0.0273013
0.55 0.0580135
0.56 0.0910842
0.57 0.125733
0.58 0.161087
0.59 0.196201
0.6 0.229859
0.61 0.261127
0.62 0.289059
0.63 0.312768
0.64 0.331459
0.65 0.344454
0.66 0.350804
0.67 0.350133
0.68 0.342631
0.69 0.32832
0.7 0.307404
0.71 0.280262
0.72 0.247443
0.73 0.209172
0.74 0.166939
0.75 0.121717
0.76 0.0745348
0.77 0.0264604
0.78 -0.0214316
0.79 -0.0679764
0.8 -0.112008
0.81 -0.152739
0.82 -0.189407
0.83 -0.221389
0.84 -0.24821
0.85 -0.269563
0.86 -0.28473
0.87 -0.294277
0.88 -0.298513
0.89 -0.297819
0.9 -0.292701
0.91 -0.283777
0.92 -0.271658
0.93 -0.257128
0.94 -0.241213
0.95 -0.224704
0.96 -0.20836
0.97 -0.192888
0.98 -0.178917
0.99 -0.167211
1 -0.158089
1.01 -0.151772
1.02 -0.148414
1.03 -0.148042
1.04 -0.150567
1.05 -0.155861
1.06 -0.163726
1.07 -0.173537
1.08 -0.18485
1.09 -0.197186
1.1 -0.210054
1.11 -0.222968
1.12 -0.2354
1.13 -0.246907
1.14 -0.257168
1.15 -0.265914
1.16 -0.272961
1.17 -0.278205
1.18 -0.281599
1.19 -0.28308
1.2 -0.282986
1.21 -0.281535
1.22 -0.278994
1.23 -0.275663
1.24 -0.271862
1.25 -0.267926
1.26 -0.264207
1.27 -0.260982
1.28 -0.258478
1.29 -0.256872
1.3 -0.256276
1.31 -0.256745
1.32 -0.258361
1.33 -0.260905
1.34 -0.264219
1.35 -0.268096
1.36 -0.272288
1.37 -0.276522
1.38 -0.280478
1.39 -0.283829
1.4 -0.286326
1.41 -0.287739
1.42 -0.287879
1.43 -0.286614
1.44 -0.283871
1.45 -0.279486
1.46 -0.273701
1.47 -0.266671
1.48 -0.258606
1.49 -0.24977
1.5 -0.24047
1.51 -0.231057
1.52 -0.221946
1.53 -0.213499
1.54 -0.206058
1.55 -0.199932
1.56 -0.195385
1.57 -0.192625
1.58 -0.191993
1.59 -0.193386
1.6 -0.196735
1.61 -0.201925
1.62 -0.208763
1.63 -0.216982
1.64 -0.226277
1.65 -0.236235
1.66 -0.246347
1.67 -0.256163
1.68 -0.26523
1.69 -0.27311
1.7 -0.279391
1.71 -0.283501
1.72 -0.285231
1.73 -0.284417
1.74 -0.280923
1.75 -0.274698
1.76 -0.265779
1.77 -0.25423
1.78 -0.24014
1.79 -0.224044
1.8 -0.206304
1.81 -0.187332
1.82 -0.167573
1.83 -0.147491
1.84 -0.127599
1.85 -0.108395
1.86 -0.0902814
1.87 -0.0736149
1.88 -0.0586935
1.89 -0.0457442
1.9 -0.0349492
1.91 -0.0265671
1.92 -0.0203424
1.93 -0.0161617
1.94 -0.0138396
1.95 -0.0131289
1.96 -0.0137307
1.97 -0.015349
1.98 -0.0175514
1.99 -0.0199253
2 -0.0221157
2.01 -0.0237949
2.02 -0.0246754
2.03 -0.0245178
2.04 -0.0230047
2.05 -0.0201758
2.06 -0.0160234
2.07 -0.0106152
2.08 -0.004092
2.09 0.00333781
2.1 0.0114227
2.11 0.0197899
2.12 0.0280398
2.13 0.0357895
2.14 0.0426515
2.15 0.0482485
2.16 0.0522283
2.17 0.0540366
2.18 0.0535939
2.19 0.0507332
2.2 0.0453446
2.21 0.0373947
2.22 0.0269288
2.23 0.0139706
2.24 -0.00130025
2.25 -0.0184314
2.26 -0.0370838
2.27 -0.0568736
2.28 -0.0773845
2.29 -0.0981815
2.3 -0.118768
2.31 -0.138682
2.32 -0.157534
2.33 -0.174966
2.34 -0.190677
2.35 -0.20442
2.36 -0.215941
2.37 -0.225019
2.38 -0.231819
2.39 -0.236397
2.4 -0.238875
2.41 -0.239436
2.42 -0.238314
2.43 -0.23569
2.44 -0.231996
2.45 -0.227601
2.46 -0.222838
2.47 -0.218031
2.48 -0.213486
2.49 -0.209496
2.5 -0.206378
2.51 -0.204256
2.52 -0.203257
2.53 -0.203453
2.54 -0.204866
2.55 -0.207464
2.56 -0.211242
2.57 -0.216015
2.58 -0.22157
2.59 -0.227717
2.6 -0.234245
2.61 -0.240938
2.62 -0.247578
2.63 -0.253911
2.64 -0.259764
2.65 -0.264983
2.66 -0.269442
2.67 -0.27305
2.68 -0.275752
2.69 -0.277471
2.7 -0.278245
2.71 -0.278179
2.72 -0.277357
2.73 -0.275885
2.74 -0.273884
2.75 -0.271483
2.76 -0.2688
2.77 -0.266002
2.78 -0.263204
2.79 -0.2605
2.8 -0.257966
2.81 -0.255651
2.82 -0.253594
2.83 -0.251788
2.84 -0.250184
2.85 -0.248723
2.86 -0.247328
2.87 -0.245905
2.88 -0.244353
2.89 -0.242525
2.9 -0.240329
2.91 -0.23767
2.92 -0.234462
2.93 -0.230639
2.94 -0.226155
2.95 -0.220959
2.96 -0.215036
2.97 -0.208474
2.98 -0.201331
2.99 -0.193691
3 -0.185654
3.01 -0.177335
3.02 -0.168857
3.03 -0.160376
3.04 -0.152022
3.05 -0.143912
3.06 -0.13615
3.07 -0.128821
3.08 -0.122006
3.09 -0.11577
3.1 -0.110071
3.11 -0.10488
3.12 -0.100141
3.13 -0.0957702
3.14 -0.091659
3.15 -0.0876781
3.16 -0.0836563
3.17 -0.0794338
3.18 -0.0748511
3.19 -0.0697519
3.2 -0.0639882
3.21 -0.057407
3.22 -0.0498126
3.23 -0.0411999
3.24 -0.031512
3.25 -0.0207216
3.26 -0.00883135
3.27 0.00412573
3.28 0.0181554
3.29 0.0331225
3.3 0.0488673
3.31 0.0652558
3.32 0.0821413
3.33 0.0993699
3.34 0.116786
3.35 0.134223
3.36 0.151525
3.37 0.168566
3.38 0.185238
3.39 0.201456
3.4 0.217158
3.41 0.23227
3.42 0.246783
3.43 0.260743
3.44 0.274186
3.45 0.287163
3.46 0.299741
3.47 0.311995
3.48 0.323983
3.49 0.33582
3.5 0.347576
3.51 0.359311
3.52 0.371071
3.53 0.382882
3.54 0.394752
3.55 0.406661
3.56 0.418559
3.57 0.430378
3.58 0.44203
3.59 0.453407
3.6 0.464387
3.61 0.474762
3.62 0.484425
3.63 0.493235
3.64 0.50105
3.65 0.507734
3.66 0.513163
3.67 0.517171
3.68 0.519605
3.69 0.520513
3.7 0.519858
3.71 0.51763
3.72 0.513845
3.73 0.508544
3.74 0.501661
3.75 0.4934
3.76 0.483903
3.77 0.473293
3.78 0.461705
3.79 0.449281
3.8 0.436152
3.81 0.422449
3.82 0.408372
3.83 0.394051
3.84 0.37961
3.85 0.365158
3.86 0.350793
3.87 0.336614
3.88 0.322689
3.89 0.30906
3.9 0.295762
3.91 0.282819
3.92 0.270243
3.93 0.258044
3.94 0.246247
3.95 0.234805
3.96 0.223705
3.97 0.21293
3.98 0.202466
3.99 0.192298
4 0.182431
4.01 0.172845
4.02 0.163516
4.03 0.154437
4.04 0.145599
4.05 0.136996
4.06 0.128621
4.07 0.120487
4.08 0.112556
4.09 0.104815
4.1 0.0972461
4.11 0.0898292
4.12 0.0825407
4.13 0.075359
4.14 0.0682515
4.15 0.0611835
4.16 0.054127
4.17 0.0470557
4.18 0.0399466
4.19 0.0327818
4.2 0.0255412
4.21 0.0182291
4.22 0.0108523
4.23 0.00342642
4.24 -0.00402318
4.25 -0.0114621
4.26 -0.0188417
4.27 -0.0261008
4.28 -0.0331848
4.29 -0.0400315
4.3 -0.046577
4.31 -0.052758
4.32 -0.0585144
4.33 -0.0637383
4.34 -0.0684223
4.35 -0.0725412
4.36 -0.0760757
4.37 -0.0790205
4.38 -0.0813856
4.39 -0.0831774
4.4 -0.0844238
4.41 -0.0852278
4.42 -0.0856618
4.43 -0.0858085
4.44 -0.0857591
4.45 -0.0856097
4.46 -0.0854674
4.47 -0.0854396
4.48 -0.0856159
4.49 -0.0860767
4.5 -0.0868903
4.51 -0.08811
4.52 -0.0897846
4.53 -0.0919607
4.54 -0.0945903
4.55 -0.0976465
4.56 -0.101083
4.57 -0.104837
4.58 -0.108828
4.59 -0.112968
4.6 -0.117135
4.61 -0.121215
4.62 -0.125099
4.63 -0.128679
4.64 -0.131856
4.65 -0.13453
4.66 -0.136571
4.67 -0.137976
4.68 -0.13871
4.69 -0.13876
4.7 -0.138133
4.71 -0.136858
4.72 -0.134949
4.73 -0.132499
4.74 -0.129627
4.75 -0.126433
4.76 -0.12303
4.77 -0.119533
4.78 -0.116063
4.79 -0.112763
4.8 -0.109736
4.81 -0.107078
4.82 -0.104873
4.83 -0.103187
4.84 -0.102069
4.85 -0.101584
4.86 -0.101741
4.87 -0.102488
4.88 -0.103794
4.89 -0.105608
4.9 -0.107867
4.91 -0.110496
4.92 -0.113434
4.93 -0.116554
4.94 -0.119765
4.95 -0.122981
4.96 -0.126122
4.97 -0.129116
4.98 -0.131889
4.99 -0.134382
5 -0.13658
5.01 -0.138465
5.02 -0.140035
5.03 -0.1413
5.04 -0.142283
5.05 -0.142994
5.06 -0.143501
5.07 -0.143853
5.08 -0.144099
5.09 -0.144286
5.1 -0.14446
5.11 -0.144662
5.12 -0.14493
5.13 -0.145281
5.14 -0.145728
5.15 -0.146269
5.16 -0.146896
5.17 -0.147589
5.18 -0.148321
5.19 -0.149049
5.2 -0.149731
5.21 -0.150325
5.22 -0.150787
5.23 -0.151078
5.24 -0.151154
5.25 -0.150968
5.26 -0.150519
5.27 -0.149798
5.28 -0.148806
5.29 -0.147553
5.3 -0.146061
5.31 -0.144347
5.32 -0.142464
5.33 -0.140466
5.34 -0.138403
5.35 -0.136327
5.36 -0.134288
5.37 -0.132334
5.38 -0.130523
5.39 -0.128875
5.4 -0.127411
5.41 -0.126142
5.42 -0.125064
5.43 -0.124163
5.44 -0.123421
5.45 -0.122792
5.46 -0.122219
5.47 -0.121646
5.48 -0.121013
5.49 -0.120258
5.5 -0.119319
5.51 -0.118106
5.52 -0.116591
5.53 -0.114735
5.54 -0.112511
5.55 -0.109903
5.56 -0.106911
5.57 -0.103532
5.58 -0.0997984
5.59 -0.0957814
5.6 -0.0915396
5.61 -0.0871422
5.62 -0.082666
5.63 -0.0781921
5.64 -0.0738211
5.65 -0.0696323
5.66 -0.0656977
5.67 -0.0620808
5.68 -0.0588327
5.69 -0.0559899
5.7 -0.053591
5.71 -0.051648
5.72 -0.0501086
5.73 -0.0489335
5.74 -0.048067
5.75 -0.0474381
5.76 -0.0469639
5.77 -0.0465481
5.78 -0.0460757
5.79 -0.0454455
5.8 -0.04456
5.81 -0.0433288
5.82 -0.0416723
5.83 -0.0395066
5.84 -0.0367514
5.85 -0.0334249
5.86 -0.0295245
5.87 -0.0250691
5.88 -0.0200992
5.89 -0.0146756
5.9 -0.00885383
5.91 -0.00276401
5.92 0.00347205
5.93 0.00973635
5.94 0.0159077
5.95 0.0218661
5.96 0.0274878
5.97 0.0326255
5.98 0.037227
5.99 0.0412261
6 0.0445778
6.01 0.0472607
6.02 0.0492779
6.03 0.0506134
6.04 0.0513513
6.05 0.0515987
6.06 0.0514549
6.07 0.0510351
6.08 0.050466
6.09 0.0498829
6.1 0.0494502
6.11 0.0492982
6.12 0.0495495
6.13 0.050313
6.14 0.0516796
6.15 0.0537189
6.16 0.0565234
6.17 0.0601028
6.18 0.0644027
6.19 0.0693802
6.2 0.0749661
6.21 0.0810675
6.22 0.0875703
6.23 0.0943579
6.24 0.101239
6.25 0.10806
6.26 0.114665
6.27 0.120903
6.28 0.12663
6.29 0.131676
6.3 0.135906
6.31 0.139279
6.32 0.141734
6.33 0.143239
6.34 0.143788
6.35 0.143405
6.36 0.142053
6.37 0.1399
6.38 0.137059
6.39 0.133648
6.4 0.1298
6.41 0.125654
6.42 0.121356
6.43 0.117071
6.44 0.112943
6.45 0.109098
6.46 0.105644
6.47 0.102675
6.48 0.10026
6.49 0.0985054
6.5 0.0973907
6.51 0.0968953
6.52 0.0969898
6.53 0.0976233
6.54 0.0987264
6.55 0.100222
6.56 0.102013
6.57 0.103959
6.58 0.105949
6.59 0.10787
6.6 0.109615
6.61 0.111083
6.62 0.112149
6.63 0.112749
6.64 0.11284
6.65 0.112386
6.66 0.111366
6.67 0.109779
6.68 0.107633
6.69 0.104925
6.7 0.10176
6.71 0.0982011
6.72 0.0943196
6.73 0.0901937
6.74 0.0859049
6.75 0.0815355
6.76 0.0771783
6.77 0.07291
6.78 0.0687969
6.79 0.064896
6.8 0.0612542
6.81 0.05791
6.82 0.0549212
6.83 0.0522649
6.84 0.0499401
6.85 0.0479365
6.86 0.0462353
6.87 0.0448106
6.88 0.0436443
6.89 0.0426947
6.9 0.0419117
6.91 0.0412585
6.92 0.0407
6.93 0.0402034
6.94 0.0397394
6.95 0.0392815
6.96 0.0388069
6.97 0.0383004
6.98 0.0377507
6.99 0.0371505
7 0.0364948
7.01 0.0357778
7.02 0.0349969
7.03 0.0341546
7.04 0.0332485
7.05 0.0322749
7.06 0.0312282
7.07 0.0301001
7.08 0.0288695
7.09 0.0275299
7.1 0.0260675
7.11 0.0244658
7.12 0.0227083
7.13 0.0207791
7.14 0.0186559
7.15 0.0163189
7.16 0.0137764
7.17 0.0110276
7.18 0.00807771
7.19 0.00493871
7.2 0.00162977
7.21 -0.00183264
7.22 -0.00539988
7.23 -0.00902626
7.24 -0.0126638
7.25 -0.0162601
7.26 -0.0197592
7.27 -0.0230975
7.28 -0.0261969
7.29 -0.0290173
7.3 -0.0315076
7.31 -0.0336229
7.32 -0.0353255
7.33 -0.0365866
7.34 -0.0373493
7.35 -0.0376273
7.36 -0.0374437
7.37 -0.0368167
7.38 -0.0357752
7.39 -0.0343588
7.4 -0.0326121
7.41 -0.030578
7.42 -0.0283532
7.43 -0.0260068
7.44 -0.0236101
7.45 -0.0212344
7.46 -0.018949
7.47 -0.0168346
7.48 -0.0149547
7.49 -0.0133513
7.5 -0.0120653
7.51 -0.0111277
7.52 -0.0105588
7.53 -0.0103701
7.54 -0.0105986
7.55 -0.0111878
7.56 -0.012114
7.57 -0.0133455
7.58 -0.0148436
7.59 -0.0165646
7.6 -0.0184683
7.61 -0.0204974
7.62 -0.0225928
7.63 -0.0247069
7.64 -0.0267955
7.65 -0.0288189
7.66 -0.0307429
7.67 -0.032523
7.68 -0.0341512
7.69 -0.0356164
7.7 -0.0369137
7.71 -0.0380449
7.72 -0.0390179
7.73 -0.0398399
7.74 -0.0405287
7.75 -0.0411161
7.76 -0.0416253
7.77 -0.0420807
7.78 -0.0425062
7.79 -0.0429245
7.8 -0.0433589
7.81 -0.0438271
7.82 -0.0443413
7.83 -0.0449103
7.84 -0.0455382
7.85 -0.0462251
7.86 -0.0469684
7.87 -0.0477603
7.88 -0.0485842
7.89 -0.0494249
7.9 -0.0502649
7.91 -0.0510855
7.92 -0.0518669
7.93 -0.0525821
7.94 -0.0532131
7.95 -0.0537433
7.96 -0.0541558
7.97 -0.054436
7.98 -0.0545709
7.99 -0.0545462
8 -0.0543423
8.01 -0.0539691
8.02 -0.0534243
8.03 -0.0527082
8.04 -0.0518235
8.05 -0.050775
8.06 -0.0495583
8.07 -0.0481905
8.08 -0.0466893
8.09 -0.0450686
8.1 -0.043344
8.11 -0.0415332
8.12 -0.0396552
8.13 -0.0377303
8.14 -0.0357888
8.15 -0.0338559
8.16 -0.0319586
8.17 -0.0301249
8.18 -0.0283838
8.19 -0.0267748
8.2 -0.0253293
8.21 -0.0240692
8.22 -0.0230211
8.23 -0.0222092
8.24 -0.0216544
8.25 -0.0213748
8.26 -0.0214148
8.27 -0.0217478
8.28 -0.0223721
8.29 -0.0232792
8.3 -0.0244534
8.31 -0.0258712
8.32 -0.027512
8.33 -0.0293317
8.34 -0.0312716
8.35 -0.0332803
8.36 -0.0353017
8.37 -0.0372764
8.38 -0.0391435
8.39 -0.0408164
8.4 -0.0422469
8.41 -0.043381
8.42 -0.0441683
8.43 -0.0445656
8.44 -0.0445377
8.45 -0.0440381
8.46 -0.0430389
8.47 -0.0415721
8.48 -0.0396488
8.49 -0.0372917
8.5 -0.0345343
8.51 -0.0314205
8.52 -0.0279799
8.53 -0.0243052
8.54 -0.0204701
8.55 -0.0165462
8.56 -0.0126064
8.57 -0.00872284
8.58 -0.00497157
8.59 -0.00143413
8.6 0.00184563
8.61 0.00482148
8.62 0.00745744
8.63 0.00972873
8.64 0.0116224
8.65 0.0131054
8.66 0.0142135
8.67 0.0149829
8.68 0.0154481
8.69 0.0156517
8.7 0.0156432
8.71 0.0154743
8.72 0.0152018
8.73 0.0148963
8.74 0.0146123
8.75 0.0143996
8.76 0.0143023
8.77 0.0143567
8.78 0.0146053
8.79 0.0150602
8.8 0.0157182
8.81 0.0165738
8.82 0.0176112
8.83 0.0188057
8.84 0.0201259
8.85 0.0215351
8.86 0.0229762
8.87 0.0244022
8.88 0.0257658
8.89 0.0270214
8.9 0.0281269
8.91 0.0290315
8.92 0.0297046
8.93 0.030137
8.94 0.0303186
8.95 0.0302491
8.96 0.0299379
8.97 0.0294035
8.98 0.0286546
8.99 0.0277536
9 0.0267428
9.01 0.0256687
9.02 0.0245799
9.03 0.0235254
9.04 0.0225592
9.05 0.021732
9.06 0.0210746
9.07 0.0206164
9.08 0.0203782
9.09 0.0203715
9.1 0.0205983
9.11 0.0210728
9.12 0.0217524
9.13 0.0226062
9.14 0.0235983
9.15 0.024687
9.16 0.0258259
9.17 0.0269642
9.18 0.0280439
9.19 0.0290183
9.2 0.0298438
9.21 0.0304823
9.22 0.0309026
9.23 0.0310818
9.24 0.0309809
9.25 0.0306157
9.26 0.0299996
9.27 0.0291499
9.28 0.0280924
9.29 0.0268604
9.3 0.0254909
9.31 0.0240299
9.32 0.0225359
9.33 0.0210573
9.34 0.0196407
9.35 0.0183299
9.36 0.0171635
9.37 0.0161911
9.38 0.01543
9.39 0.0148881
9.4 0.0145702
9.41 0.0144716
9.42 0.0145789
9.43 0.0148733
9.44 0.0153326
9.45 0.0159026
9.46 0.016542
9.47 0.0172073
9.48 0.0178539
9.49 0.0184384
9.5 0.0189099
9.51 0.0192311
9.52 0.0193781
9.53 0.0193297
9.54 0.0190728
9.55 0.0186027
9.56 0.0179218
9.57 0.0170262
9.58 0.0159608
9.59 0.0147554
9.6 0.013445
9.61 0.0120688
9.62 0.0106689
9.63 0.00929197
9.64 0.00798611
9.65 0.0067887
9.66 0.00573421
9.67 0.00485153
9.68 0.00416289
9.69 0.00368315
9.7 0.00344409
9.71 0.00341837
9.72 0.00359465
9.73 0.0039548
9.74 0.00447442
9.75 0.00512394
9.76 0.00587289
9.77 0.00668056
9.78 0.00750419
9.79 0.008308
9.8 0.00905875
9.81 0.00972701
9.82 0.0102883
9.83 0.0107098
9.84 0.0109912
9.85 0.0111311
9.86 0.0111337
9.87 0.0110099
9.88 0.0107768
9.89 0.0104545
9.9 0.010072
9.91 0.00966614
9.92 0.009269
9.93 0.00891247
9.94 0.00862706
9.95 0.00844059
9.96 0.00839017
9.97 0.00848732
9.98 0.00874037
9.99 0.00915416
10 0.00972682
10.01 0.0104498
10.02 0.0113114
10.03 0.012294
10.04 0.013359
10.05 0.0144758
10.06 0.0156109
10.07 0.01673
10.08 0.0177984
10.09 0.0187736
10.1 0.0196254
10.11 0.0203312
10.12 0.0208697
10.13 0.0212256
10.14 0.0213891
10.15 0.0213534
10.16 0.0211064
10.17 0.0206777
10.18 0.0200824
10.19 0.0193403
10.2 0.0184746
10.21 0.0175109
10.22 0.0164738
10.23 0.0153964
10.24 0.0143087
10.25 0.0132353
10.26 0.0121985
10.27 0.0112169
10.28 0.0103058
10.29 0.00948498
10.3 0.00875141
10.31 0.00810597
10.32 0.00754566
10.33 0.0070641
10.34 0.00665216
10.35 0.00630129
10.36 0.00599673
10.37 0.00572216
10.38 0.00546493
10.39 0.00521351
10.4 0.00495802
10.41 0.00469067
10.42 0.00440378
10.43 0.00409657
10.44 0.00376934
10.45 0.00342447
10.46 0.00306612
10.47 0.00269971
10.48 0.00233154
10.49 0.00196861
10.5 0.00161612
10.51 0.00127771
10.52 0.000955021
10.53 0.000647213
10.54 0.000350711
10.55 5.85879e-05
10.56 -0.000240398
10.57 -0.00055884
10.58 -0.000911264
10.59 -0.00131353
10.6 -0.00178207
10.61 -0.00233664
10.62 -0.00299774
10.63 -0.00377015
10.64 -0.00466171
10.65 -0.00567579
10.66 -0.00681044
10.67 -0.00805793
10.68 -0.0094114
10.69 -0.0108406
10.7 -0.012315
10.71 -0.0138011
10.72 -0.0152608
10.73 -0.0166523
10.74 -0.0179273
10.75 -0.0190253
10.76 -0.0199137
10.77 -0.0205525
10.78 -0.0209065
10.79 -0.0209469
10.8 -0.0206531
10.81 -0.0199864
10.82 -0.0189624
10.83 -0.0176076
10.84 -0.0159472
10.85 -0.0140177
10.86 -0.0118661
10.87 -0.00954804
10.88 -0.00712932
10.89 -0.00469884
10.9 -0.00233373
10.91 -0.000112514
10.92 0.00188736
10.93 0.00359215
10.94 0.00490523
10.95 0.00576842
10.96 0.00615542
10.97 0.00603532
10.98 0.0053921
10.99 0.00422557
11 0.00254977
11.01 0.000351811
11.02 -0.00225921
11.03 -0.00521654
11.04 -0.008441
11.05 -0.0118432
11.06 -0.0153259
11.07 -0.01878
11.08 -0.0220853
11.09 -0.0251433
11.1 -0.0278587
11.11 -0.0301446
11.12 -0.0319261
11.13 -0.0331417
11.14 -0.0336755
11.15 -0.0335638
11.16 -0.0328065
11.17 -0.031418
11.18 -0.0294311
11.19 -0.0268959
11.2 -0.0238598
11.21 -0.0204062
11.22 -0.0166619
11.23 -0.0127275
11.24 -0.00870806
11.25 -0.00470949
11.26 -0.000835345
11.27 0.00278522
11.28 0.00607315
11.29 0.00895805
11.3 0.0113795
11.31 0.0132928
11.32 0.0146702
11.33 0.015482
11.34 0.0157135
11.35 0.0154372
11.36 0.0146962
11.37 0.0135464
11.38 0.0120548
11.39 0.0102967
11.4 0.00834427
11.41 0.00630222
11.42 0.00425807
11.43 0.00229023
11.44 0.000470429
11.45 -0.00113852
11.46 -0.00247729
11.47 -0.00348219
11.48 -0.00415624
11.49 -0.0044911
11.5 -0.00449223
11.51 -0.00417813
11.52 -0.0035792
11.53 -0.00272137
11.54 -0.00167086
11.55 -0.000493977
11.56 0.000749278
11.57 0.00199817
11.58 0.00319362
11.59 0.00427839
11.6 0.00518393
11.61 0.00588391
11.62 0.00634927
11.63 0.00656154
11.64 0.00651331
11.65 0.00620826
11.66 0.00564643
11.67 0.00486093
11.68 0.00389911
11.69 0.00280278
11.7 0.00161861
11.71 0.00039609
11.72 -0.000814349
11.73 -0.00195136
11.74 -0.00297303
11.75 -0.00384046
11.76 -0.00452184
11.77 -0.00499361
11.78 -0.00524128
11.79 -0.00524758
11.8 -0.00501782
11.81 -0.00458265
11.82 -0.00396675
11.83 -0.00320191
11.84 -0.00232565
