# xPDFsuite Configuration #
[PDF]
wavelength = 0.1
dataformat = QA
inputfile = BiMsol6_insitu_700 C-00573.xy
backgroundfile = Quartz2mm-dist500-00000.xy
mode = xray
bgscale = 0.0042
composition = Bi2Fe4O9
outputtype = gr
qmaxinst = 24.998449118
qmin = 0.1
qmax = 21.4986662415
rmax = 80.0
rmin = 0.0
rstep = 0.01
rpoly = 0.9

[Misc]
inputdir = C:/Data/Seafile/CPH/Beamtime/Desy Oct 20/In situ data/Processed/BiMsol6/PDF
savedir = C:/Data/Seafile/CPH/Beamtime/Desy Oct 20/In situ data/PDF/BiMsol6
backgroundfilefull = C:/Data/Seafile/CPH/Beamtime/Desy Oct 20/In situ data/Processed/Standard_Empty_Cap/Quartz2mm-dist500-00000.xy

#### start data
#S 1
#L r($\AA$)  G($\AA^{-2}$)
0 0
0.01 0.00597512
0.02 0.0116114
0.03 0.0166189
0.04 0.0207373
0.05 0.0237482
0.06 0.0254849
0.07 0.0257653
0.08 0.0245361
0.09 0.0219312
0.1 0.0180607
0.11 0.0130957
0.12 0.00726033
0.13 0.00082232
0.14 -0.00591763
0.15 -0.0125804
0.16 -0.0188463
0.17 -0.0244152
0.18 -0.0290183
0.19 -0.0324306
0.2 -0.0344216
0.21 -0.0348335
0.22 -0.0337581
0.23 -0.0312577
0.24 -0.0274677
0.25 -0.0225926
0.26 -0.0168978
0.27 -0.0106859
0.28 -0.00439189
0.29 0.00159704
0.3 0.00690474
0.31 0.0111737
0.32 0.0140826
0.33 0.0153061
0.34 0.0145261
0.35 0.0117922
0.36 0.0071027
0.37 0.000553775
0.38 -0.00765879
0.39 -0.0172425
0.4 -0.0278575
0.41 -0.0389207
0.42 -0.0498594
0.43 -0.0600906
0.44 -0.0690111
0.45 -0.0760195
0.46 -0.0804791
0.47 -0.0815693
0.48 -0.0791106
0.49 -0.0727692
0.5 -0.0623261
0.51 -0.0476911
0.52 -0.0289121
0.53 -0.00591869
0.54 0.0207712
0.55 0.0504729
0.56 0.0825512
0.57 0.116262
0.58 0.150773
0.59 0.185175
0.6 0.218312
0.61 0.249269
0.62 0.277128
0.63 0.301027
0.64 0.320188
0.65 0.333943
0.66 0.341362
0.67 0.342062
0.68 0.336199
0.69 0.323769
0.7 0.304943
0.71 0.280061
0.72 0.249628
0.73 0.213818
0.74 0.174054
0.75 0.131251
0.76 0.0863841
0.77 0.0404654
0.78 -0.00548179
0.79 -0.0503543
0.8 -0.0930357
0.81 -0.132753
0.82 -0.168765
0.83 -0.20046
0.84 -0.22737
0.85 -0.249178
0.86 -0.265187
0.87 -0.275902
0.88 -0.281594
0.89 -0.282601
0.9 -0.279385
0.91 -0.272515
0.92 -0.26255
0.93 -0.250219
0.94 -0.236489
0.95 -0.222104
0.96 -0.207782
0.97 -0.194191
0.98 -0.181931
0.99 -0.171723
1 -0.163885
1.01 -0.158638
1.02 -0.156138
1.03 -0.156422
1.04 -0.15942
1.05 -0.165019
1.06 -0.173047
1.07 -0.182922
1.08 -0.194231
1.09 -0.206528
1.1 -0.219351
1.11 -0.232243
1.12 -0.244704
1.13 -0.25631
1.14 -0.266748
1.15 -0.275758
1.16 -0.283152
1.17 -0.288822
1.18 -0.292709
1.19 -0.294733
1.2 -0.295204
1.21 -0.294315
1.22 -0.292307
1.23 -0.289452
1.24 -0.286044
1.25 -0.282385
1.26 -0.278808
1.27 -0.275582
1.28 -0.272925
1.29 -0.271011
1.3 -0.269957
1.31 -0.26983
1.32 -0.270718
1.33 -0.272444
1.34 -0.274878
1.35 -0.277847
1.36 -0.281141
1.37 -0.284525
1.38 -0.287722
1.39 -0.290447
1.4 -0.292476
1.41 -0.293607
1.42 -0.29367
1.43 -0.292547
1.44 -0.290169
1.45 -0.286393
1.46 -0.281423
1.47 -0.275389
1.48 -0.268473
1.49 -0.260901
1.5 -0.252937
1.51 -0.244884
1.52 -0.237099
1.53 -0.229894
1.54 -0.223558
1.55 -0.218356
1.56 -0.21451
1.57 -0.212191
1.58 -0.211684
1.59 -0.212889
1.6 -0.215735
1.61 -0.220112
1.62 -0.22584
1.63 -0.232677
1.64 -0.240344
1.65 -0.248467
1.66 -0.256608
1.67 -0.264372
1.68 -0.271367
1.69 -0.277212
1.7 -0.281558
1.71 -0.283909
1.72 -0.284105
1.73 -0.282023
1.74 -0.277563
1.75 -0.270703
1.76 -0.261498
1.77 -0.250027
1.78 -0.236399
1.79 -0.221098
1.8 -0.204461
1.81 -0.186863
1.82 -0.168708
1.83 -0.15041
1.84 -0.132437
1.85 -0.115221
1.86 -0.0991029
1.87 -0.084389
1.88 -0.0713293
1.89 -0.0601092
1.9 -0.0508733
1.91 -0.0438353
1.92 -0.0387435
1.93 -0.0354801
1.94 -0.033866
1.95 -0.0336689
1.96 -0.0346145
1.97 -0.0364324
1.98 -0.0387381
1.99 -0.0411701
2 -0.0434213
2.01 -0.0452122
2.02 -0.0463029
2.03 -0.046499
2.04 -0.0455472
2.05 -0.0435016
2.06 -0.0403783
2.07 -0.0362599
2.08 -0.0312922
2.09 -0.0256794
2.1 -0.0196711
2.11 -0.0136125
2.12 -0.00785374
2.13 -0.00273641
2.14 0.00139913
2.15 0.00422683
2.16 0.00544777
2.17 0.00457429
2.18 0.00157718
2.19 -0.00366352
2.2 -0.0112157
2.21 -0.0210777
2.22 -0.0331777
2.23 -0.0474605
2.24 -0.063731
2.25 -0.0815635
2.26 -0.100634
2.27 -0.120582
2.28 -0.141024
2.29 -0.161565
2.3 -0.181745
2.31 -0.201171
2.32 -0.219505
2.33 -0.236446
2.34 -0.25174
2.35 -0.265192
2.36 -0.276595
2.37 -0.28578
2.38 -0.292923
2.39 -0.298098
2.4 -0.301438
2.41 -0.303123
2.42 -0.30338
2.43 -0.302389
2.44 -0.300537
2.45 -0.298153
2.46 -0.29553
2.47 -0.29295
2.48 -0.290672
2.49 -0.288943
2.5 -0.288024
2.51 -0.288
2.52 -0.288958
2.53 -0.290942
2.54 -0.293945
2.55 -0.297915
2.56 -0.302817
2.57 -0.30847
2.58 -0.314675
2.59 -0.321249
2.6 -0.328
2.61 -0.33473
2.62 -0.341243
2.63 -0.347305
2.64 -0.352787
2.65 -0.357561
2.66 -0.361529
2.67 -0.364625
2.68 -0.366817
2.69 -0.368048
2.7 -0.368371
2.71 -0.3679
2.72 -0.366725
2.73 -0.364954
2.74 -0.362708
2.75 -0.360113
2.76 -0.357286
2.77 -0.354386
2.78 -0.351521
2.79 -0.348787
2.8 -0.346256
2.81 -0.343984
2.82 -0.342016
2.83 -0.340364
2.84 -0.338988
2.85 -0.33785
2.86 -0.336896
2.87 -0.336057
2.88 -0.335258
2.89 -0.334401
2.9 -0.333402
2.91 -0.332181
2.92 -0.33067
2.93 -0.328808
2.94 -0.326547
2.95 -0.323834
2.96 -0.320635
2.97 -0.316978
2.98 -0.312871
2.99 -0.308331
3 -0.303382
3.01 -0.298047
3.02 -0.292319
3.03 -0.286242
3.04 -0.27983
3.05 -0.273077
3.06 -0.265959
3.07 -0.258436
3.08 -0.250429
3.09 -0.241819
3.1 -0.232544
3.11 -0.222488
3.12 -0.211522
3.13 -0.199512
3.14 -0.186316
3.15 -0.171676
3.16 -0.155519
3.17 -0.137779
3.18 -0.118368
3.19 -0.097227
3.2 -0.074327
3.21 -0.0496404
3.22 -0.0230962
3.23 0.0050386
3.24 0.0346245
3.25 0.0654817
3.26 0.097393
3.27 0.130107
3.28 0.163358
3.29 0.196781
3.3 0.230031
3.31 0.262775
3.32 0.294682
3.33 0.325428
3.34 0.354687
3.35 0.381969
3.36 0.407189
3.37 0.430134
3.38 0.45063
3.39 0.468546
3.4 0.483794
3.41 0.496162
3.42 0.505679
3.43 0.512547
3.44 0.516853
3.45 0.518722
3.46 0.5183
3.47 0.51576
3.48 0.511086
3.49 0.504715
3.5 0.496846
3.51 0.487676
3.52 0.47739
3.53 0.466164
3.54 0.454122
3.55 0.441415
3.56 0.428207
3.57 0.414596
3.58 0.400658
3.59 0.386456
3.6 0.372037
3.61 0.35742
3.62 0.342654
3.63 0.327764
3.64 0.312777
3.65 0.297722
3.66 0.282637
3.67 0.267574
3.68 0.252606
3.69 0.23781
3.7 0.223279
3.71 0.209121
3.72 0.195454
3.73 0.18241
3.74 0.170213
3.75 0.15897
3.76 0.14881
3.77 0.139875
3.78 0.1323
3.79 0.126209
3.8 0.121761
3.81 0.119157
3.82 0.11832
3.83 0.119292
3.84 0.122091
3.85 0.12671
3.86 0.133117
3.87 0.141394
3.88 0.151364
3.89 0.162867
3.9 0.175781
3.91 0.189973
3.92 0.205298
3.93 0.221622
3.94 0.238833
3.95 0.256683
3.96 0.275019
3.97 0.293693
3.98 0.312563
3.99 0.331499
4 0.350363
4.01 0.369031
4.02 0.387404
4.03 0.40539
4.04 0.422907
4.05 0.439875
4.06 0.456218
4.07 0.47179
4.08 0.486595
4.09 0.500569
4.1 0.513648
4.11 0.525767
4.12 0.536859
4.13 0.546788
4.14 0.555479
4.15 0.562926
4.16 0.569063
4.17 0.573826
4.18 0.577156
4.19 0.579
4.2 0.579135
4.21 0.577691
4.22 0.574651
4.23 0.570007
4.24 0.563763
4.25 0.555935
4.26 0.546481
4.27 0.535426
4.28 0.522935
4.29 0.509078
4.3 0.493935
4.31 0.477594
4.32 0.460145
4.33 0.441591
4.34 0.422124
4.35 0.401851
4.36 0.38086
4.37 0.359231
4.38 0.33704
4.39 0.314336
4.4 0.291164
4.41 0.267609
4.42 0.243711
4.43 0.2195
4.44 0.195003
4.45 0.170244
4.46 0.145224
4.47 0.119986
4.48 0.0945609
4.49 0.0689824
4.5 0.0432902
4.51 0.0175328
4.52 -0.00822915
4.53 -0.0339116
4.54 -0.059432
4.55 -0.0846975
4.56 -0.109606
4.57 -0.134049
4.58 -0.157913
4.59 -0.181016
4.6 -0.203256
4.61 -0.224551
4.62 -0.244797
4.63 -0.263901
4.64 -0.281784
4.65 -0.298363
4.66 -0.313476
4.67 -0.327235
4.68 -0.339641
4.69 -0.350718
4.7 -0.360509
4.71 -0.369076
4.72 -0.376429
4.73 -0.382703
4.74 -0.388063
4.75 -0.392629
4.76 -0.396525
4.77 -0.399875
4.78 -0.4028
4.79 -0.405397
4.8 -0.407812
4.81 -0.410137
4.82 -0.412447
4.83 -0.414801
4.84 -0.417241
4.85 -0.419796
4.86 -0.422471
4.87 -0.425245
4.88 -0.428089
4.89 -0.430964
4.9 -0.433818
4.91 -0.436595
4.92 -0.439213
4.93 -0.441619
4.94 -0.443755
4.95 -0.44557
4.96 -0.447016
4.97 -0.448058
4.98 -0.448648
4.99 -0.448757
5 -0.448413
5.01 -0.447623
5.02 -0.446402
5.03 -0.44477
5.04 -0.442756
5.05 -0.440354
5.06 -0.437627
5.07 -0.434607
5.08 -0.431315
5.09 -0.427766
5.1 -0.423968
5.11 -0.419908
5.12 -0.415561
5.13 -0.410923
5.14 -0.405963
5.15 -0.400643
5.16 -0.394918
5.17 -0.388743
5.18 -0.382024
5.19 -0.374742
5.2 -0.366876
5.21 -0.358401
5.22 -0.349302
5.23 -0.33958
5.24 -0.329239
5.25 -0.318282
5.26 -0.306823
5.27 -0.29494
5.28 -0.282726
5.29 -0.270291
5.3 -0.257758
5.31 -0.245274
5.32 -0.232997
5.33 -0.22107
5.34 -0.209631
5.35 -0.198815
5.36 -0.188745
5.37 -0.179543
5.38 -0.171393
5.39 -0.164267
5.4 -0.158204
5.41 -0.15322
5.42 -0.149301
5.43 -0.146412
5.44 -0.144551
5.45 -0.143605
5.46 -0.14342
5.47 -0.143875
5.48 -0.144839
5.49 -0.146175
5.5 -0.147745
5.51 -0.14941
5.52 -0.151019
5.53 -0.152459
5.54 -0.153632
5.55 -0.154457
5.56 -0.154872
5.57 -0.154812
5.58 -0.154253
5.59 -0.153228
5.6 -0.151759
5.61 -0.149885
5.62 -0.147654
5.63 -0.145123
5.64 -0.142335
5.65 -0.139381
5.66 -0.136319
5.67 -0.133196
5.68 -0.130045
5.69 -0.126889
5.7 -0.123728
5.71 -0.120542
5.72 -0.117294
5.73 -0.113927
5.74 -0.110369
5.75 -0.106537
5.76 -0.102334
5.77 -0.0976028
5.78 -0.0922656
5.79 -0.0862328
5.8 -0.0794143
5.81 -0.0717329
5.82 -0.063129
5.83 -0.0535317
5.84 -0.0428783
5.85 -0.0312693
5.86 -0.0187516
5.87 -0.00539958
5.88 0.00868594
5.89 0.0233798
5.9 0.0385606
5.91 0.0540161
5.92 0.0695534
5.93 0.0849875
5.94 0.100133
5.95 0.114811
5.96 0.128834
5.97 0.141977
5.98 0.154179
5.99 0.165343
6 0.175401
6.01 0.184319
6.02 0.192091
6.03 0.19867
6.04 0.204162
6.05 0.208711
6.06 0.212434
6.07 0.215467
6.08 0.217961
6.09 0.220069
6.1 0.221947
6.11 0.223781
6.12 0.22571
6.13 0.22785
6.14 0.230297
6.15 0.233117
6.16 0.236374
6.17 0.240064
6.18 0.244125
6.19 0.248488
6.2 0.253053
6.21 0.257692
6.22 0.262256
6.23 0.266526
6.24 0.270334
6.25 0.273494
6.26 0.275822
6.27 0.277143
6.28 0.277298
6.29 0.276074
6.3 0.273327
6.31 0.269069
6.32 0.263259
6.33 0.255892
6.34 0.246997
6.35 0.236639
6.36 0.224785
6.37 0.21171
6.38 0.19759
6.39 0.182603
6.4 0.166943
6.41 0.150811
6.42 0.134407
6.43 0.117956
6.44 0.101658
6.45 0.0856808
6.46 0.0701703
6.47 0.0552461
6.48 0.041
6.49 0.0275672
6.5 0.0149235
6.51 0.00304531
6.52 -0.00810199
6.53 -0.0185783
6.54 -0.0284652
6.55 -0.0378502
6.56 -0.0468404
6.57 -0.0555968
6.58 -0.0642406
6.59 -0.0728886
6.6 -0.0816485
6.61 -0.0906144
6.62 -0.0998917
6.63 -0.109526
6.64 -0.119533
6.65 -0.129918
6.66 -0.140657
6.67 -0.151705
6.68 -0.162996
6.69 -0.174439
6.7 -0.185903
6.71 -0.197264
6.72 -0.208391
6.73 -0.219145
6.74 -0.229388
6.75 -0.238929
6.76 -0.247641
6.77 -0.255439
6.78 -0.26222
6.79 -0.267899
6.8 -0.272406
6.81 -0.275681
6.82 -0.277563
6.83 -0.278173
6.84 -0.277516
6.85 -0.275611
6.86 -0.272488
6.87 -0.268187
6.88 -0.262687
6.89 -0.256055
6.9 -0.248403
6.91 -0.239783
6.92 -0.230242
6.93 -0.219821
6.94 -0.208554
6.95 -0.19638
6.96 -0.183409
6.97 -0.169656
6.98 -0.155124
6.99 -0.139815
7 -0.123724
7.01 -0.106806
7.02 -0.0890428
7.03 -0.0704842
7.04 -0.0511332
7.05 -0.0309992
7.06 -0.0100998
7.07 0.0115378
7.08 0.0339431
7.09 0.0569969
7.1 0.0806263
7.11 0.104756
7.12 0.129302
7.13 0.15417
7.14 0.17926
7.15 0.204453
7.16 0.229618
7.17 0.254639
7.18 0.2794
7.19 0.303784
7.2 0.327681
7.21 0.350919
7.22 0.373426
7.23 0.395126
7.24 0.415933
7.25 0.435774
7.26 0.454578
7.27 0.472254
7.28 0.488671
7.29 0.503883
7.3 0.517848
7.31 0.530529
7.32 0.541892
7.33 0.551905
7.34 0.560421
7.35 0.567467
7.36 0.573061
7.37 0.577172
7.38 0.579765
7.39 0.580809
7.4 0.580244
7.41 0.577903
7.42 0.573916
7.43 0.568264
7.44 0.560929
7.45 0.551904
7.46 0.541189
7.47 0.528682
7.48 0.514449
7.49 0.498609
7.5 0.481218
7.51 0.462343
7.52 0.442069
7.53 0.420486
7.54 0.397594
7.55 0.373665
7.56 0.348837
7.57 0.323256
7.58 0.297079
7.59 0.270466
7.6 0.243575
7.61 0.216596
7.62 0.189706
7.63 0.163062
7.64 0.136818
7.65 0.111116
7.66 0.0860904
7.67 0.0619662
7.68 0.0387769
7.69 0.0166123
7.7 -0.0044475
7.71 -0.0243357
7.72 -0.0429993
7.73 -0.0603367
7.74 -0.0762905
7.75 -0.0909364
7.76 -0.104273
7.77 -0.116308
7.78 -0.127058
7.79 -0.136547
7.8 -0.144685
7.81 -0.151619
7.82 -0.157409
7.83 -0.162101
7.84 -0.165743
7.85 -0.168387
7.86 -0.170053
7.87 -0.170763
7.88 -0.170649
7.89 -0.169766
7.9 -0.16817
7.91 -0.165919
7.92 -0.163069
7.93 -0.159632
7.94 -0.155705
7.95 -0.151357
7.96 -0.146641
7.97 -0.141609
7.98 -0.13631
7.99 -0.130788
8 -0.125082
8.01 -0.119252
8.02 -0.113337
8.03 -0.107371
8.04 -0.101385
8.05 -0.0954092
8.06 -0.089472
8.07 -0.0835972
8.08 -0.0778022
8.09 -0.0721037
8.1 -0.0665171
8.11 -0.0610563
8.12 -0.0557367
8.13 -0.0505867
8.14 -0.0456051
8.15 -0.0408061
8.16 -0.0362049
8.17 -0.0318177
8.18 -0.0276617
8.19 -0.023773
8.2 -0.0201687
8.21 -0.0168547
8.22 -0.013849
8.23 -0.011168
8.24 -0.00882559
8.25 -0.0068341
8.26 -0.00523997
8.27 -0.00400385
8.28 -0.00312062
8.29 -0.00257885
8.3 -0.00236045
8.31 -0.00244055
8.32 -0.00280033
8.33 -0.00339596
8.34 -0.00416641
8.35 -0.00506203
8.36 -0.00602982
8.37 -0.00701493
8.38 -0.00796222
8.39 -0.0088024
8.4 -0.00949026
8.41 -0.00998301
8.42 -0.0102445
8.43 -0.0102474
8.44 -0.00997473
8.45 -0.00940847
8.46 -0.00855072
8.47 -0.00744424
8.48 -0.00612405
8.49 -0.00463703
8.5 -0.00304096
8.51 -0.00140321
8.52 0.000189659
8.53 0.00164953
8.54 0.00289231
8.55 0.0038329
8.56 0.00438859
8.57 0.00448161
8.58 0.00402116
8.59 0.00291099
8.6 0.00115101
8.61 -0.00129016
8.62 -0.004429
8.63 -0.00826642
8.64 -0.0127877
8.65 -0.0180156
8.66 -0.0238604
8.67 -0.0302417
8.68 -0.0370882
8.69 -0.04432
8.7 -0.0518518
8.71 -0.0595976
8.72 -0.0674659
8.73 -0.0753535
8.74 -0.0831813
8.75 -0.090879
8.76 -0.0983862
8.77 -0.105655
8.78 -0.112627
8.79 -0.119291
8.8 -0.125655
8.81 -0.131728
8.82 -0.137531
8.83 -0.143097
8.84 -0.148464
8.85 -0.153671
8.86 -0.158788
8.87 -0.163866
8.88 -0.168952
8.89 -0.174089
8.9 -0.179312
8.91 -0.184653
8.92 -0.190124
8.93 -0.195719
8.94 -0.20142
8.95 -0.2072
8.96 -0.213016
8.97 -0.218816
8.98 -0.224521
8.99 -0.230063
9 -0.235367
9.01 -0.240355
9.02 -0.244953
9.03 -0.249091
9.04 -0.252673
9.05 -0.255636
9.06 -0.257976
9.07 -0.259672
9.08 -0.260716
9.09 -0.261119
9.1 -0.260908
9.11 -0.26007
9.12 -0.258725
9.13 -0.256954
9.14 -0.254839
9.15 -0.252471
9.16 -0.249943
9.17 -0.247352
9.18 -0.244805
9.19 -0.242387
9.2 -0.240175
9.21 -0.23823
9.22 -0.236599
9.23 -0.235313
9.24 -0.234422
9.25 -0.233889
9.26 -0.233681
9.27 -0.233756
9.28 -0.234057
9.29 -0.234514
9.3 -0.235048
9.31 -0.235562
9.32 -0.235959
9.33 -0.236153
9.34 -0.236061
9.35 -0.235606
9.36 -0.234724
9.37 -0.233319
9.38 -0.231378
9.39 -0.228901
9.4 -0.225889
9.41 -0.222361
9.42 -0.218352
9.43 -0.213905
9.44 -0.209064
9.45 -0.203944
9.46 -0.198626
9.47 -0.193194
9.48 -0.187731
9.49 -0.182316
9.5 -0.177032
9.51 -0.171943
9.52 -0.167083
9.53 -0.162478
9.54 -0.158135
9.55 -0.154041
9.56 -0.150166
9.57 -0.146468
9.58 -0.142852
9.59 -0.139229
9.6 -0.1355
9.61 -0.131556
9.62 -0.127282
9.63 -0.122524
9.64 -0.117155
9.65 -0.111091
9.66 -0.104236
9.67 -0.0965055
9.68 -0.0878324
9.69 -0.0781675
9.7 -0.0673637
9.71 -0.0555334
9.72 -0.042699
9.73 -0.0289018
9.74 -0.0142033
9.75 0.00131702
9.76 0.0175954
9.77 0.0345146
9.78 0.0519081
9.79 0.0696504
9.8 0.0876144
9.81 0.105674
9.82 0.123709
9.83 0.141579
9.84 0.159186
9.85 0.176443
9.86 0.193277
9.87 0.209628
9.88 0.225452
9.89 0.240696
9.9 0.255323
9.91 0.269373
9.92 0.282857
9.93 0.295789
9.94 0.30819
9.95 0.320085
9.96 0.331453
9.97 0.342353
9.98 0.352811
9.99 0.362837
10 0.372434
10.01 0.381596
10.02 0.390294
10.03 0.398476
10.04 0.406149
10.05 0.413276
10.06 0.419817
10.07 0.425726
10.08 0.430963
10.09 0.435425
10.1 0.439107
10.11 0.442008
10.12 0.444112
10.13 0.445415
10.14 0.445924
10.15 0.445649
10.16 0.444572
10.17 0.442823
10.18 0.440468
10.19 0.437585
10.2 0.434261
10.21 0.430591
10.22 0.426666
10.23 0.422609
10.24 0.41853
10.25 0.414525
10.26 0.410684
10.27 0.407084
10.28 0.403793
10.29 0.400906
10.3 0.398416
10.31 0.396338
10.32 0.394665
10.33 0.393378
10.34 0.392435
10.35 0.391796
10.36 0.391378
10.37 0.391082
10.38 0.390816
10.39 0.390481
10.4 0.389976
10.41 0.3892
10.42 0.388
10.43 0.386315
10.44 0.384062
10.45 0.381168
10.46 0.377569
10.47 0.373216
10.48 0.368031
10.49 0.361976
10.5 0.355099
10.51 0.347406
10.52 0.338916
10.53 0.329655
10.54 0.319662
10.55 0.308913
10.56 0.297523
10.57 0.285553
10.58 0.273055
10.59 0.260081
10.6 0.246681
10.61 0.232886
10.62 0.218731
10.63 0.204281
10.64 0.189567
10.65 0.174616
10.66 0.15945
10.67 0.144089
10.68 0.128535
10.69 0.112814
10.7 0.096947
10.71 0.0809477
10.72 0.0648328
10.73 0.0486211
10.74 0.0323332
10.75 0.0159949
10.76 -0.000357871
10.77 -0.0166921
10.78 -0.0329717
10.79 -0.0491587
10.8 -0.0652133
10.81 -0.0810786
10.82 -0.0967177
10.83 -0.112101
10.84 -0.127195
10.85 -0.141972
10.86 -0.15641
10.87 -0.170488
10.88 -0.184164
10.89 -0.197477
10.9 -0.210436
10.91 -0.223057
10.92 -0.235362
10.93 -0.247379
10.94 -0.259127
10.95 -0.270652
10.96 -0.282002
10.97 -0.293215
10.98 -0.304322
10.99 -0.315354
11 -0.326331
11.01 -0.337266
11.02 -0.348167
11.03 -0.359026
11.04 -0.369825
11.05 -0.380536
11.06 -0.391118
11.07 -0.401507
11.08 -0.411633
11.09 -0.421437
11.1 -0.430845
11.11 -0.439777
11.12 -0.448154
11.13 -0.455895
11.14 -0.462835
11.15 -0.468971
11.16 -0.474243
11.17 -0.478597
11.18 -0.48199
11.19 -0.48439
11.2 -0.485729
11.21 -0.485978
11.22 -0.485218
11.23 -0.483471
11.24 -0.480769
11.25 -0.477155
11.26 -0.472679
11.27 -0.467325
11.28 -0.461226
11.29 -0.45446
11.3 -0.447092
11.31 -0.439179
11.32 -0.430781
11.33 -0.421932
11.34 -0.412662
11.35 -0.40304
11.36 -0.393088
11.37 -0.382823
11.38 -0.372249
11.39 -0.361367
11.4 -0.350136
11.41 -0.338561
11.42 -0.326631
11.43 -0.314327
11.44 -0.301627
11.45 -0.288516
11.46 -0.274968
11.47 -0.260946
11.48 -0.246492
11.49 -0.231618
11.5 -0.216345
11.51 -0.200704
11.52 -0.184739
11.53 -0.168485
11.54 -0.152027
11.55 -0.135448
11.56 -0.118828
11.57 -0.102254
11.58 -0.0858156
11.59 -0.0696069
11.6 -0.0537577
11.61 -0.0383283
11.62 -0.023399
11.63 -0.00904228
11.64 0.00467814
11.65 0.0177092
11.66 0.029959
11.67 0.0414072
11.68 0.052078
11.69 0.0619707
11.7 0.0710965
11.71 0.0794777
11.72 0.087145
11.73 0.0940691
11.74 0.10038
11.75 0.106131
11.76 0.11138
11.77 0.116182
11.78 0.120594
11.79 0.124653
11.8 0.128413
11.81 0.131937
11.82 0.135257
11.83 0.138402
11.84 0.141391
11.85 0.144234
11.86 0.146918
11.87 0.14945
11.88 0.151819
11.89 0.154005
11.9 0.155984
11.91 0.157729
11.92 0.159195
11.93 0.160339
11.94 0.161147
11.95 0.161588
11.96 0.161633
11.97 0.161253
11.98 0.160424
11.99 0.159075
12 0.157221
12.01 0.154855
12.02 0.151962
12.03 0.148531
12.04 0.14455
12.05 0.13999
12.06 0.134809
12.07 0.129044
12.08 0.122683
12.09 0.115714
12.1 0.108124
12.11 0.0998987
12.12 0.0909655
12.13 0.0813443
12.14 0.0710423
12.15 0.0600489
12.16 0.0483567
