# xPDFsuite Configuration #
[PDF]
wavelength = 0.1
dataformat = QA
inputfile = BiMsol6_insitu_700 C-00459.xy
backgroundfile = Quartz2mm-dist500-00000.xy
mode = xray
bgscale = 0.0042
composition = Bi2Fe4O9
outputtype = gr
qmaxinst = 24.998449118
qmin = 0.1
qmax = 21.4986662415
rmax = 80.0
rmin = 0.0
rstep = 0.01
rpoly = 0.9

[Misc]
inputdir = C:/Data/Seafile/CPH/Beamtime/Desy Oct 20/In situ data/Processed/BiMsol6/PDF
savedir = C:/Data/Seafile/CPH/Beamtime/Desy Oct 20/In situ data/PDF/BiMsol6
backgroundfilefull = C:/Data/Seafile/CPH/Beamtime/Desy Oct 20/In situ data/Processed/Standard_Empty_Cap/Quartz2mm-dist500-00000.xy

#### start data
#S 1
#L r($\AA$)  G($\AA^{-2}$)
0 0
0.01 0.00574317
0.02 0.0111559
0.03 0.0159555
0.04 0.0198887
0.05 0.0227433
0.06 0.0243582
0.07 0.024558
0.08 0.0232937
0.09 0.0206986
0.1 0.0168833
0.11 0.012018
0.12 0.00632473
0.13 6.76316e-05
0.14 -0.00645457
0.15 -0.012873
0.16 -0.0188757
0.17 -0.0241709
0.18 -0.0284988
0.19 -0.0316441
0.2 -0.0333865
0.21 -0.0335802
0.22 -0.0323242
0.23 -0.0296889
0.24 -0.0258165
0.25 -0.020917
0.26 -0.0152598
0.27 -0.00915547
0.28 -0.0030341
0.29 0.00272117
0.3 0.00773904
0.31 0.011669
0.32 0.0141987
0.33 0.0150132
0.34 0.0138079
0.35 0.0106489
0.36 0.00554949
0.37 -0.00137867
0.38 -0.00992438
0.39 -0.0197802
0.4 -0.0305849
0.41 -0.0417454
0.42 -0.0526816
0.43 -0.062803
0.44 -0.0715016
0.45 -0.0781742
0.46 -0.0821836
0.47 -0.0827068
0.48 -0.0795844
0.49 -0.0724947
0.5 -0.0612338
0.51 -0.0457291
0.52 -0.0260486
0.53 -0.00214372
0.54 0.0254416
0.55 0.0559999
0.56 0.088874
0.57 0.123299
0.58 0.158424
0.59 0.193322
0.6 0.226811
0.61 0.257979
0.62 0.285904
0.63 0.309724
0.64 0.328667
0.65 0.342071
0.66 0.349014
0.67 0.349132
0.68 0.342608
0.69 0.329463
0.7 0.30989
0.71 0.284258
0.72 0.253095
0.73 0.21661
0.74 0.176245
0.75 0.132938
0.76 0.0876774
0.77 0.0414906
0.78 -0.00459097
0.79 -0.0494537
0.8 -0.0919816
0.81 -0.131419
0.82 -0.167038
0.83 -0.198244
0.84 -0.224591
0.85 -0.245788
0.86 -0.261166
0.87 -0.271266
0.88 -0.276389
0.89 -0.276904
0.9 -0.2733
0.91 -0.266171
0.92 -0.256108
0.93 -0.243863
0.94 -0.230405
0.95 -0.216482
0.96 -0.202811
0.97 -0.190055
0.98 -0.1788
0.99 -0.169762
1 -0.163218
1.01 -0.15936
1.02 -0.158308
1.03 -0.160065
1.04 -0.164523
1.05 -0.171532
1.06 -0.180872
1.07 -0.191934
1.08 -0.204276
1.09 -0.217427
1.1 -0.230907
1.11 -0.244246
1.12 -0.256919
1.13 -0.268515
1.14 -0.278739
1.15 -0.287346
1.16 -0.294173
1.17 -0.29914
1.18 -0.302218
1.19 -0.303364
1.2 -0.302936
1.21 -0.301169
1.22 -0.29834
1.23 -0.294762
1.24 -0.290761
1.25 -0.286682
1.26 -0.282881
1.27 -0.279635
1.28 -0.277172
1.29 -0.275666
1.3 -0.27523
1.31 -0.275916
1.32 -0.277807
1.33 -0.280676
1.34 -0.284361
1.35 -0.288648
1.36 -0.293288
1.37 -0.298002
1.38 -0.302467
1.39 -0.306347
1.4 -0.30939
1.41 -0.311356
1.42 -0.312052
1.43 -0.311338
1.44 -0.309132
1.45 -0.30526
1.46 -0.299956
1.47 -0.293367
1.48 -0.285695
1.49 -0.277194
1.5 -0.268164
1.51 -0.258945
1.52 -0.249943
1.53 -0.241522
1.54 -0.234019
1.55 -0.227743
1.56 -0.222958
1.57 -0.219877
1.58 -0.218839
1.59 -0.219753
1.6 -0.222566
1.61 -0.227171
1.62 -0.233391
1.63 -0.240973
1.64 -0.249628
1.65 -0.258964
1.66 -0.268486
1.67 -0.277764
1.68 -0.286358
1.69 -0.293845
1.7 -0.299826
1.71 -0.30375
1.72 -0.305411
1.73 -0.304649
1.74 -0.301331
1.75 -0.295408
1.76 -0.286917
1.77 -0.27592
1.78 -0.262512
1.79 -0.247207
1.8 -0.230363
1.81 -0.212383
1.82 -0.193705
1.83 -0.174783
1.84 -0.15613
1.85 -0.138233
1.86 -0.121484
1.87 -0.106238
1.88 -0.0927876
1.89 -0.0813581
1.9 -0.0721303
1.91 -0.0653655
1.92 -0.0608026
1.93 -0.0583266
1.94 -0.0577507
1.95 -0.0588243
1.96 -0.0612443
1.97 -0.0647095
1.98 -0.0687769
1.99 -0.0730209
2 -0.0770723
2.01 -0.0805865
2.02 -0.0832566
2.03 -0.0848213
2.04 -0.0849271
2.05 -0.0835966
2.06 -0.080797
2.07 -0.0765705
2.08 -0.0710339
2.09 -0.0643734
2.1 -0.0568066
2.11 -0.0486876
2.12 -0.0404202
2.13 -0.0323823
2.14 -0.024962
2.15 -0.0185431
2.16 -0.0134908
2.17 -0.0103557
2.18 -0.00926965
2.19 -0.0104333
2.2 -0.0139933
2.21 -0.0200236
2.22 -0.0285224
2.23 -0.0395132
2.24 -0.0528701
2.25 -0.0681848
2.26 -0.0851607
2.27 -0.103452
2.28 -0.122678
2.29 -0.142431
2.3 -0.162263
2.31 -0.181708
2.32 -0.200376
2.33 -0.217907
2.34 -0.23399
2.35 -0.248363
2.36 -0.260755
2.37 -0.270923
2.38 -0.27898
2.39 -0.284947
2.4 -0.288908
2.41 -0.291009
2.42 -0.291449
2.43 -0.290373
2.44 -0.288181
2.45 -0.285221
2.46 -0.281809
2.47 -0.278261
2.48 -0.274879
2.49 -0.271956
2.5 -0.269818
2.51 -0.268612
2.52 -0.268487
2.53 -0.269543
2.54 -0.271826
2.55 -0.275333
2.56 -0.280092
2.57 -0.285945
2.58 -0.292696
2.59 -0.300168
2.6 -0.30816
2.61 -0.316455
2.62 -0.324829
2.63 -0.333022
2.64 -0.340822
2.65 -0.34804
2.66 -0.354512
2.67 -0.360101
2.68 -0.364703
2.69 -0.368178
2.7 -0.370503
2.71 -0.371742
2.72 -0.371932
2.73 -0.371137
2.74 -0.369444
2.75 -0.366958
2.76 -0.363734
2.77 -0.359986
2.78 -0.355838
2.79 -0.35141
2.8 -0.346811
2.81 -0.342138
2.82 -0.337474
2.83 -0.332886
2.84 -0.32841
2.85 -0.32406
2.86 -0.319834
2.87 -0.315712
2.88 -0.311659
2.89 -0.307625
2.9 -0.303545
2.91 -0.299359
2.92 -0.295004
2.93 -0.290419
2.94 -0.285549
2.95 -0.280328
2.96 -0.274701
2.97 -0.268665
2.98 -0.262201
2.99 -0.255299
3 -0.247959
3.01 -0.240185
3.02 -0.231948
3.03 -0.223291
3.04 -0.214233
3.05 -0.204783
3.06 -0.19494
3.07 -0.1847
3.08 -0.174031
3.09 -0.162883
3.1 -0.151253
3.11 -0.139096
3.12 -0.126357
3.13 -0.112978
3.14 -0.0988947
3.15 -0.0839758
3.16 -0.0681956
3.17 -0.0515289
3.18 -0.0339376
3.19 -0.0153982
3.2 0.00409445
3.21 0.0245434
3.22 0.0459696
3.23 0.0682133
3.24 0.0911795
3.25 0.114748
3.26 0.138777
3.27 0.163102
3.28 0.187533
3.29 0.211841
3.3 0.235813
3.31 0.259235
3.32 0.281894
3.33 0.303584
3.34 0.324094
3.35 0.343093
3.36 0.360555
3.37 0.376351
3.38 0.390377
3.39 0.40256
3.4 0.412857
3.41 0.421139
3.42 0.427447
3.43 0.431939
3.44 0.434694
3.45 0.435816
3.46 0.435425
3.47 0.43366
3.48 0.430542
3.49 0.426381
3.5 0.421334
3.51 0.415556
3.52 0.409192
3.53 0.40238
3.54 0.395237
3.55 0.387887
3.56 0.380444
3.57 0.372988
3.58 0.365584
3.59 0.358283
3.6 0.351126
3.61 0.344165
3.62 0.337405
3.63 0.330863
3.64 0.32455
3.65 0.318482
3.66 0.312673
3.67 0.307157
3.68 0.301972
3.69 0.297129
3.7 0.292667
3.71 0.288631
3.72 0.28507
3.73 0.282038
3.74 0.279652
3.75 0.277935
3.76 0.276927
3.77 0.276679
3.78 0.277236
3.79 0.278632
3.8 0.280919
3.81 0.28416
3.82 0.288276
3.83 0.293248
3.84 0.299044
3.85 0.305617
3.86 0.312906
3.87 0.320884
3.88 0.329426
3.89 0.338415
3.9 0.34775
3.91 0.357326
3.92 0.367037
3.93 0.376775
3.94 0.386418
3.95 0.395868
3.96 0.405035
3.97 0.413834
3.98 0.422192
3.99 0.430042
4 0.437284
4.01 0.443878
4.02 0.449814
4.03 0.455059
4.04 0.459588
4.05 0.46338
4.06 0.466412
4.07 0.468587
4.08 0.469974
4.09 0.470557
4.1 0.470319
4.11 0.469245
4.12 0.467313
4.13 0.46445
4.14 0.460635
4.15 0.455896
4.16 0.450214
4.17 0.443572
4.18 0.435957
4.19 0.427359
4.2 0.417668
4.21 0.406997
4.22 0.395367
4.23 0.382803
4.24 0.36934
4.25 0.355022
4.26 0.339865
4.27 0.323926
4.28 0.307329
4.29 0.290147
4.3 0.272458
4.31 0.254342
4.32 0.235875
4.33 0.217115
4.34 0.198163
4.35 0.179086
4.36 0.159938
4.37 0.140768
4.38 0.12161
4.39 0.102493
4.4 0.0834366
4.41 0.0644424
4.42 0.0455066
4.43 0.0266195
4.44 0.00776636
4.45 -0.0110699
4.46 -0.0299087
4.47 -0.048767
4.48 -0.0676553
4.49 -0.0865771
4.5 -0.105528
4.51 -0.124493
4.52 -0.143445
4.53 -0.162338
4.54 -0.181122
4.55 -0.199732
4.56 -0.218098
4.57 -0.236136
4.58 -0.253761
4.59 -0.270831
4.6 -0.287263
4.61 -0.302984
4.62 -0.317909
4.63 -0.331958
4.64 -0.345063
4.65 -0.357151
4.66 -0.368088
4.67 -0.377956
4.68 -0.386752
4.69 -0.394488
4.7 -0.401196
4.71 -0.406925
4.72 -0.411678
4.73 -0.415565
4.74 -0.418719
4.75 -0.421237
4.76 -0.423222
4.77 -0.424778
4.78 -0.426006
4.79 -0.426993
4.8 -0.427862
4.81 -0.428694
4.82 -0.429558
4.83 -0.430507
4.84 -0.431585
4.85 -0.432829
4.86 -0.43425
4.87 -0.435835
4.88 -0.437569
4.89 -0.439423
4.9 -0.441362
4.91 -0.443343
4.92 -0.445312
4.93 -0.447216
4.94 -0.449005
4.95 -0.450631
4.96 -0.45205
4.97 -0.453225
4.98 -0.454109
4.99 -0.454666
5 -0.454898
5.01 -0.454796
5.02 -0.454354
5.03 -0.453572
5.04 -0.452452
5.05 -0.450966
5.06 -0.449146
5.07 -0.447002
5.08 -0.444531
5.09 -0.44173
5.1 -0.438587
5.11 -0.43507
5.12 -0.431135
5.13 -0.426779
5.14 -0.421962
5.15 -0.416642
5.16 -0.41077
5.17 -0.404299
5.18 -0.397115
5.19 -0.389203
5.2 -0.380541
5.21 -0.37109
5.22 -0.360824
5.23 -0.349724
5.24 -0.337763
5.25 -0.324894
5.26 -0.31122
5.27 -0.296779
5.28 -0.281622
5.29 -0.265814
5.3 -0.249433
5.31 -0.232534
5.32 -0.215244
5.33 -0.197685
5.34 -0.179961
5.35 -0.162178
5.36 -0.144438
5.37 -0.126844
5.38 -0.109518
5.39 -0.0925255
5.4 -0.0759359
5.41 -0.0598083
5.42 -0.0441896
5.43 -0.0291147
5.44 -0.0146455
5.45 -0.000785901
5.46 0.0124925
5.47 0.0251967
5.48 0.0373392
5.49 0.0489363
5.5 0.0600048
5.51 0.0705067
5.52 0.0805167
5.53 0.0900446
5.54 0.0990951
5.55 0.107666
5.56 0.115748
5.57 0.123296
5.58 0.13028
5.59 0.136701
5.6 0.142524
5.61 0.147714
5.62 0.152232
5.63 0.156042
5.64 0.159029
5.65 0.161237
5.66 0.162656
5.67 0.163278
5.68 0.163106
5.69 0.162155
5.7 0.160423
5.71 0.157937
5.72 0.154807
5.73 0.151101
5.74 0.146895
5.75 0.142274
5.76 0.137327
5.77 0.132135
5.78 0.126819
5.79 0.121475
5.8 0.116187
5.81 0.111033
5.82 0.106081
5.83 0.101397
5.84 0.0970443
5.85 0.0930271
5.86 0.0893574
5.87 0.0860345
5.88 0.0830449
5.89 0.0803644
5.9 0.0779795
5.91 0.0758284
5.92 0.0738569
5.93 0.0720179
5.94 0.070266
5.95 0.0685598
5.96 0.0668642
5.97 0.0651496
5.98 0.0634029
5.99 0.0616235
6 0.0598231
6.01 0.0580263
6.02 0.0562694
6.03 0.054611
6.04 0.0531146
6.05 0.0518423
6.06 0.0508642
6.07 0.0502521
6.08 0.0500761
6.09 0.0504082
6.1 0.0513658
6.11 0.0529391
6.12 0.0551595
6.13 0.058043
6.14 0.061589
6.15 0.0657792
6.16 0.0706125
6.17 0.0760173
6.18 0.0818866
6.19 0.08813
6.2 0.0946448
6.21 0.101318
6.22 0.10803
6.23 0.114631
6.24 0.120995
6.25 0.127002
6.26 0.132538
6.27 0.137497
6.28 0.141789
6.29 0.145294
6.3 0.147936
6.31 0.149724
6.32 0.150642
6.33 0.150687
6.34 0.149877
6.35 0.148247
6.36 0.14577
6.37 0.142592
6.38 0.138796
6.39 0.134468
6.4 0.129694
6.41 0.124566
6.42 0.119168
6.43 0.113593
6.44 0.107941
6.45 0.102286
6.46 0.0966923
6.47 0.0912162
6.48 0.0859025
6.49 0.0808071
6.5 0.0759413
6.51 0.0713133
6.52 0.0669274
6.53 0.0627809
6.54 0.0588654
6.55 0.0551743
6.56 0.0517013
6.57 0.0484108
6.58 0.0452866
6.59 0.0423139
6.6 0.0394803
6.61 0.0367767
6.62 0.0342078
6.63 0.0317658
6.64 0.0294493
6.65 0.0272642
6.66 0.0252188
6.67 0.0233234
6.68 0.0215927
6.69 0.0200532
6.7 0.0186996
6.71 0.017541
6.72 0.0165841
6.73 0.015833
6.74 0.0152889
6.75 0.0149643
6.76 0.0148474
6.77 0.0149208
6.78 0.0151743
6.79 0.0155962
6.8 0.0161743
6.81 0.0168978
6.82 0.0177682
6.83 0.0187619
6.84 0.0198737
6.85 0.0211018
6.86 0.0224481
6.87 0.0239189
6.88 0.0255332
6.89 0.027307
6.9 0.0292505
6.91 0.0313838
6.92 0.0337283
6.93 0.0363058
6.94 0.0391369
6.95 0.042273
6.96 0.0456992
6.97 0.0494237
6.98 0.0534493
6.99 0.0577723
7 0.0623813
7.01 0.0672697
7.02 0.0724099
7.03 0.0777483
7.04 0.0832426
7.05 0.0888451
7.06 0.0945035
7.07 0.100163
7.08 0.105754
7.09 0.111222
7.1 0.116513
7.11 0.121579
7.12 0.126376
7.13 0.130869
7.14 0.135016
7.15 0.138782
7.16 0.142188
7.17 0.145236
7.18 0.147938
7.19 0.150314
7.2 0.152391
7.21 0.154181
7.22 0.155744
7.23 0.157126
7.24 0.158367
7.25 0.159503
7.26 0.160565
7.27 0.16158
7.28 0.162563
7.29 0.163524
7.3 0.164458
7.31 0.165345
7.32 0.166159
7.33 0.166856
7.34 0.167369
7.35 0.167632
7.36 0.16758
7.37 0.167136
7.38 0.166218
7.39 0.164743
7.4 0.162615
7.41 0.159687
7.42 0.155952
7.43 0.151349
7.44 0.145825
7.45 0.139342
7.46 0.131872
7.47 0.123337
7.48 0.113767
7.49 0.103235
7.5 0.09178
7.51 0.0794582
7.52 0.0663383
7.53 0.0524977
7.54 0.037975
7.55 0.0229509
7.56 0.00753469
7.57 -0.00815977
7.58 -0.0240165
7.59 -0.0399191
7.6 -0.0557416
7.61 -0.0713555
7.62 -0.0866601
7.63 -0.101556
7.64 -0.115951
7.65 -0.129761
7.66 -0.142909
7.67 -0.155241
7.68 -0.16677
7.69 -0.177452
7.7 -0.187249
7.71 -0.196129
7.72 -0.204067
7.73 -0.211002
7.74 -0.216903
7.75 -0.221836
7.76 -0.225806
7.77 -0.228825
7.78 -0.230913
7.79 -0.232094
7.8 -0.232315
7.81 -0.231691
7.82 -0.230283
7.83 -0.228142
7.84 -0.225326
7.85 -0.221898
7.86 -0.217909
7.87 -0.213422
7.88 -0.208559
7.89 -0.2034
7.9 -0.198028
7.91 -0.192524
7.92 -0.186972
7.93 -0.181458
7.94 -0.176065
7.95 -0.170858
7.96 -0.165899
7.97 -0.161239
7.98 -0.156919
7.99 -0.152982
8 -0.149474
8.01 -0.146367
8.02 -0.143656
8.03 -0.141326
8.04 -0.139349
8.05 -0.137692
8.06 -0.136331
8.07 -0.135201
8.08 -0.134239
8.09 -0.133393
8.1 -0.132609
8.11 -0.13184
8.12 -0.131037
8.13 -0.130154
8.14 -0.129163
8.15 -0.128045
8.16 -0.126788
8.17 -0.12539
8.18 -0.123859
8.19 -0.122203
8.2 -0.120452
8.21 -0.118641
8.22 -0.116804
8.23 -0.114977
8.24 -0.113194
8.25 -0.111487
8.26 -0.109897
8.27 -0.108434
8.28 -0.107106
8.29 -0.105911
8.3 -0.104838
8.31 -0.103859
8.32 -0.10294
8.33 -0.102023
8.34 -0.101041
8.35 -0.0999243
8.36 -0.098595
8.37 -0.0969709
8.38 -0.0949675
8.39 -0.0924417
8.4 -0.089354
8.41 -0.0856366
8.42 -0.0812284
8.43 -0.0760804
8.44 -0.0701579
8.45 -0.0634063
8.46 -0.0558053
8.47 -0.0474332
8.48 -0.0383285
8.49 -0.0285466
8.5 -0.0181583
8.51 -0.00724842
8.52 0.00411853
8.53 0.015791
8.54 0.0276495
8.55 0.0395809
8.56 0.0514733
8.57 0.0632195
8.58 0.074708
8.59 0.085822
8.6 0.0965099
8.61 0.106713
8.62 0.116388
8.63 0.125507
8.64 0.13406
8.65 0.142002
8.66 0.149391
8.67 0.156275
8.68 0.162697
8.69 0.168707
8.7 0.174359
8.71 0.179701
8.72 0.184775
8.73 0.189653
8.74 0.194374
8.75 0.198964
8.76 0.203439
8.77 0.207802
8.78 0.212028
8.79 0.216091
8.8 0.219952
8.81 0.223557
8.82 0.226841
8.83 0.229728
8.84 0.232133
8.85 0.23391
8.86 0.235027
8.87 0.235403
8.88 0.234963
8.89 0.233642
8.9 0.231383
8.91 0.228077
8.92 0.223704
8.93 0.218305
8.94 0.211882
8.95 0.204454
8.96 0.196052
8.97 0.186722
8.98 0.176424
8.99 0.165333
9 0.153521
9.01 0.141066
9.02 0.128046
9.03 0.114538
9.04 0.100601
9.05 0.0863122
9.06 0.0717601
9.07 0.0570012
9.08 0.0420845
9.09 0.027051
9.1 0.011935
9.11 -0.00323938
9.12 -0.0184429
9.13 -0.0336574
9.14 -0.0488664
9.15 -0.0640538
9.16 -0.0792012
9.17 -0.0942825
9.18 -0.109263
9.19 -0.124111
9.2 -0.138782
9.21 -0.153225
9.22 -0.167378
9.23 -0.181173
9.24 -0.194483
9.25 -0.20725
9.26 -0.219395
9.27 -0.230829
9.28 -0.241465
9.29 -0.251216
9.3 -0.25997
9.31 -0.267592
9.32 -0.274105
9.33 -0.279465
9.34 -0.283638
9.35 -0.286608
9.36 -0.288375
9.37 -0.288856
9.38 -0.288148
9.39 -0.28634
9.4 -0.283491
9.41 -0.279674
9.42 -0.274966
9.43 -0.269437
9.44 -0.26313
9.45 -0.256205
9.46 -0.248744
9.47 -0.24082
9.48 -0.232496
9.49 -0.223825
9.5 -0.214828
9.51 -0.205542
9.52 -0.195987
9.53 -0.186159
9.54 -0.17604
9.55 -0.165602
9.56 -0.154803
9.57 -0.143554
9.58 -0.131845
9.59 -0.119628
9.6 -0.106858
9.61 -0.0934949
9.62 -0.0795094
9.63 -0.0648424
9.64 -0.049496
9.65 -0.0335205
9.66 -0.0169479
9.67 0.000172699
9.68 0.0177755
9.69 0.0357789
9.7 0.0541091
9.71 0.0726107
9.72 0.0911631
9.73 0.10964
9.74 0.127912
9.75 0.145851
9.76 0.163304
9.77 0.180128
9.78 0.196253
9.79 0.211589
9.8 0.226062
9.81 0.239616
9.82 0.252214
9.83 0.263734
9.84 0.274268
9.85 0.283848
9.86 0.29251
9.87 0.300303
9.88 0.307285
9.89 0.313497
9.9 0.318994
9.91 0.323906
9.92 0.3283
9.93 0.332241
9.94 0.335784
9.95 0.338974
9.96 0.341818
9.97 0.344358
9.98 0.346606
9.99 0.348552
10 0.350174
10.01 0.35144
10.02 0.352296
10.03 0.35266
10.04 0.352516
10.05 0.351809
10.06 0.35049
10.07 0.348513
10.08 0.34584
10.09 0.342384
10.1 0.338163
10.11 0.333206
10.12 0.327531
10.13 0.321171
10.14 0.314173
10.15 0.306592
10.16 0.298472
10.17 0.289959
10.18 0.281149
10.19 0.272143
10.2 0.263047
10.21 0.253965
10.22 0.245012
10.23 0.236291
10.24 0.22788
10.25 0.219848
10.26 0.212254
10.27 0.205141
10.28 0.198539
10.29 0.192512
10.3 0.186996
10.31 0.181968
10.32 0.177392
10.33 0.173221
10.34 0.169399
10.35 0.165874
10.36 0.162567
10.37 0.15939
10.38 0.156274
10.39 0.153151
10.4 0.149958
10.41 0.146638
10.42 0.143117
10.43 0.139371
10.44 0.135371
10.45 0.131094
10.46 0.126526
10.47 0.121661
10.48 0.116482
10.49 0.110988
10.5 0.105207
10.51 0.099146
10.52 0.0928127
10.53 0.0862127
10.54 0.0793485
10.55 0.0721912
10.56 0.0647564
10.57 0.0570363
10.58 0.0490145
10.59 0.0406703
10.6 0.0319804
10.61 0.0229042
10.62 0.0133955
10.63 0.00345986
10.64 -0.00692362
10.65 -0.0177709
10.66 -0.0290913
10.67 -0.0408859
10.68 -0.0531871
10.69 -0.0659422
10.7 -0.0791065
10.71 -0.0926368
10.72 -0.106479
10.73 -0.12057
10.74 -0.13484
10.75 -0.149204
10.76 -0.163564
10.77 -0.177833
10.78 -0.191924
10.79 -0.205755
10.8 -0.219248
10.81 -0.232295
10.82 -0.244849
10.83 -0.25688
10.84 -0.268359
10.85 -0.279269
10.86 -0.28961
10.87 -0.299388
10.88 -0.30859
10.89 -0.317319
10.9 -0.325628
10.91 -0.333583
10.92 -0.341253
10.93 -0.34871
10.94 -0.356026
10.95 -0.36328
10.96 -0.370544
10.97 -0.377868
10.98 -0.385296
10.99 -0.392854
11 -0.400555
11.01 -0.408408
11.02 -0.416369
11.03 -0.424397
11.04 -0.432433
11.05 -0.440405
11.06 -0.448226
11.07 -0.455781
11.08 -0.462951
11.09 -0.469643
11.1 -0.475749
11.11 -0.481166
11.12 -0.485794
11.13 -0.489545
11.14 -0.49223
11.15 -0.49388
11.16 -0.49446
11.17 -0.493944
11.18 -0.492327
11.19 -0.489618
11.2 -0.485799
11.21 -0.480898
11.22 -0.475052
11.23 -0.468334
11.24 -0.460829
11.25 -0.452623
11.26 -0.443809
11.27 -0.434436
11.28 -0.424645
11.29 -0.414525
11.3 -0.404148
11.31 -0.393576
11.32 -0.382856
11.33 -0.372021
11.34 -0.361088
11.35 -0.350067
11.36 -0.338948
11.37 -0.327705
11.38 -0.316305
11.39 -0.304704
11.4 -0.292825
11.41 -0.280619
11.42 -0.26804
11.43 -0.255032
11.44 -0.241546
11.45 -0.227539
11.46 -0.212963
11.47 -0.197753
11.48 -0.181953
11.49 -0.16557
11.5 -0.148621
11.51 -0.131141
11.52 -0.113174
11.53 -0.0947501
11.54 -0.0759644
11.55 -0.0569124
11.56 -0.0376794
11.57 -0.0183543
11.58 0.000972162
11.59 0.0202073
11.6 0.0392378
11.61 0.0579939
11.62 0.0764026
11.63 0.0943994
11.64 0.11193
11.65 0.12895
11.66 0.14539
11.67 0.161236
11.68 0.176507
11.69 0.191204
11.7 0.205339
11.71 0.218928
11.72 0.231993
11.73 0.244509
11.74 0.256563
11.75 0.268185
11.76 0.279401
11.77 0.290233
11.78 0.300699
11.79 0.310793
11.8 0.320515
11.81 0.329883
11.82 0.338883
11.83 0.347495
11.84 0.355691
11.85 0.363437
11.86 0.370633
11.87 0.37728
11.88 0.383331
11.89 0.388738
11.9 0.393449
11.91 0.397414
11.92 0.40055
11.93 0.402783
11.94 0.404135
11.95 0.404573
11.96 0.404071
11.97 0.402612
11.98 0.400182
11.99 0.39668
12 0.392184
12.01 0.38672
12.02 0.380302
12.03 0.372945
12.04 0.36467
12.05 0.355472
12.06 0.345333
12.07 0.334356
12.08 0.322565
12.09 0.309988
12.1 0.296651
12.11 0.282578
12.12 0.267736
12.13 0.252191
12.14 0.235992
12.15 0.219163
12.16 0.201733
12.17 0.183733
12.18 0.165185
12.19 0.146096
12.2 0.126563
12.21 0.106636
12.22 0.0863738
12.23 0.0658406
