# xPDFsuite Configuration #
[PDF]
wavelength = 0.1
dataformat = QA
inputfile = BiMsol6_insitu_700 C-00555.xy
backgroundfile = Quartz2mm-dist500-00000.xy
mode = xray
bgscale = 0.0042
composition = Bi2Fe4O9
outputtype = gr
qmaxinst = 24.998449118
qmin = 0.1
qmax = 21.4986662415
rmax = 80.0
rmin = 0.0
rstep = 0.01
rpoly = 0.9

[Misc]
inputdir = C:/Data/Seafile/CPH/Beamtime/Desy Oct 20/In situ data/Processed/BiMsol6/PDF
savedir = C:/Data/Seafile/CPH/Beamtime/Desy Oct 20/In situ data/PDF/BiMsol6
backgroundfilefull = C:/Data/Seafile/CPH/Beamtime/Desy Oct 20/In situ data/Processed/Standard_Empty_Cap/Quartz2mm-dist500-00000.xy

#### start data
#S 1
#L r($\AA$)  G($\AA^{-2}$)
0 0
0.01 0.00623951
0.02 0.0121265
0.03 0.0173593
0.04 0.0216672
0.05 0.0248228
0.06 0.0266525
0.07 0.0269666
0.08 0.0257094
0.09 0.0230198
0.1 0.019012
0.11 0.0138634
0.12 0.00780701
0.13 0.00112063
0.14 -0.00588366
0.15 -0.0128115
0.16 -0.0193306
0.17 -0.0251287
0.18 -0.0299261
0.19 -0.0334886
0.2 -0.0355758
0.21 -0.0360226
0.22 -0.0349234
0.23 -0.0323411
0.24 -0.0284153
0.25 -0.0233565
0.26 -0.0174389
0.27 -0.0109737
0.28 -0.00441158
0.29 0.00184675
0.3 0.00741214
0.31 0.0119145
0.32 0.0150211
0.33 0.0163949
0.34 0.0157063
0.35 0.0130046
0.36 0.00828596
0.37 0.00164803
0.38 -0.00670935
0.39 -0.0164867
0.4 -0.0273371
0.41 -0.0386619
0.42 -0.0498734
0.43 -0.0603743
0.44 -0.0695465
0.45 -0.076774
0.46 -0.0814061
0.47 -0.0826047
0.48 -0.0801869
0.49 -0.0738131
0.5 -0.0632624
0.51 -0.0484458
0.52 -0.0294163
0.53 -0.00610815
0.54 0.0209451
0.55 0.051041
0.56 0.0835269
0.57 0.11764
0.58 0.152528
0.59 0.187263
0.6 0.22066
0.61 0.251795
0.62 0.279734
0.63 0.303607
0.64 0.322629
0.65 0.336129
0.66 0.343173
0.67 0.343388
0.68 0.336947
0.69 0.323865
0.7 0.304331
0.71 0.278709
0.72 0.247527
0.73 0.210993
0.74 0.170554
0.75 0.127152
0.76 0.0817833
0.77 0.035481
0.78 -0.0107153
0.79 -0.0556828
0.8 -0.0982952
0.81 -0.137789
0.82 -0.173428
0.83 -0.204612
0.84 -0.230887
0.85 -0.251956
0.86 -0.26714
0.87 -0.276981
0.88 -0.28178
0.89 -0.281904
0.9 -0.277845
0.91 -0.270196
0.92 -0.259549
0.93 -0.246658
0.94 -0.232499
0.95 -0.217828
0.96 -0.203365
0.97 -0.18978
0.98 -0.177664
0.99 -0.16774
1 -0.160294
1.01 -0.155524
1.02 -0.153561
1.03 -0.154415
1.04 -0.157986
1.05 -0.164135
1.06 -0.172654
1.07 -0.18294
1.08 -0.194562
1.09 -0.207058
1.1 -0.219956
1.11 -0.232794
1.12 -0.245063
1.13 -0.256356
1.14 -0.266377
1.15 -0.274887
1.16 -0.281721
1.17 -0.2868
1.18 -0.290093
1.19 -0.291558
1.2 -0.291537
1.21 -0.29025
1.22 -0.287964
1.23 -0.284976
1.24 -0.281595
1.25 -0.278149
1.26 -0.274971
1.27 -0.272319
1.28 -0.270401
1.29 -0.269376
1.3 -0.269338
1.31 -0.270325
1.32 -0.272397
1.33 -0.275329
1.34 -0.278954
1.35 -0.28306
1.36 -0.287397
1.37 -0.291695
1.38 -0.295635
1.39 -0.298897
1.4 -0.30125
1.41 -0.302474
1.42 -0.302396
1.43 -0.300894
1.44 -0.297911
1.45 -0.293296
1.46 -0.287299
1.47 -0.280083
1.48 -0.27186
1.49 -0.262896
1.5 -0.253495
1.51 -0.244
1.52 -0.234816
1.53 -0.22629
1.54 -0.21875
1.55 -0.212486
1.56 -0.207747
1.57 -0.204724
1.58 -0.203733
1.59 -0.204663
1.6 -0.207437
1.61 -0.211936
1.62 -0.217965
1.63 -0.225261
1.64 -0.233527
1.65 -0.242361
1.66 -0.251286
1.67 -0.259877
1.68 -0.267712
1.69 -0.274385
1.7 -0.27952
1.71 -0.282595
1.72 -0.283435
1.73 -0.281908
1.74 -0.27791
1.75 -0.271417
1.76 -0.26249
1.77 -0.251214
1.78 -0.237709
1.79 -0.222482
1.8 -0.205888
1.81 -0.188322
1.82 -0.170206
1.83 -0.151973
1.84 -0.13411
1.85 -0.117061
1.86 -0.101174
1.87 -0.0867594
1.88 -0.0740666
1.89 -0.0632754
1.9 -0.0545216
1.91 -0.0480058
1.92 -0.0434529
1.93 -0.0407239
1.94 -0.0396165
1.95 -0.0398748
1.96 -0.0412006
1.97 -0.0432928
1.98 -0.0457461
1.99 -0.0481881
2 -0.0502998
2.01 -0.051795
2.02 -0.0524326
2.03 -0.0520221
2.04 -0.0503065
2.05 -0.0473747
2.06 -0.0432652
2.07 -0.0380873
2.08 -0.0320175
2.09 -0.0252929
2.1 -0.0182013
2.11 -0.0111281
2.12 -0.00445528
2.13 0.00144494
2.14 0.00620494
2.15 0.00947616
2.16 0.0109427
2.17 0.0100831
2.18 0.00688652
2.19 0.00123975
2.2 -0.00691291
2.21 -0.017551
2.22 -0.0305774
2.23 -0.0459103
2.24 -0.0633163
2.25 -0.0823222
2.26 -0.102563
2.27 -0.123638
2.28 -0.145123
2.29 -0.166586
2.3 -0.187512
2.31 -0.207491
2.32 -0.226165
2.33 -0.243218
2.34 -0.258389
2.35 -0.271481
2.36 -0.282289
2.37 -0.290649
2.38 -0.296782
2.39 -0.300791
2.4 -0.302843
2.41 -0.303158
2.42 -0.302004
2.43 -0.299609
2.44 -0.296408
2.45 -0.292772
2.46 -0.289032
2.47 -0.285505
2.48 -0.282479
2.49 -0.28023
2.5 -0.279055
2.51 -0.279023
2.52 -0.280223
2.53 -0.28269
2.54 -0.286402
2.55 -0.291287
2.56 -0.297293
2.57 -0.304195
2.58 -0.31175
2.59 -0.319736
2.6 -0.327919
2.61 -0.33606
2.62 -0.343922
2.63 -0.351219
2.64 -0.357795
2.65 -0.363495
2.66 -0.368196
2.67 -0.371815
2.68 -0.374306
2.69 -0.375595
2.7 -0.375738
2.71 -0.374872
2.72 -0.373101
2.73 -0.370553
2.74 -0.367373
2.75 -0.363717
2.76 -0.359724
2.77 -0.355601
2.78 -0.35149
2.79 -0.347519
2.8 -0.343795
2.81 -0.3404
2.82 -0.337416
2.83 -0.33488
2.84 -0.332765
2.85 -0.331045
2.86 -0.329676
2.87 -0.328592
2.88 -0.327715
2.89 -0.32696
2.9 -0.326213
2.91 -0.32538
2.92 -0.324371
2.93 -0.323107
2.94 -0.321516
2.95 -0.319521
2.96 -0.317061
2.97 -0.314137
2.98 -0.310734
2.99 -0.306847
3 -0.302479
3.01 -0.29764
3.02 -0.292294
3.03 -0.286486
3.04 -0.280226
3.05 -0.273504
3.06 -0.266301
3.07 -0.258579
3.08 -0.250269
3.09 -0.241258
3.1 -0.231511
3.11 -0.220928
3.12 -0.2094
3.13 -0.196812
3.14 -0.183045
3.15 -0.167864
3.16 -0.151217
3.17 -0.133057
3.18 -0.113313
3.19 -0.0919397
3.2 -0.0689197
3.21 -0.0442367
3.22 -0.0178353
3.23 0.0100289
3.24 0.0392187
3.25 0.0695607
3.26 0.100847
3.27 0.132839
3.28 0.165281
3.29 0.197832
3.3 0.23017
3.31 0.261984
3.32 0.292964
3.33 0.322809
3.34 0.351214
3.35 0.377718
3.36 0.40225
3.37 0.42461
3.38 0.444639
3.39 0.462212
3.4 0.477249
3.41 0.489547
3.42 0.499133
3.43 0.506193
3.44 0.510807
3.45 0.513084
3.46 0.513157
3.47 0.51118
3.48 0.507122
3.49 0.501391
3.5 0.494168
3.51 0.485628
3.52 0.47594
3.53 0.465262
3.54 0.453703
3.55 0.441399
3.56 0.428516
3.57 0.415145
3.58 0.401369
3.59 0.387254
3.6 0.372856
3.61 0.358205
3.62 0.343371
3.63 0.3284
3.64 0.313337
3.65 0.298234
3.66 0.283147
3.67 0.268153
3.68 0.253348
3.69 0.238818
3.7 0.224665
3.71 0.211005
3.72 0.197958
3.73 0.185654
3.74 0.174316
3.75 0.164031
3.76 0.154905
3.77 0.147055
3.78 0.140592
3.79 0.135608
3.8 0.132231
3.81 0.130617
3.82 0.130661
3.83 0.132376
3.84 0.135748
3.85 0.140746
3.86 0.147317
3.87 0.155506
3.88 0.165138
3.89 0.176059
3.9 0.188152
3.91 0.201297
3.92 0.215366
3.93 0.230246
3.94 0.245851
3.95 0.261984
3.96 0.278531
3.97 0.295388
3.98 0.312456
3.99 0.329646
4 0.346874
4.01 0.364056
4.02 0.381121
4.03 0.398007
4.04 0.414651
4.05 0.430991
4.06 0.446959
4.07 0.462433
4.08 0.477382
4.09 0.491722
4.1 0.505366
4.11 0.518219
4.12 0.53018
4.13 0.541075
4.14 0.55078
4.15 0.559242
4.16 0.566351
4.17 0.572002
4.18 0.576098
4.19 0.578552
4.2 0.579089
4.21 0.577835
4.22 0.574763
4.23 0.569857
4.24 0.563124
4.25 0.55459
4.26 0.544221
4.27 0.532066
4.28 0.518335
4.29 0.503134
4.3 0.486583
4.31 0.46881
4.32 0.44995
4.33 0.430055
4.34 0.409357
4.35 0.387999
4.36 0.366101
4.37 0.343769
4.38 0.321098
4.39 0.298161
4.4 0.275019
4.41 0.251737
4.42 0.228342
4.43 0.204849
4.44 0.181265
4.45 0.157583
4.46 0.133784
4.47 0.109861
4.48 0.0858067
4.49 0.0616153
4.5 0.03729
4.51 0.0128446
4.52 -0.0116955
4.53 -0.036285
4.54 -0.0608551
4.55 -0.0853296
4.56 -0.109618
4.57 -0.133615
4.58 -0.157208
4.59 -0.18022
4.6 -0.202528
4.61 -0.224024
4.62 -0.244583
4.63 -0.264089
4.64 -0.282434
4.65 -0.299509
4.66 -0.31512
4.67 -0.329351
4.68 -0.342178
4.69 -0.353603
4.7 -0.363652
4.71 -0.372374
4.72 -0.37976
4.73 -0.385944
4.74 -0.391097
4.75 -0.395347
4.76 -0.398826
4.77 -0.401675
4.78 -0.40403
4.79 -0.406005
4.8 -0.407777
4.81 -0.409461
4.82 -0.411154
4.83 -0.412937
4.84 -0.414871
4.85 -0.417012
4.86 -0.419379
4.87 -0.421959
4.88 -0.424729
4.89 -0.42765
4.9 -0.430672
4.91 -0.433732
4.92 -0.436748
4.93 -0.439642
4.94 -0.442339
4.95 -0.444766
4.96 -0.446857
4.97 -0.448552
4.98 -0.44978
4.99 -0.450485
5 -0.450677
5.01 -0.450342
5.02 -0.449479
5.03 -0.448095
5.04 -0.446206
5.05 -0.44379
5.06 -0.440915
5.07 -0.43762
5.08 -0.43393
5.09 -0.429871
5.1 -0.425462
5.11 -0.420707
5.12 -0.415598
5.13 -0.410159
5.14 -0.404382
5.15 -0.398252
5.16 -0.391749
5.17 -0.384848
5.18 -0.377486
5.19 -0.369663
5.2 -0.361371
5.21 -0.352598
5.22 -0.343342
5.23 -0.333609
5.24 -0.323411
5.25 -0.312758
5.26 -0.301746
5.27 -0.290441
5.28 -0.278924
5.29 -0.267288
5.3 -0.255636
5.31 -0.244095
5.32 -0.232793
5.33 -0.221843
5.34 -0.211356
5.35 -0.201441
5.36 -0.192192
5.37 -0.183704
5.38 -0.176121
5.39 -0.169406
5.4 -0.16358
5.41 -0.158641
5.42 -0.154567
5.43 -0.151313
5.44 -0.148861
5.45 -0.147103
5.46 -0.145904
5.47 -0.145153
5.48 -0.144736
5.49 -0.144536
5.5 -0.144437
5.51 -0.144318
5.52 -0.144074
5.53 -0.143622
5.54 -0.142899
5.55 -0.141855
5.56 -0.140465
5.57 -0.1387
5.58 -0.136574
5.59 -0.134143
5.6 -0.131453
5.61 -0.128565
5.62 -0.125544
5.63 -0.122461
5.64 -0.119396
5.65 -0.116416
5.66 -0.113575
5.67 -0.110914
5.68 -0.108455
5.69 -0.106202
5.7 -0.104145
5.71 -0.10224
5.72 -0.10041
5.73 -0.0985682
5.74 -0.0966138
5.75 -0.0944305
5.76 -0.0918924
5.77 -0.088808
5.78 -0.0850687
5.79 -0.0805599
5.8 -0.0751688
5.81 -0.0687987
5.82 -0.0613744
5.83 -0.0528082
5.84 -0.0430216
5.85 -0.0321252
5.86 -0.0201676
5.87 -0.00722903
5.88 0.00658044
5.89 0.021123
5.9 0.03627
5.91 0.0517829
5.92 0.067446
5.93 0.0830537
5.94 0.0984001
5.95 0.113285
5.96 0.127502
5.97 0.140802
5.98 0.153109
5.99 0.164315
6 0.174341
6.01 0.183143
6.02 0.190712
6.03 0.196991
6.04 0.202093
6.05 0.206169
6.06 0.209343
6.07 0.211762
6.08 0.213588
6.09 0.214986
6.1 0.216127
6.11 0.217217
6.12 0.218408
6.13 0.219832
6.14 0.2216
6.15 0.223792
6.16 0.226487
6.17 0.229693
6.18 0.233354
6.19 0.237407
6.2 0.241755
6.21 0.246275
6.22 0.250817
6.23 0.255173
6.24 0.259159
6.25 0.262585
6.26 0.265261
6.27 0.267006
6.28 0.267651
6.29 0.266979
6.3 0.264837
6.31 0.261223
6.32 0.256088
6.33 0.249419
6.34 0.241237
6.35 0.231599
6.36 0.220464
6.37 0.208102
6.38 0.194681
6.39 0.180377
6.4 0.165378
6.41 0.149882
6.42 0.134086
6.43 0.118208
6.44 0.102452
6.45 0.0869835
6.46 0.071947
6.47 0.057462
6.48 0.0436206
6.49 0.0305551
6.5 0.0182451
6.51 0.00666934
6.52 -0.00420498
6.53 -0.0144352
6.54 -0.0240999
6.55 -0.0332836
6.56 -0.0420897
6.57 -0.050673
6.58 -0.0591496
6.59 -0.067631
6.6 -0.0762192
6.61 -0.0850026
6.62 -0.094079
6.63 -0.103488
6.64 -0.113243
6.65 -0.12334
6.66 -0.133756
6.67 -0.144439
6.68 -0.155322
6.69 -0.166311
6.7 -0.177278
6.71 -0.188102
6.72 -0.198655
6.73 -0.208805
6.74 -0.218421
6.75 -0.22732
6.76 -0.235387
6.77 -0.242548
6.78 -0.248714
6.79 -0.253812
6.8 -0.257787
6.81 -0.260591
6.82 -0.262086
6.83 -0.2624
6.84 -0.261548
6.85 -0.259558
6.86 -0.25647
6.87 -0.252328
6.88 -0.247124
6.89 -0.240923
6.9 -0.23383
6.91 -0.225891
6.92 -0.217143
6.93 -0.20762
6.94 -0.197341
6.95 -0.186237
6.96 -0.174391
6.97 -0.161797
6.98 -0.14844
6.99 -0.134301
7 -0.119354
7.01 -0.103532
7.02 -0.0867938
7.03 -0.0691756
7.04 -0.0506663
7.05 -0.0312637
7.06 -0.0109769
7.07 0.0101723
7.08 0.0322275
7.09 0.0550555
7.1 0.0785745
7.11 0.102699
7.12 0.127331
7.13 0.152358
7.14 0.177663
7.15 0.203101
7.16 0.228515
7.17 0.253763
7.18 0.278703
7.19 0.303195
7.2 0.327104
7.21 0.350225
7.22 0.372472
7.23 0.393758
7.24 0.413987
7.25 0.433077
7.26 0.450957
7.27 0.467533
7.28 0.482674
7.29 0.496461
7.3 0.508873
7.31 0.519894
7.32 0.529516
7.33 0.537737
7.34 0.544442
7.35 0.549697
7.36 0.553556
7.37 0.556019
7.38 0.557088
7.39 0.55676
7.4 0.555008
7.41 0.551707
7.42 0.546992
7.43 0.540853
7.44 0.533284
7.45 0.524281
7.46 0.513841
7.47 0.501869
7.48 0.488409
7.49 0.47355
7.5 0.457321
7.51 0.439762
7.52 0.420925
7.53 0.400867
7.54 0.379554
7.55 0.357212
7.56 0.333944
7.57 0.309865
7.58 0.285099
7.59 0.25978
7.6 0.234033
7.61 0.208028
7.62 0.18194
7.63 0.155921
7.64 0.130121
7.65 0.104692
7.66 0.0797775
7.67 0.0556049
7.68 0.0322469
7.69 0.00981935
7.7 -0.011569
7.71 -0.0318213
7.72 -0.0508531
7.73 -0.0685286
7.74 -0.0847545
7.75 -0.0995809
7.76 -0.112982
7.77 -0.124943
7.78 -0.135467
7.79 -0.144564
7.8 -0.152123
7.81 -0.158304
7.82 -0.163179
7.83 -0.166807
7.84 -0.169254
7.85 -0.170595
7.86 -0.170876
7.87 -0.170154
7.88 -0.168599
7.89 -0.166305
7.9 -0.163363
7.91 -0.159867
7.92 -0.155909
7.93 -0.151551
7.94 -0.14691
7.95 -0.142074
7.96 -0.137116
7.97 -0.132099
7.98 -0.12708
7.99 -0.12211
8 -0.117235
8.01 -0.11248
8.02 -0.107861
8.03 -0.103389
8.04 -0.0990631
8.05 -0.0948777
8.06 -0.0908278
8.07 -0.0868862
8.08 -0.0830242
8.09 -0.0792152
8.1 -0.0754322
8.11 -0.0716482
8.12 -0.0678378
8.13 -0.0639735
8.14 -0.0600432
8.15 -0.0560378
8.16 -0.051955
8.17 -0.0478
8.18 -0.0435854
8.19 -0.0393306
8.2 -0.035069
8.21 -0.0308379
8.22 -0.0266782
8.23 -0.0226344
8.24 -0.0187539
8.25 -0.0150856
8.26 -0.0117103
8.27 -0.00864647
8.28 -0.00593248
8.29 -0.00360037
8.3 -0.00167426
8.31 -0.000169209
8.32 0.000885936
8.33 0.00149729
8.34 0.00170973
8.35 0.0015526
8.36 0.00106491
8.37 0.000294213
8.38 -0.000704683
8.39 -0.00188276
8.4 -0.00315227
8.41 -0.00444665
8.42 -0.00570201
8.43 -0.00685814
8.44 -0.00786066
8.45 -0.00865215
8.46 -0.00918571
8.47 -0.00945391
8.48 -0.00944703
8.49 -0.00916856
8.5 -0.00863543
8.51 -0.00787776
8.52 -0.0069257
8.53 -0.00585575
8.54 -0.00473751
8.55 -0.00364466
8.56 -0.00265606
8.57 -0.00185335
8.58 -0.00133055
8.59 -0.00119464
8.6 -0.00149532
8.61 -0.00229788
8.62 -0.00365779
8.63 -0.005619
8.64 -0.00821259
8.65 -0.0115127
8.66 -0.0154826
8.67 -0.0200874
8.68 -0.0252978
8.69 -0.0310717
8.7 -0.0373556
8.71 -0.0440948
8.72 -0.0512344
8.73 -0.0586559
8.74 -0.0662786
8.75 -0.0740218
8.76 -0.0818065
8.77 -0.0895581
8.78 -0.0971952
8.79 -0.104654
8.8 -0.11189
8.81 -0.118863
8.82 -0.125548
8.83 -0.131925
8.84 -0.137985
8.85 -0.143705
8.86 -0.149133
8.87 -0.15429
8.88 -0.159205
8.89 -0.16391
8.9 -0.168439
8.91 -0.172823
8.92 -0.177101
8.93 -0.181311
8.94 -0.185481
8.95 -0.189631
8.96 -0.193776
8.97 -0.197924
8.98 -0.202078
8.99 -0.206227
9 -0.210359
9.01 -0.214454
9.02 -0.218486
9.03 -0.222428
9.04 -0.22624
9.05 -0.229883
9.06 -0.233333
9.07 -0.236558
9.08 -0.239529
9.09 -0.242222
9.1 -0.244615
9.11 -0.246658
9.12 -0.24837
9.13 -0.24975
9.14 -0.250801
9.15 -0.251527
9.16 -0.25194
9.17 -0.252043
9.18 -0.251849
9.19 -0.251399
9.2 -0.250717
9.21 -0.249825
9.22 -0.248746
9.23 -0.247502
9.24 -0.246101
9.25 -0.244574
9.26 -0.24294
9.27 -0.241213
9.28 -0.239403
9.29 -0.237519
9.3 -0.235566
9.31 -0.233545
9.32 -0.231467
9.33 -0.229332
9.34 -0.227143
9.35 -0.224902
9.36 -0.222611
9.37 -0.220267
9.38 -0.217875
9.39 -0.21544
9.4 -0.212964
9.41 -0.210449
9.42 -0.207896
9.43 -0.205306
9.44 -0.202673
9.45 -0.199996
9.46 -0.197269
9.47 -0.194481
9.48 -0.191618
9.49 -0.188662
9.5 -0.18558
9.51 -0.182345
9.52 -0.178933
9.53 -0.175308
9.54 -0.171435
9.55 -0.167273
9.56 -0.162781
9.57 -0.157877
9.58 -0.152559
9.59 -0.146789
9.6 -0.140534
9.61 -0.133766
9.62 -0.12646
9.63 -0.118562
9.64 -0.110063
9.65 -0.10099
9.66 -0.0913456
9.67 -0.0811393
9.68 -0.0703867
9.69 -0.0591091
9.7 -0.0472786
9.71 -0.0349858
9.72 -0.0222657
9.73 -0.00915397
9.74 0.00431268
9.75 0.0180979
9.76 0.0321792
9.77 0.0465221
9.78 0.0610782
9.79 0.0758203
9.8 0.0907241
9.81 0.105768
9.82 0.120933
9.83 0.136212
9.84 0.151575
9.85 0.167007
9.86 0.182489
9.87 0.198
9.88 0.213517
9.89 0.229009
9.9 0.244433
9.91 0.259749
9.92 0.274906
9.93 0.289849
9.94 0.304513
9.95 0.318829
9.96 0.332673
9.97 0.345985
9.98 0.358694
9.99 0.370714
10 0.381965
10.01 0.392369
10.02 0.401825
10.03 0.410205
10.04 0.417542
10.05 0.4238
10.06 0.428957
10.07 0.433007
10.08 0.435962
10.09 0.437766
10.1 0.438524
10.11 0.43834
10.12 0.437295
10.13 0.435484
10.14 0.433013
10.15 0.429989
10.16 0.426515
10.17 0.422765
10.18 0.418862
10.19 0.414923
10.2 0.41106
10.21 0.407372
10.22 0.403972
10.23 0.400931
10.24 0.398289
10.25 0.396078
10.26 0.394313
10.27 0.392988
10.28 0.392084
10.29 0.391595
10.3 0.391417
10.31 0.391478
10.32 0.3917
10.33 0.391993
10.34 0.392266
10.35 0.392414
10.36 0.39233
10.37 0.391935
10.38 0.391152
10.39 0.38991
10.4 0.38815
10.41 0.385824
10.42 0.382829
10.43 0.379207
10.44 0.374955
10.45 0.370077
10.46 0.364587
10.47 0.35851
10.48 0.351847
10.49 0.344628
10.5 0.336926
10.51 0.328776
10.52 0.32021
10.53 0.311258
10.54 0.301942
10.55 0.292243
10.56 0.282201
10.57 0.271821
10.58 0.261094
10.59 0.250006
10.6 0.23854
10.61 0.226654
10.62 0.214302
10.63 0.201492
10.64 0.1882
10.65 0.17441
10.66 0.160108
10.67 0.145292
10.68 0.129922
10.69 0.114053
10.7 0.0977277
10.71 0.0809903
10.72 0.0638946
10.73 0.0465055
10.74 0.0288936
10.75 0.0111435
10.76 -0.00663765
10.77 -0.0243587
10.78 -0.0419284
10.79 -0.0592583
10.8 -0.0762646
10.81 -0.0928345
10.82 -0.108912
10.83 -0.124463
10.84 -0.13945
10.85 -0.153853
10.86 -0.167665
10.87 -0.180888
10.88 -0.193503
10.89 -0.205611
10.9 -0.217266
10.91 -0.228532
10.92 -0.239478
10.93 -0.250179
10.94 -0.260704
10.95 -0.271142
10.96 -0.281566
10.97 -0.292038
10.98 -0.302604
10.99 -0.313301
11 -0.32415
11.01 -0.33517
11.02 -0.34633
11.03 -0.357594
11.04 -0.368915
11.05 -0.38023
11.06 -0.391461
11.07 -0.402505
11.08 -0.413251
11.09 -0.423607
11.1 -0.433469
11.11 -0.442733
11.12 -0.451301
11.13 -0.459081
11.14 -0.465888
11.15 -0.471737
11.16 -0.476582
11.17 -0.480386
11.18 -0.483126
11.19 -0.484799
11.2 -0.485366
11.21 -0.484834
11.22 -0.483318
11.23 -0.480872
11.24 -0.477556
11.25 -0.473437
11.26 -0.468589
11.27 -0.463023
11.28 -0.456872
11.29 -0.450213
11.3 -0.443103
11.31 -0.435594
11.32 -0.427725
11.33 -0.419516
11.34 -0.41097
11.35 -0.40212
11.36 -0.392958
11.37 -0.383469
11.38 -0.37363
11.39 -0.363411
11.4 -0.352739
11.41 -0.341597
11.42 -0.329963
11.43 -0.317806
11.44 -0.305099
11.45 -0.291824
11.46 -0.277957
11.47 -0.263463
11.48 -0.248412
11.49 -0.232833
11.5 -0.216768
11.51 -0.200271
11.52 -0.183408
11.53 -0.16624
11.54 -0.148875
11.55 -0.13142
11.56 -0.113973
11.57 -0.0966359
11.58 -0.0795094
11.59 -0.0626986
11.6 -0.0463464
11.61 -0.0305052
11.62 -0.0152529
11.63 -0.00065692
11.64 0.0132263
11.65 0.0263528
11.66 0.0386379
11.67 0.0500744
11.68 0.0607005
11.69 0.0705254
11.7 0.0795697
11.71 0.0878633
11.72 0.0954433
11.73 0.102286
11.74 0.108522
11.75 0.114208
11.76 0.119398
11.77 0.124148
11.78 0.128512
11.79 0.132523
11.8 0.136232
11.81 0.139699
11.82 0.142956
11.83 0.146031
11.84 0.148943
11.85 0.151704
11.86 0.154307
11.87 0.156764
11.88 0.159068
11.89 0.161207
11.9 0.163164
11.91 0.164918
11.92 0.166434
11.93 0.167672
11.94 0.16862
11.95 0.169248
11.96 0.169525
11.97 0.169418
11.98 0.168896
11.99 0.167881
12 0.166372
12.01 0.164348
12.02 0.161779
12.03 0.158636
12.04 0.154891
12.05 0.150496
12.06 0.14539
12.07 0.139602
12.08 0.133113
12.09 0.125904
12.1 0.11796
12.11 0.109269
12.12 0.0997605
12.13 0.0894723
12.14 0.0784327
12.15 0.066652
12.16 0.0541472
12.17 0.0409423
