# xPDFsuite Configuration #
[PDF]
wavelength = 0.1
dataformat = QA
inputfile = BiMsol6_insitu_700 C-00648.xy
backgroundfile = Quartz2mm-dist500-00000.xy
mode = xray
bgscale = 0.0042
composition = Bi2Fe4O9
outputtype = gr
qmaxinst = 24.998449118
qmin = 0.1
qmax = 21.4986662415
rmax = 80.0
rmin = 0.0
rstep = 0.01
rpoly = 0.9

[Misc]
inputdir = C:/Data/Seafile/CPH/Beamtime/Desy Oct 20/In situ data/Processed/BiMsol6/PDF
savedir = C:/Data/Seafile/CPH/Beamtime/Desy Oct 20/In situ data/PDF/BiMsol6
backgroundfilefull = C:/Data/Seafile/CPH/Beamtime/Desy Oct 20/In situ data/Processed/Standard_Empty_Cap/Quartz2mm-dist500-00000.xy

#### start data
#S 1
#L r($\AA$)  G($\AA^{-2}$)
0 0
0.01 0.00601417
0.02 0.0116859
0.03 0.0167221
0.04 0.0208599
0.05 0.0238787
0.06 0.0256107
0.07 0.0258723
0.08 0.0246106
0.09 0.0219618
0.1 0.0180383
0.11 0.0130138
0.12 0.00711623
0.13 0.000616981
0.14 -0.0061782
0.15 -0.0128863
0.16 -0.0191841
0.17 -0.0247684
0.18 -0.029368
0.19 -0.0327567
0.2 -0.0347026
0.21 -0.0350485
0.22 -0.0338899
0.23 -0.0312923
0.24 -0.0273957
0.25 -0.0224097
0.26 -0.0166055
0.27 -0.0102933
0.28 -0.00391453
0.29 0.00213783
0.3 0.00748227
0.31 0.0117569
0.32 0.014637
0.33 0.0157945
0.34 0.0149094
0.35 0.0120364
0.36 0.00717781
0.37 0.000435625
0.38 -0.00798696
0.39 -0.0177885
0.4 -0.028618
0.41 -0.0398799
0.42 -0.05099
0.43 -0.0613541
0.44 -0.0703582
0.45 -0.0773909
0.46 -0.081806
0.47 -0.0827703
0.48 -0.080108
0.49 -0.0734845
0.5 -0.0626835
0.51 -0.0476202
0.52 -0.0283513
0.53 -0.00481502
0.54 0.0224524
0.55 0.0527469
0.56 0.0854141
0.57 0.11969
0.58 0.15472
0.59 0.189574
0.6 0.223065
0.61 0.254266
0.62 0.282243
0.63 0.306122
0.64 0.325113
0.65 0.338544
0.66 0.345472
0.67 0.345519
0.68 0.338859
0.69 0.325501
0.7 0.305633
0.71 0.279617
0.72 0.247982
0.73 0.210929
0.74 0.169918
0.75 0.125896
0.76 0.0798682
0.77 0.0328787
0.78 -0.0140204
0.79 -0.0596903
0.8 -0.102985
0.81 -0.143123
0.82 -0.179351
0.83 -0.211046
0.84 -0.237736
0.85 -0.25911
0.86 -0.274455
0.87 -0.284312
0.88 -0.288973
0.89 -0.2888
0.9 -0.284285
0.91 -0.276025
0.92 -0.264613
0.93 -0.250815
0.94 -0.23564
0.95 -0.219864
0.96 -0.204237
0.97 -0.18946
0.98 -0.176158
0.99 -0.165094
1 -0.156593
1.01 -0.150886
1.02 -0.148136
1.03 -0.148383
1.04 -0.151551
1.05 -0.157528
1.06 -0.166135
1.07 -0.176755
1.08 -0.188953
1.09 -0.202258
1.1 -0.21618
1.11 -0.230232
1.12 -0.243886
1.13 -0.256683
1.14 -0.268279
1.15 -0.278388
1.16 -0.286797
1.17 -0.293376
1.18 -0.298044
1.19 -0.300694
1.2 -0.301639
1.21 -0.301065
1.22 -0.299211
1.23 -0.296351
1.24 -0.292785
1.25 -0.288815
1.26 -0.284792
1.27 -0.281004
1.28 -0.277691
1.29 -0.275043
1.3 -0.273199
1.31 -0.272244
1.32 -0.272289
1.33 -0.273178
1.34 -0.274802
1.35 -0.277003
1.36 -0.279586
1.37 -0.282328
1.38 -0.284969
1.39 -0.287229
1.4 -0.288888
1.41 -0.289741
1.42 -0.289621
1.43 -0.288403
1.44 -0.286014
1.45 -0.282311
1.46 -0.277477
1.47 -0.271634
1.48 -0.264949
1.49 -0.257637
1.5 -0.249948
1.51 -0.242172
1.52 -0.234652
1.53 -0.227687
1.54 -0.221559
1.55 -0.216521
1.56 -0.212789
1.57 -0.21053
1.58 -0.210018
1.59 -0.211155
1.6 -0.213875
1.61 -0.21807
1.62 -0.223564
1.63 -0.230122
1.64 -0.237471
1.65 -0.245249
1.66 -0.253029
1.67 -0.260429
1.68 -0.267067
1.69 -0.272576
1.7 -0.276617
1.71 -0.278711
1.72 -0.278705
1.73 -0.276485
1.74 -0.271957
1.75 -0.265106
1.76 -0.255989
1.77 -0.244691
1.78 -0.231325
1.79 -0.216363
1.8 -0.200138
1.81 -0.183019
1.82 -0.1654
1.83 -0.147687
1.84 -0.130335
1.85 -0.11376
1.86 -0.098288
1.87 -0.0842111
1.88 -0.0717644
1.89 -0.0611187
1.9 -0.0524038
1.91 -0.0458132
1.92 -0.0410893
1.93 -0.0381046
1.94 -0.0366721
1.95 -0.0365537
1.96 -0.0374713
1.97 -0.0391461
1.98 -0.0411972
1.99 -0.0432729
2 -0.0450726
2.01 -0.0463255
2.02 -0.0468029
2.03 -0.0463232
2.04 -0.0446441
2.05 -0.0418428
2.06 -0.0379525
2.07 -0.0330736
2.08 -0.0273701
2.09 -0.0210638
2.1 -0.0144261
2.11 -0.00782128
2.12 -0.00161054
2.13 0.00385158
2.14 0.00821362
2.15 0.0111407
2.16 0.0123276
2.17 0.0112678
2.18 0.00794586
2.19 0.00224552
2.2 -0.00589538
2.21 -0.0164667
2.22 -0.0293853
2.23 -0.0445859
2.24 -0.0618568
2.25 -0.0807468
2.26 -0.100912
2.27 -0.12197
2.28 -0.143516
2.29 -0.165133
2.3 -0.18633
2.31 -0.206694
2.32 -0.225871
2.33 -0.243538
2.34 -0.259428
2.35 -0.273329
2.36 -0.285021
2.37 -0.294317
2.38 -0.301405
2.39 -0.30636
2.4 -0.309318
2.41 -0.31047
2.42 -0.310052
2.43 -0.308252
2.44 -0.305486
2.45 -0.302109
2.46 -0.298437
2.47 -0.294778
2.48 -0.291418
2.49 -0.288631
2.5 -0.286714
2.51 -0.285771
2.52 -0.285916
2.53 -0.287209
2.54 -0.289662
2.55 -0.293238
2.56 -0.297924
2.57 -0.303536
2.58 -0.309869
2.59 -0.316735
2.6 -0.323931
2.61 -0.331245
2.62 -0.338465
2.63 -0.345339
2.64 -0.351702
2.65 -0.357398
2.66 -0.362301
2.67 -0.366316
2.68 -0.369382
2.69 -0.37141
2.7 -0.372423
2.71 -0.372521
2.72 -0.371775
2.73 -0.370282
2.74 -0.368152
2.75 -0.365511
2.76 -0.36246
2.77 -0.359185
2.78 -0.35581
2.79 -0.352446
2.8 -0.349191
2.81 -0.346125
2.82 -0.343323
2.83 -0.340827
2.84 -0.338634
2.85 -0.336736
2.86 -0.335106
2.87 -0.333702
2.88 -0.332472
2.89 -0.331355
2.9 -0.330267
2.91 -0.329136
2.92 -0.327894
2.93 -0.326477
2.94 -0.324831
2.95 -0.322893
2.96 -0.320612
2.97 -0.317981
2.98 -0.314982
2.99 -0.311602
3 -0.307835
3.01 -0.303673
3.02 -0.299071
3.03 -0.294047
3.04 -0.288588
3.05 -0.282665
3.06 -0.276237
3.07 -0.26925
3.08 -0.261612
3.09 -0.25319
3.1 -0.243939
3.11 -0.23375
3.12 -0.222507
3.13 -0.210087
3.14 -0.196371
3.15 -0.181114
3.16 -0.164271
3.17 -0.145802
3.18 -0.125642
3.19 -0.103752
3.2 -0.0801194
3.21 -0.0547342
3.22 -0.0275414
3.23 0.00118889
3.24 0.0313141
3.25 0.0626557
3.26 0.0950014
3.27 0.128108
3.28 0.161721
3.29 0.195491
3.3 0.22909
3.31 0.262202
3.32 0.294512
3.33 0.325709
3.34 0.355481
3.35 0.383356
3.36 0.409247
3.37 0.432941
3.38 0.454261
3.39 0.473067
3.4 0.489259
3.41 0.502608
3.42 0.513119
3.43 0.520964
3.44 0.526206
3.45 0.528936
3.46 0.529275
3.47 0.527362
3.48 0.523135
3.49 0.51702
3.5 0.509198
3.51 0.499849
3.52 0.489149
3.53 0.477267
3.54 0.46432
3.55 0.450464
3.56 0.435897
3.57 0.420738
3.58 0.405091
3.59 0.389052
3.6 0.372703
3.61 0.356102
3.62 0.339346
3.63 0.322502
3.64 0.305636
3.65 0.288813
3.66 0.272106
3.67 0.255601
3.68 0.239405
3.69 0.223598
3.7 0.208281
3.71 0.193561
3.72 0.179555
3.73 0.166381
3.74 0.154262
3.75 0.143266
3.76 0.133487
3.77 0.125036
3.78 0.118013
3.79 0.11251
3.8 0.108648
3.81 0.10659
3.82 0.10623
3.83 0.107586
3.84 0.110656
3.85 0.115417
3.86 0.121829
3.87 0.12996
3.88 0.139648
3.89 0.150747
3.9 0.163156
3.91 0.176763
3.92 0.191453
3.93 0.20712
3.94 0.223695
3.95 0.240964
3.96 0.258808
3.97 0.277115
3.98 0.295774
3.99 0.31468
4 0.333738
4.01 0.352837
4.02 0.37188
4.03 0.390781
4.04 0.409456
4.05 0.427819
4.06 0.445782
4.07 0.463198
4.08 0.480023
4.09 0.496165
4.1 0.511526
4.11 0.526009
4.12 0.53951
4.13 0.551857
4.14 0.562933
4.15 0.572701
4.16 0.581062
4.17 0.587928
4.18 0.593214
4.19 0.59685
4.2 0.598576
4.21 0.598532
4.22 0.596699
4.23 0.59307
4.24 0.587652
4.25 0.580472
4.26 0.571492
4.27 0.560751
4.28 0.548442
4.29 0.534656
4.3 0.519489
4.31 0.503048
4.32 0.485443
4.33 0.466689
4.34 0.446998
4.35 0.42649
4.36 0.405262
4.37 0.383403
4.38 0.360989
4.39 0.338072
4.4 0.314697
4.41 0.290943
4.42 0.266842
4.43 0.242417
4.44 0.217686
4.45 0.192662
4.46 0.167331
4.47 0.141725
4.48 0.11587
4.49 0.0897882
4.5 0.0635131
4.51 0.0370878
4.52 0.0105675
4.53 -0.01597
4.54 -0.0424318
4.55 -0.0687199
4.56 -0.094725
4.57 -0.120328
4.58 -0.145404
4.59 -0.169757
4.6 -0.193267
4.61 -0.215831
4.62 -0.237326
4.63 -0.257642
4.64 -0.276681
4.65 -0.294338
4.66 -0.310426
4.67 -0.325049
4.68 -0.338196
4.69 -0.349879
4.7 -0.360134
4.71 -0.36902
4.72 -0.376535
4.73 -0.382821
4.74 -0.388059
4.75 -0.392378
4.76 -0.395917
4.77 -0.398818
4.78 -0.401222
4.79 -0.403243
4.8 -0.405062
4.81 -0.406795
4.82 -0.408541
4.83 -0.410384
4.84 -0.412387
4.85 -0.41461
4.86 -0.417077
4.87 -0.419775
4.88 -0.422684
4.89 -0.42577
4.9 -0.428982
4.91 -0.432259
4.92 -0.435522
4.93 -0.438688
4.94 -0.441678
4.95 -0.444415
4.96 -0.446827
4.97 -0.448847
4.98 -0.450395
4.99 -0.451403
5 -0.451872
5.01 -0.451777
5.02 -0.451109
5.03 -0.449865
5.04 -0.448054
5.05 -0.44564
5.06 -0.442694
5.07 -0.439255
5.08 -0.43535
5.09 -0.43101
5.1 -0.426264
5.11 -0.421121
5.12 -0.415589
5.13 -0.409712
5.14 -0.403497
5.15 -0.396947
5.16 -0.39006
5.17 -0.382831
5.18 -0.375218
5.19 -0.367233
5.2 -0.358879
5.21 -0.350152
5.22 -0.341052
5.23 -0.33159
5.24 -0.321775
5.25 -0.311617
5.26 -0.30119
5.27 -0.290548
5.28 -0.279754
5.29 -0.268884
5.3 -0.258022
5.31 -0.247276
5.32 -0.236754
5.33 -0.226554
5.34 -0.216779
5.35 -0.207526
5.36 -0.198891
5.37 -0.190968
5.38 -0.183908
5.39 -0.177694
5.4 -0.172366
5.41 -0.167946
5.42 -0.16444
5.43 -0.161833
5.44 -0.160147
5.45 -0.15931
5.46 -0.159208
5.47 -0.159759
5.48 -0.160869
5.49 -0.162436
5.5 -0.164353
5.51 -0.166524
5.52 -0.168803
5.53 -0.171086
5.54 -0.173275
5.55 -0.175282
5.56 -0.177028
5.57 -0.178428
5.58 -0.179418
5.59 -0.179983
5.6 -0.180099
5.61 -0.179753
5.62 -0.178943
5.63 -0.177674
5.64 -0.175913
5.65 -0.173721
5.66 -0.171122
5.67 -0.168133
5.68 -0.164769
5.69 -0.16104
5.7 -0.156933
5.71 -0.152435
5.72 -0.147558
5.73 -0.142282
5.74 -0.13658
5.75 -0.13042
5.76 -0.123764
5.77 -0.116515
5.78 -0.108672
5.79 -0.100207
5.8 -0.0910874
5.81 -0.0812899
5.82 -0.0707991
5.83 -0.0595891
5.84 -0.0476389
5.85 -0.0350356
5.86 -0.0218238
5.87 -0.00806313
5.88 0.00617207
5.89 0.0207937
5.9 0.0357168
5.91 0.0508005
5.92 0.065918
5.93 0.0809474
5.94 0.0957669
5.95 0.110257
5.96 0.124294
5.97 0.137721
5.98 0.150496
5.99 0.162546
6 0.173816
6.01 0.184269
6.02 0.193886
6.03 0.202607
6.04 0.210482
6.05 0.217587
6.06 0.223975
6.07 0.229711
6.08 0.234871
6.09 0.239528
6.1 0.243736
6.11 0.247625
6.12 0.251269
6.13 0.254732
6.14 0.258069
6.15 0.261317
6.16 0.264496
6.17 0.267612
6.18 0.27065
6.19 0.273576
6.2 0.27634
6.21 0.278874
6.22 0.281099
6.23 0.282866
6.24 0.284114
6.25 0.284739
6.26 0.284639
6.27 0.283713
6.28 0.28187
6.29 0.278969
6.3 0.27492
6.31 0.269739
6.32 0.263395
6.33 0.255876
6.34 0.24719
6.35 0.237365
6.36 0.226341
6.37 0.214297
6.38 0.201334
6.39 0.187552
6.4 0.173066
6.41 0.157996
6.42 0.142456
6.43 0.126583
6.44 0.110536
6.45 0.0944375
6.46 0.0784023
6.47 0.0625345
6.48 0.0469262
6.49 0.0316938
6.5 0.0168804
6.51 0.00252107
6.52 -0.011357
6.53 -0.024742
6.54 -0.0376369
6.55 -0.0500439
6.56 -0.0619709
6.57 -0.0734981
6.58 -0.0846717
6.59 -0.0955426
6.6 -0.106164
6.61 -0.116588
6.62 -0.126857
6.63 -0.137028
6.64 -0.147145
6.65 -0.157236
6.66 -0.167319
6.67 -0.177403
6.68 -0.187486
6.69 -0.197548
6.7 -0.207562
6.71 -0.217486
6.72 -0.22727
6.73 -0.236855
6.74 -0.246172
6.75 -0.255115
6.76 -0.263601
6.77 -0.271557
6.78 -0.278895
6.79 -0.285525
6.8 -0.291358
6.81 -0.296298
6.82 -0.300153
6.83 -0.302943
6.84 -0.304596
6.85 -0.305046
6.86 -0.304235
6.87 -0.302114
6.88 -0.298556
6.89 -0.293536
6.9 -0.28711
6.91 -0.27927
6.92 -0.270016
6.93 -0.25936
6.94 -0.247322
6.95 -0.23378
6.96 -0.218931
6.97 -0.202826
6.98 -0.18552
6.99 -0.167077
7 -0.147565
7.01 -0.12701
7.02 -0.105487
7.03 -0.0831423
7.04 -0.0600581
7.05 -0.0363182
7.06 -0.0120062
7.07 0.0127949
7.08 0.0380371
7.09 0.063596
7.1 0.0893895
7.11 0.115344
7.12 0.141388
7.13 0.167453
7.14 0.19347
7.15 0.219364
7.16 0.245077
7.17 0.270551
7.18 0.295728
7.19 0.320549
7.2 0.344956
7.21 0.368838
7.22 0.392157
7.23 0.41486
7.24 0.436878
7.25 0.45814
7.26 0.478569
7.27 0.498059
7.28 0.516457
7.29 0.53376
7.3 0.549881
7.31 0.564732
7.32 0.578227
7.33 0.590279
7.34 0.600676
7.35 0.609399
7.36 0.61643
7.37 0.621707
7.38 0.625174
7.39 0.626786
7.4 0.626475
7.41 0.624059
7.42 0.619721
7.43 0.613466
7.44 0.605315
7.45 0.595299
7.46 0.583465
7.47 0.569751
7.48 0.554279
7.49 0.537214
7.5 0.518648
7.51 0.498682
7.52 0.477424
7.53 0.454981
7.54 0.431374
7.55 0.406856
7.56 0.381552
7.57 0.35559
7.58 0.329096
7.59 0.302201
7.6 0.275023
7.61 0.24771
7.62 0.2204
7.63 0.193219
7.64 0.166288
7.65 0.139726
7.66 0.113652
7.67 0.0882586
7.68 0.0636041
7.69 0.0397916
7.7 0.0169228
7.71 -0.00490571
7.72 -0.0256037
7.73 -0.0450263
7.74 -0.0630612
7.75 -0.079731
7.76 -0.0949838
7.77 -0.10878
7.78 -0.121091
7.79 -0.131905
7.8 -0.141072
7.81 -0.148738
7.82 -0.154962
7.83 -0.15979
7.84 -0.163287
7.85 -0.165524
7.86 -0.166549
7.87 -0.166424
7.88 -0.165348
7.89 -0.16343
7.9 -0.160783
7.91 -0.15752
7.92 -0.153751
7.93 -0.149554
7.94 -0.145064
7.95 -0.140379
7.96 -0.135573
7.97 -0.130709
7.98 -0.125837
7.99 -0.120992
8 -0.116202
8.01 -0.111468
8.02 -0.106782
8.03 -0.102128
8.04 -0.0974799
8.05 -0.0928059
8.06 -0.0880633
8.07 -0.083214
8.08 -0.0782275
8.09 -0.0730757
8.1 -0.0677382
8.11 -0.0622038
8.12 -0.0564701
8.13 -0.0505366
8.14 -0.0444525
8.15 -0.0382601
8.16 -0.0320142
8.17 -0.0257805
8.18 -0.0196347
8.19 -0.0136769
8.2 -0.0080046
8.21 -0.00269778
8.22 0.00215709
8.23 0.00647911
8.24 0.0101962
8.25 0.0132454
8.26 0.015499
8.27 0.0170095
8.28 0.0177714
8.29 0.017799
8.3 0.0171262
8.31 0.0158066
8.32 0.0138847
8.33 0.0114627
8.34 0.00868022
8.35 0.00565246
8.36 0.00250087
8.37 -0.000650874
8.38 -0.00368092
8.39 -0.0064358
8.4 -0.00882603
8.41 -0.0107664
8.42 -0.012188
8.43 -0.0130428
8.44 -0.0133057
8.45 -0.0129503
8.46 -0.0119927
8.47 -0.0105302
8.48 -0.00864063
8.49 -0.00642206
8.5 -0.00399025
8.51 -0.00147506
8.52 0.000963512
8.53 0.0031678
8.54 0.00499342
8.55 0.00629975
8.56 0.00695581
8.57 0.00684451
8.58 0.00583386
8.59 0.00379171
8.6 0.000743045
8.61 -0.00333483
8.62 -0.00843848
8.63 -0.0145386
8.64 -0.0215809
8.65 -0.0295549
8.66 -0.0382982
8.67 -0.0476666
8.68 -0.0575295
8.69 -0.0677485
8.7 -0.078182
8.71 -0.0886879
8.72 -0.0991102
8.73 -0.109323
8.74 -0.119218
8.75 -0.128706
8.76 -0.137715
8.77 -0.146196
8.78 -0.154077
8.79 -0.161374
8.8 -0.168128
8.81 -0.174377
8.82 -0.180174
8.83 -0.185585
8.84 -0.190681
8.85 -0.195532
8.86 -0.20025
8.87 -0.204914
8.88 -0.209593
8.89 -0.214349
8.9 -0.21923
8.91 -0.224278
8.92 -0.229508
8.93 -0.234902
8.94 -0.240437
8.95 -0.246071
8.96 -0.251747
8.97 -0.257395
8.98 -0.262911
8.99 -0.268213
9 -0.273207
9.01 -0.277804
9.02 -0.281916
9.03 -0.285464
9.04 -0.288343
9.05 -0.290486
9.06 -0.291899
9.07 -0.292567
9.08 -0.292491
9.09 -0.291693
9.1 -0.29021
9.11 -0.288038
9.12 -0.285318
9.13 -0.282141
9.14 -0.2786
9.15 -0.274794
9.16 -0.270823
9.17 -0.266787
9.18 -0.262794
9.19 -0.258931
9.2 -0.255268
9.21 -0.251864
9.22 -0.248761
9.23 -0.245984
9.24 -0.243575
9.25 -0.241498
9.26 -0.239719
9.27 -0.238199
9.28 -0.236885
9.29 -0.235718
9.3 -0.234632
9.31 -0.233548
9.32 -0.232391
9.33 -0.231098
9.34 -0.229608
9.35 -0.227874
9.36 -0.225855
9.37 -0.223499
9.38 -0.220808
9.39 -0.217797
9.4 -0.214484
9.41 -0.210897
9.42 -0.207076
9.43 -0.203067
9.44 -0.198922
9.45 -0.194718
9.46 -0.190512
9.47 -0.186361
9.48 -0.182315
9.49 -0.178415
9.5 -0.174707
9.51 -0.171205
9.52 -0.167902
9.53 -0.164783
9.54 -0.161818
9.55 -0.158965
9.56 -0.156163
9.57 -0.153331
9.58 -0.150381
9.59 -0.147221
9.6 -0.143755
9.61 -0.139886
9.62 -0.135517
9.63 -0.130513
9.64 -0.124781
9.65 -0.11828
9.66 -0.11095
9.67 -0.102743
9.68 -0.0936289
9.69 -0.0835915
9.7 -0.0725275
9.71 -0.0605644
9.72 -0.0477407
9.73 -0.0341074
9.74 -0.0197281
9.75 -0.00467672
9.76 0.0109902
9.77 0.0271778
9.78 0.0437561
9.79 0.0606324
9.8 0.0777157
9.81 0.0949183
9.82 0.112158
9.83 0.129348
9.84 0.146417
9.85 0.163308
9.86 0.179972
9.87 0.196368
9.88 0.212461
9.89 0.228209
9.9 0.243578
9.91 0.258574
9.92 0.273187
9.93 0.287402
9.94 0.301209
9.95 0.314595
9.96 0.327503
9.97 0.339943
9.98 0.351904
9.99 0.363362
10 0.37429
10.01 0.384658
10.02 0.394415
10.03 0.403488
10.04 0.411897
10.05 0.419614
10.06 0.42661
10.07 0.432864
10.08 0.438359
10.09 0.443024
10.1 0.446895
10.11 0.450007
10.12 0.452382
10.13 0.454045
10.14 0.455035
10.15 0.455387
10.16 0.455115
10.17 0.454342
10.18 0.453134
10.19 0.45156
10.2 0.44969
10.21 0.447597
10.22 0.445342
10.23 0.443003
10.24 0.440646
10.25 0.438323
10.26 0.436078
10.27 0.433945
10.28 0.431952
10.29 0.430132
10.3 0.42847
10.31 0.426962
10.32 0.425592
10.33 0.424336
10.34 0.423161
10.35 0.422031
10.36 0.420894
10.37 0.4197
10.38 0.418397
10.39 0.416933
10.4 0.415255
10.41 0.41331
10.42 0.411006
10.43 0.408324
10.44 0.40522
10.45 0.401653
10.46 0.397583
10.47 0.392976
10.48 0.387771
10.49 0.381928
10.5 0.375461
10.51 0.368354
10.52 0.36059
10.53 0.352158
10.54 0.34305
10.55 0.333192
10.56 0.322644
10.57 0.311421
10.58 0.29953
10.59 0.286986
10.6 0.273805
10.61 0.259989
10.62 0.245546
10.63 0.230558
10.64 0.215067
10.65 0.199118
10.66 0.18276
10.67 0.166049
10.68 0.149023
10.69 0.131772
10.7 0.114368
10.71 0.0968778
10.72 0.0793678
10.73 0.0619029
10.74 0.0445501
10.75 0.0273856
10.76 0.0104501
10.77 -0.00621146
10.78 -0.022562
10.79 -0.0385729
10.8 -0.0542245
10.81 -0.0694772
10.82 -0.0843475
10.83 -0.0988603
10.84 -0.113035
10.85 -0.126899
10.86 -0.140485
10.87 -0.15383
10.88 -0.166963
10.89 -0.179953
10.9 -0.192844
10.91 -0.205675
10.92 -0.218484
10.93 -0.231303
10.94 -0.24416
10.95 -0.257069
10.96 -0.270032
10.97 -0.283044
10.98 -0.296085
10.99 -0.309128
11 -0.322136
11.01 -0.335044
11.02 -0.347801
11.03 -0.360342
11.04 -0.372599
11.05 -0.384499
11.06 -0.395969
11.07 -0.406903
11.08 -0.41722
11.09 -0.426885
11.1 -0.435841
11.11 -0.444036
11.12 -0.451428
11.13 -0.457985
11.14 -0.463586
11.15 -0.46831
11.16 -0.47216
11.17 -0.475144
11.18 -0.47728
11.19 -0.47859
11.2 -0.479067
11.21 -0.478732
11.22 -0.477677
11.23 -0.47594
11.24 -0.473555
11.25 -0.470559
11.26 -0.466981
11.27 -0.462797
11.28 -0.458074
11.29 -0.452837
11.3 -0.447095
11.31 -0.440851
11.32 -0.434105
11.33 -0.426832
11.34 -0.418996
11.35 -0.410626
11.36 -0.401709
11.37 -0.392232
11.38 -0.382182
11.39 -0.371552
11.4 -0.360285
11.41 -0.348419
11.42 -0.335978
11.43 -0.322979
11.44 -0.309445
11.45 -0.295407
11.46 -0.280894
11.47 -0.265928
11.48 -0.250608
11.49 -0.234992
11.5 -0.219145
11.51 -0.203136
11.52 -0.187034
11.53 -0.170915
11.54 -0.154862
11.55 -0.138943
11.56 -0.123227
11.57 -0.107775
11.58 -0.0926454
11.59 -0.0778971
11.6 -0.0636198
11.61 -0.0498123
11.62 -0.0365064
11.63 -0.0237279
11.64 -0.011496
11.65 0.000175786
11.66 0.0112419
11.67 0.0217084
11.68 0.0316067
11.69 0.0409431
11.7 0.0497267
11.71 0.057969
11.72 0.0656825
11.73 0.0728261
11.74 0.079476
11.75 0.0856491
11.76 0.0913625
11.77 0.0966335
11.78 0.10148
11.79 0.105898
11.8 0.109905
11.81 0.113545
11.82 0.116836
11.83 0.119796
11.84 0.122444
11.85 0.124797
11.86 0.126846
11.87 0.128638
11.88 0.13019
11.89 0.131518
11.9 0.132634
11.91 0.13355
11.92 0.134264
11.93 0.134775
11.94 0.135096
11.95 0.135222
11.96 0.135141
11.97 0.134839
11.98 0.134295
11.99 0.133453
12 0.132299
12.01 0.130801
12.02 0.128918
12.03 0.126605
12.04 0.123816
12.05 0.120482
12.06 0.116518
12.07 0.11192
12.08 0.106643
12.09 0.100644
12.1 0.0938842
12.11 0.0863317
12.12 0.0778891
12.13 0.0685829
12.14 0.0584321
12.15 0.04744
12.16 0.0356198
12.17 0.0229952
12.18 0.00958458
