# xPDFsuite Configuration #
[PDF]
wavelength = 0.1
dataformat = QA
inputfile = BiMsol6_insitu_700 C-00369.xy
backgroundfile = Quartz2mm-dist500-00000.xy
mode = xray
bgscale = 0.0042
composition = Bi2Fe4O9
outputtype = gr
qmaxinst = 24.998449118
qmin = 0.1
qmax = 21.4986662415
rmax = 80.0
rmin = 0.0
rstep = 0.01
rpoly = 0.9

[Misc]
inputdir = C:/Data/Seafile/CPH/Beamtime/Desy Oct 20/In situ data/Processed/BiMsol6/PDF
savedir = C:/Data/Seafile/CPH/Beamtime/Desy Oct 20/In situ data/PDF/BiMsol6
backgroundfilefull = C:/Data/Seafile/CPH/Beamtime/Desy Oct 20/In situ data/Processed/Standard_Empty_Cap/Quartz2mm-dist500-00000.xy

#### start data
#S 1
#L r($\AA$)  G($\AA^{-2}$)
0 0
0.01 0.00667518
0.02 0.0129743
0.03 0.0185756
0.04 0.0231902
0.05 0.0265758
0.06 0.0285474
0.07 0.028903
0.08 0.0275835
0.09 0.0247376
0.1 0.0204878
0.11 0.0150238
0.12 0.00859457
0.13 0.00149734
0.14 -0.00593406
0.15 -0.013279
0.16 -0.0201825
0.17 -0.0263118
0.18 -0.0313684
0.19 -0.0351028
0.2 -0.0372591
0.21 -0.0376622
0.22 -0.0364141
0.23 -0.0335836
0.24 -0.029321
0.25 -0.0238527
0.26 -0.0174732
0.27 -0.0105173
0.28 -0.0034674
0.29 0.00324735
0.3 0.0092101
0.31 0.0140246
0.32 0.0173347
0.33 0.0187798
0.34 0.0180069
0.35 0.01507
0.36 0.00996622
0.37 0.00280066
0.38 -0.00621166
0.39 -0.0167491
0.4 -0.0284392
0.41 -0.0406394
0.42 -0.0527194
0.43 -0.064038
0.44 -0.0739322
0.45 -0.0817412
0.46 -0.0867665
0.47 -0.0881088
0.48 -0.0855711
0.49 -0.0787883
0.5 -0.067522
0.51 -0.0516752
0.52 -0.0313028
0.53 -0.00633108
0.54 0.0226706
0.55 0.0549517
0.56 0.0898158
0.57 0.126449
0.58 0.16394
0.59 0.2013
0.6 0.237266
0.61 0.270848
0.62 0.301049
0.63 0.32694
0.64 0.347683
0.65 0.362562
0.66 0.370584
0.67 0.371348
0.68 0.36504
0.69 0.351674
0.7 0.331455
0.71 0.30477
0.72 0.272182
0.73 0.233915
0.74 0.191508
0.75 0.145964
0.76 0.0983413
0.77 0.0497379
0.78 0.00125679
0.79 -0.0459118
0.8 -0.0905767
0.81 -0.131934
0.82 -0.16921
0.83 -0.201776
0.84 -0.229161
0.85 -0.251065
0.86 -0.266786
0.87 -0.276911
0.88 -0.281772
0.89 -0.281776
0.9 -0.277458
0.91 -0.26946
0.92 -0.258426
0.93 -0.245173
0.94 -0.23073
0.95 -0.2159
0.96 -0.201446
0.97 -0.188072
0.98 -0.176396
0.99 -0.167179
1 -0.160697
1.01 -0.157134
1.02 -0.156603
1.03 -0.159087
1.04 -0.164451
1.05 -0.172512
1.06 -0.18301
1.07 -0.19528
1.08 -0.208835
1.09 -0.223157
1.1 -0.237724
1.11 -0.252026
1.12 -0.265492
1.13 -0.277689
1.14 -0.288312
1.15 -0.29711
1.16 -0.30392
1.17 -0.308674
1.18 -0.31136
1.19 -0.311952
1.2 -0.310861
1.21 -0.308359
1.22 -0.304766
1.23 -0.300435
1.24 -0.295737
1.25 -0.291065
1.26 -0.286813
1.27 -0.283281
1.28 -0.28072
1.29 -0.279319
1.3 -0.279197
1.31 -0.280406
1.32 -0.283038
1.33 -0.286824
1.34 -0.291575
1.35 -0.297047
1.36 -0.302955
1.37 -0.308983
1.38 -0.314765
1.39 -0.319924
1.4 -0.324169
1.41 -0.32723
1.42 -0.328888
1.43 -0.32898
1.44 -0.327414
1.45 -0.323988
1.46 -0.318959
1.47 -0.312485
1.48 -0.304786
1.49 -0.29614
1.5 -0.286874
1.51 -0.27736
1.52 -0.268044
1.53 -0.259328
1.54 -0.251584
1.55 -0.245153
1.56 -0.240329
1.57 -0.237344
1.58 -0.236575
1.59 -0.237929
1.6 -0.24135
1.61 -0.246729
1.62 -0.253875
1.63 -0.262519
1.64 -0.272351
1.65 -0.282948
1.66 -0.293778
1.67 -0.304373
1.68 -0.314262
1.69 -0.322986
1.7 -0.330116
1.71 -0.335062
1.72 -0.3376
1.73 -0.337558
1.74 -0.334795
1.75 -0.32926
1.76 -0.320993
1.77 -0.310067
1.78 -0.296588
1.79 -0.28111
1.8 -0.26402
1.81 -0.245753
1.82 -0.226783
1.83 -0.207601
1.84 -0.188761
1.85 -0.170787
1.86 -0.154098
1.87 -0.139072
1.88 -0.126024
1.89 -0.115192
1.9 -0.106768
1.91 -0.10103
1.92 -0.0976884
1.93 -0.0966149
1.94 -0.0976023
1.95 -0.100375
1.96 -0.1046
1.97 -0.109945
1.98 -0.115927
1.99 -0.122078
2 -0.127992
2.01 -0.133289
2.02 -0.137628
2.03 -0.140715
2.04 -0.142146
2.05 -0.141939
2.06 -0.140039
2.07 -0.136475
2.08 -0.131352
2.09 -0.124849
2.1 -0.117164
2.11 -0.108651
2.12 -0.0997324
2.13 -0.0907901
2.14 -0.082219
2.15 -0.0744104
2.16 -0.0677377
2.17 -0.062737
2.18 -0.0595727
2.19 -0.0584563
2.2 -0.0595437
2.21 -0.0629189
2.22 -0.0685905
2.23 -0.076587
2.24 -0.0867934
2.25 -0.0988283
2.26 -0.112412
2.27 -0.127221
2.28 -0.142894
2.29 -0.159053
2.3 -0.17528
2.31 -0.191147
2.32 -0.206298
2.33 -0.220414
2.34 -0.233221
2.35 -0.244497
2.36 -0.254022
2.37 -0.261608
2.38 -0.267384
2.39 -0.271405
2.4 -0.273781
2.41 -0.274681
2.42 -0.274318
2.43 -0.272882
2.44 -0.270747
2.45 -0.268241
2.46 -0.265661
2.47 -0.263296
2.48 -0.261417
2.49 -0.260283
2.5 -0.260184
2.51 -0.261192
2.52 -0.263405
2.53 -0.266866
2.54 -0.271571
2.55 -0.277463
2.56 -0.284515
2.57 -0.292522
2.58 -0.301257
2.59 -0.310514
2.6 -0.320072
2.61 -0.329702
2.62 -0.339172
2.63 -0.348204
2.64 -0.356623
2.65 -0.364259
2.66 -0.37097
2.67 -0.376643
2.68 -0.381203
2.69 -0.384531
2.7 -0.386634
2.71 -0.3876
2.72 -0.38748
2.73 -0.386348
2.74 -0.384288
2.75 -0.381396
2.76 -0.377698
2.77 -0.37338
2.78 -0.368528
2.79 -0.363212
2.8 -0.357485
2.81 -0.351382
2.82 -0.344898
2.83 -0.338018
2.84 -0.330734
2.85 -0.322999
2.86 -0.314753
2.87 -0.305928
2.88 -0.296452
2.89 -0.286168
2.9 -0.275075
2.91 -0.26313
2.92 -0.250296
2.93 -0.236558
2.94 -0.221924
2.95 -0.206387
2.96 -0.189991
2.97 -0.172886
2.98 -0.155178
2.99 -0.136996
3 -0.118481
3.01 -0.099789
3.02 -0.0810924
3.03 -0.0625712
3.04 -0.0443786
3.05 -0.0266563
3.06 -0.00952924
3.07 0.00689835
3.08 0.0225199
3.09 0.0372351
3.1 0.0510953
3.11 0.0641134
3.12 0.0763303
3.13 0.087813
3.14 0.0986515
3.15 0.10892
3.16 0.118789
3.17 0.12841
3.18 0.137919
3.19 0.14745
3.2 0.15713
3.21 0.167077
3.22 0.177421
3.23 0.188202
3.24 0.19946
3.25 0.211208
3.26 0.223433
3.27 0.236095
3.28 0.249148
3.29 0.262479
3.3 0.275958
3.31 0.28946
3.32 0.302848
3.33 0.315982
3.34 0.328716
3.35 0.340848
3.36 0.352302
3.37 0.362972
3.38 0.372769
3.39 0.381627
3.4 0.389502
3.41 0.39631
3.42 0.402068
3.43 0.406864
3.44 0.41075
3.45 0.413798
3.46 0.416094
3.47 0.417737
3.48 0.418782
3.49 0.419414
3.5 0.419742
3.51 0.419874
3.52 0.419908
3.53 0.419935
3.54 0.420041
3.55 0.420301
3.56 0.420758
3.57 0.421446
3.58 0.422389
3.59 0.423597
3.6 0.42507
3.61 0.426829
3.62 0.428834
3.63 0.431066
3.64 0.433507
3.65 0.436143
3.66 0.438959
3.67 0.441955
3.68 0.445132
3.69 0.448481
3.7 0.452009
3.71 0.455727
3.72 0.459648
3.73 0.463788
3.74 0.468181
3.75 0.47282
3.76 0.477702
3.77 0.482818
3.78 0.488149
3.79 0.493663
3.8 0.499318
3.81 0.505045
3.82 0.510754
3.83 0.516348
3.84 0.52172
3.85 0.526747
3.86 0.5313
3.87 0.535176
3.88 0.538246
3.89 0.540388
3.9 0.541463
3.91 0.541341
3.92 0.539902
3.93 0.537011
3.94 0.532449
3.95 0.526294
3.96 0.518503
3.97 0.509055
3.98 0.497953
3.99 0.48522
4 0.470796
4.01 0.4548
4.02 0.43739
4.03 0.418672
4.04 0.398758
4.05 0.377772
4.06 0.355836
4.07 0.333014
4.08 0.309535
4.09 0.285524
4.1 0.2611
4.11 0.236374
4.12 0.211447
4.13 0.186409
4.14 0.161353
4.15 0.136353
4.16 0.11147
4.17 0.0867557
4.18 0.0622566
4.19 0.0380146
4.2 0.0141069
4.21 -0.00945697
4.22 -0.0326387
4.23 -0.0553964
4.24 -0.0776848
4.25 -0.0994545
4.26 -0.120621
4.27 -0.141104
4.28 -0.160883
4.29 -0.179893
4.3 -0.198069
4.31 -0.215348
4.32 -0.231669
4.33 -0.24687
4.34 -0.260986
4.35 -0.273999
4.36 -0.285883
4.37 -0.296629
4.38 -0.306239
4.39 -0.314691
4.4 -0.32198
4.41 -0.328245
4.42 -0.333551
4.43 -0.337973
4.44 -0.341599
4.45 -0.344522
4.46 -0.346794
4.47 -0.34857
4.48 -0.349963
4.49 -0.351071
4.5 -0.351981
4.51 -0.352775
4.52 -0.353523
4.53 -0.354286
4.54 -0.355109
4.55 -0.356017
4.56 -0.35702
4.57 -0.358117
4.58 -0.359293
4.59 -0.360526
4.6 -0.361775
4.61 -0.362995
4.62 -0.364144
4.63 -0.365177
4.64 -0.366051
4.65 -0.366724
4.66 -0.367141
4.67 -0.367301
4.68 -0.367193
4.69 -0.366815
4.7 -0.366178
4.71 -0.365301
4.72 -0.364205
4.73 -0.362939
4.74 -0.361562
4.75 -0.360129
4.76 -0.358696
4.77 -0.357323
4.78 -0.356066
4.79 -0.355004
4.8 -0.354168
4.81 -0.353598
4.82 -0.353325
4.83 -0.353368
4.84 -0.35374
4.85 -0.354459
4.86 -0.355513
4.87 -0.356863
4.88 -0.35848
4.89 -0.36033
4.9 -0.362373
4.91 -0.364568
4.92 -0.366879
4.93 -0.369247
4.94 -0.371633
4.95 -0.374
4.96 -0.376317
4.97 -0.378558
4.98 -0.380695
4.99 -0.382709
5 -0.384597
5.01 -0.386352
5.02 -0.387969
5.03 -0.389444
5.04 -0.390772
5.05 -0.391927
5.06 -0.392907
5.07 -0.393692
5.08 -0.394255
5.09 -0.394556
5.1 -0.394547
5.11 -0.394154
5.12 -0.393279
5.13 -0.391872
5.14 -0.389845
5.15 -0.387104
5.16 -0.383552
5.17 -0.379088
5.18 -0.373512
5.19 -0.366777
5.2 -0.358823
5.21 -0.349568
5.22 -0.338942
5.23 -0.326888
5.24 -0.313326
5.25 -0.298126
5.26 -0.281419
5.27 -0.263217
5.28 -0.243548
5.29 -0.222457
5.3 -0.200002
5.31 -0.176163
5.32 -0.151086
5.33 -0.124918
5.34 -0.0977609
5.35 -0.0697233
5.36 -0.0409155
5.37 -0.0114424
5.38 0.0186202
5.39 0.0490968
5.4 0.0798803
5.41 0.110866
5.42 0.141952
5.43 0.173037
5.44 0.20401
5.45 0.234757
5.46 0.265183
5.47 0.295183
5.48 0.324646
5.49 0.353459
5.5 0.381495
5.51 0.408506
5.52 0.434443
5.53 0.459157
5.54 0.482495
5.55 0.504293
5.56 0.52439
5.57 0.542507
5.58 0.558443
5.59 0.572161
5.6 0.583516
5.61 0.592376
5.62 0.598628
5.63 0.602181
5.64 0.602663
5.65 0.600312
5.66 0.595151
5.67 0.58721
5.68 0.576554
5.69 0.563278
5.7 0.547406
5.71 0.529054
5.72 0.508593
5.73 0.486234
5.74 0.462206
5.75 0.436753
5.76 0.410123
5.77 0.382504
5.78 0.354244
5.79 0.325599
5.8 0.296791
5.81 0.268025
5.82 0.239486
5.83 0.211348
5.84 0.183784
5.85 0.156859
5.86 0.130641
5.87 0.105177
5.88 0.0804891
5.89 0.05658
5.9 0.0334993
5.91 0.0111744
5.92 -0.0104528
5.93 -0.0314179
5.94 -0.0517535
5.95 -0.0714843
5.96 -0.0906107
5.97 -0.109085
5.98 -0.126941
5.99 -0.144133
6 -0.1606
6.01 -0.17626
6.02 -0.191013
6.03 -0.204658
6.04 -0.217082
6.05 -0.228195
6.06 -0.237858
6.07 -0.245937
6.08 -0.252307
6.09 -0.256835
6.1 -0.259235
6.11 -0.25964
6.12 -0.258016
6.13 -0.254358
6.14 -0.248694
6.15 -0.241089
6.16 -0.231527
6.17 -0.220182
6.18 -0.207318
6.19 -0.193126
6.2 -0.177821
6.21 -0.161632
6.22 -0.144798
6.23 -0.127547
6.24 -0.110187
6.25 -0.0929519
6.26 -0.0760559
6.27 -0.0596943
6.28 -0.0440368
6.29 -0.0292746
6.3 -0.0155383
6.31 -0.00283714
6.32 0.00879892
6.33 0.0193738
6.34 0.0289241
6.35 0.0375161
6.36 0.0451638
6.37 0.0520801
6.38 0.0584117
6.39 0.0643069
6.4 0.0699198
6.41 0.0754053
6.42 0.0809213
6.43 0.0866336
6.44 0.0926629
6.45 0.0991164
6.46 0.106082
6.47 0.113625
6.48 0.121791
6.49 0.130664
6.5 0.140195
6.51 0.150348
6.52 0.161085
6.53 0.172354
6.54 0.184094
6.55 0.196246
6.56 0.20875
6.57 0.2215
6.58 0.234431
6.59 0.247484
6.6 0.260607
6.61 0.273761
6.62 0.286914
6.63 0.300045
6.64 0.31315
6.65 0.32623
6.66 0.339295
6.67 0.352359
6.68 0.365437
6.69 0.378549
6.7 0.3917
6.71 0.404893
6.72 0.418118
6.73 0.431353
6.74 0.444562
6.75 0.457682
6.76 0.470634
6.77 0.483331
6.78 0.495668
6.79 0.507525
6.8 0.518769
6.81 0.529249
6.82 0.538706
6.83 0.54707
6.84 0.554188
6.85 0.559909
6.86 0.564091
6.87 0.566602
6.88 0.567208
6.89 0.565807
6.9 0.562422
6.91 0.556997
6.92 0.5495
6.93 0.539917
6.94 0.52826
6.95 0.514334
6.96 0.498426
6.97 0.480617
6.98 0.460997
6.99 0.43967
7 0.41675
7.01 0.392291
7.02 0.366419
7.03 0.339361
7.04 0.311247
7.05 0.282205
7.06 0.252362
7.07 0.221837
7.08 0.190699
7.09 0.159117
7.1 0.127201
7.11 0.0950476
7.12 0.0627475
7.13 0.030388
7.14 -0.00194244
7.15 -0.0341464
7.16 -0.0661464
7.17 -0.0978615
7.18 -0.12921
7.19 -0.16011
7.2 -0.190476
7.21 -0.220158
7.22 -0.249097
7.23 -0.277223
7.24 -0.304445
7.25 -0.330678
7.26 -0.355836
7.27 -0.379804
7.28 -0.402423
7.29 -0.42373
7.3 -0.443668
7.31 -0.46219
7.32 -0.479259
7.33 -0.494851
7.34 -0.508833
7.35 -0.521277
7.36 -0.532254
7.37 -0.541794
7.38 -0.549939
7.39 -0.556742
7.4 -0.562246
7.41 -0.566429
7.42 -0.569498
7.43 -0.571535
7.44 -0.572626
7.45 -0.572856
7.46 -0.57231
7.47 -0.571027
7.48 -0.569112
7.49 -0.566667
7.5 -0.563756
7.51 -0.560435
7.52 -0.556752
7.53 -0.552745
7.54 -0.548417
7.55 -0.543824
7.56 -0.538977
7.57 -0.533882
7.58 -0.528537
7.59 -0.522934
7.6 -0.517044
7.61 -0.510845
7.62 -0.504334
7.63 -0.497487
7.64 -0.490279
7.65 -0.482687
7.66 -0.474686
7.67 -0.466202
7.68 -0.45726
7.69 -0.447845
7.7 -0.437943
7.71 -0.427546
7.72 -0.41665
7.73 -0.405233
7.74 -0.393294
7.75 -0.380883
7.76 -0.368024
7.77 -0.354747
7.78 -0.34109
7.79 -0.327099
7.8 -0.312808
7.81 -0.298308
7.82 -0.283676
7.83 -0.268989
7.84 -0.254332
7.85 -0.239793
7.86 -0.225478
7.87 -0.21151
7.88 -0.197966
7.89 -0.184942
7.9 -0.172533
7.91 -0.160827
7.92 -0.149906
7.93 -0.139927
7.94 -0.130906
7.95 -0.122869
7.96 -0.115852
7.97 -0.109879
7.98 -0.104958
7.99 -0.101107
8 -0.0983692
8.01 -0.0966107
8.02 -0.0957806
8.03 -0.0958168
8.04 -0.096648
8.05 -0.0981958
8.06 -0.100419
8.07 -0.103196
8.08 -0.106416
8.09 -0.109996
8.1 -0.11386
8.11 -0.117937
8.12 -0.122167
8.13 -0.126503
8.14 -0.130894
8.15 -0.135315
8.16 -0.139751
8.17 -0.144199
8.18 -0.148664
8.19 -0.153162
8.2 -0.157713
8.21 -0.162336
8.22 -0.16705
8.23 -0.171872
8.24 -0.176811
8.25 -0.181867
8.26 -0.187037
8.27 -0.192278
8.28 -0.197546
8.29 -0.202777
8.3 -0.207894
8.31 -0.2128
8.32 -0.217358
8.33 -0.221421
8.34 -0.224868
8.35 -0.227554
8.36 -0.229326
8.37 -0.230032
8.38 -0.229523
8.39 -0.227495
8.4 -0.223946
8.41 -0.218777
8.42 -0.211897
8.43 -0.20324
8.44 -0.192763
8.45 -0.180365
8.46 -0.166015
8.47 -0.14989
8.48 -0.132059
8.49 -0.112617
8.5 -0.0916783
8.51 -0.0693776
8.52 -0.0457586
8.53 -0.021095
8.54 0.00442572
8.55 0.0306386
8.56 0.0573825
8.57 0.0845044
8.58 0.111866
8.59 0.139332
8.6 0.166778
8.61 0.194121
8.62 0.221294
8.63 0.248251
8.64 0.274964
8.65 0.301401
8.66 0.327581
8.67 0.353529
8.68 0.379267
8.69 0.404821
8.7 0.430214
8.71 0.455459
8.72 0.480555
8.73 0.505504
8.74 0.530279
8.75 0.554833
8.76 0.579099
8.77 0.602987
8.78 0.626341
8.79 0.649024
8.8 0.670903
8.81 0.691811
8.82 0.711567
8.83 0.729983
8.84 0.746848
8.85 0.76179
8.86 0.774795
8.87 0.785695
8.88 0.794338
8.89 0.800593
8.9 0.804352
8.91 0.805363
8.92 0.803599
8.93 0.799178
8.94 0.79211
8.95 0.782431
8.96 0.770205
8.97 0.755514
8.98 0.738208
8.99 0.718695
9 0.697115
9.01 0.673612
9.02 0.648336
9.03 0.621437
9.04 0.59299
9.05 0.563143
9.06 0.53212
9.07 0.50004
9.08 0.467014
9.09 0.433141
9.1 0.398512
9.11 0.363143
9.12 0.327182
9.13 0.290707
9.14 0.253787
9.15 0.216497
9.16 0.178914
9.17 0.141123
9.18 0.103234
9.19 0.0653762
9.2 0.0276813
9.21 -0.00970496
9.22 -0.0466205
9.23 -0.0828885
9.24 -0.118219
9.25 -0.152448
9.26 -0.185382
9.27 -0.216808
9.28 -0.246512
9.29 -0.274284
9.3 -0.299853
9.31 -0.322885
9.32 -0.343405
9.33 -0.361275
9.34 -0.376385
9.35 -0.388655
9.36 -0.398033
9.37 -0.404258
9.38 -0.407505
9.39 -0.407922
9.4 -0.405596
9.41 -0.400637
9.42 -0.393182
9.43 -0.383342
9.44 -0.371149
9.45 -0.357008
9.46 -0.341111
9.47 -0.323646
9.48 -0.304802
9.49 -0.284757
9.5 -0.263615
9.51 -0.241579
9.52 -0.218829
9.53 -0.19548
9.54 -0.171633
9.55 -0.147373
9.56 -0.122764
9.57 -0.0978399
9.58 -0.0726796
9.59 -0.0473198
9.6 -0.0217948
9.61 0.00386114
9.62 0.0296094
9.63 0.055404
9.64 0.0811789
9.65 0.106861
9.66 0.132365
9.67 0.157592
9.68 0.182428
9.69 0.206743
9.7 0.230304
9.71 0.253019
9.72 0.274731
9.73 0.295277
9.74 0.314498
9.75 0.332237
9.76 0.348259
9.77 0.362387
9.78 0.374622
9.79 0.384875
9.8 0.393083
9.81 0.399209
9.82 0.403243
9.83 0.404991
9.84 0.404701
9.85 0.402477
9.86 0.398424
9.87 0.392666
9.88 0.385343
9.89 0.376563
9.9 0.36647
9.91 0.355338
9.92 0.34334
9.93 0.330639
9.94 0.317393
9.95 0.303745
9.96 0.289811
9.97 0.275732
9.98 0.261602
9.99 0.24749
10 0.233446
10.01 0.219501
10.02 0.205673
10.03 0.191966
10.04 0.178356
10.05 0.164816
10.06 0.15132
10.07 0.137834
10.08 0.12433
10.09 0.110774
10.1 0.0971481
10.11 0.083444
10.12 0.0696633
10.13 0.0558185
10.14 0.0419337
10.15 0.0280447
10.16 0.0142073
10.17 0.00047758
10.18 -0.0130818
10.19 -0.0264042
10.2 -0.0394212
10.21 -0.0520659
10.22 -0.0642395
10.23 -0.0758889
10.24 -0.0869885
10.25 -0.0975031
10.26 -0.107409
10.27 -0.116698
10.28 -0.125367
10.29 -0.133375
10.3 -0.140823
10.31 -0.147754
10.32 -0.15422
10.33 -0.160279
10.34 -0.165998
10.35 -0.171428
10.36 -0.176648
10.37 -0.181734
10.38 -0.186743
10.39 -0.191722
10.4 -0.196712
10.41 -0.201741
10.42 -0.206836
10.43 -0.211994
10.44 -0.217209
10.45 -0.222463
10.46 -0.227733
10.47 -0.232987
10.48 -0.238182
10.49 -0.243273
10.5 -0.248226
10.51 -0.253003
10.52 -0.257574
10.53 -0.261913
10.54 -0.266004
10.55 -0.269813
10.56 -0.273367
10.57 -0.276685
10.58 -0.279792
10.59 -0.28272
10.6 -0.285512
10.61 -0.288211
10.62 -0.290875
10.63 -0.293562
10.64 -0.296321
10.65 -0.2992
10.66 -0.302239
10.67 -0.305471
10.68 -0.30894
10.69 -0.312642
10.7 -0.316568
10.71 -0.320702
10.72 -0.325018
10.73 -0.329475
10.74 -0.334026
10.75 -0.338607
10.76 -0.343147
10.77 -0.347578
10.78 -0.351832
10.79 -0.355845
10.8 -0.359555
10.81 -0.362879
10.82 -0.365783
10.83 -0.368255
10.84 -0.370278
10.85 -0.371853
10.86 -0.372993
10.87 -0.373719
10.88 -0.374047
10.89 -0.374073
10.9 -0.373859
10.91 -0.373476
10.92 -0.372997
10.93 -0.372495
10.94 -0.372049
10.95 -0.371732
10.96 -0.371594
10.97 -0.371677
10.98 -0.372009
10.99 -0.372602
11 -0.373452
11.01 -0.374557
11.02 -0.375844
11.03 -0.377252
11.04 -0.378707
11.05 -0.38012
11.06 -0.381394
11.07 -0.382403
11.08 -0.383021
11.09 -0.383154
11.1 -0.382698
11.11 -0.381555
11.12 -0.379639
11.13 -0.376875
11.14 -0.3731
11.15 -0.368368
11.16 -0.362667
11.17 -0.356
11.18 -0.348388
11.19 -0.339871
11.2 -0.330471
11.21 -0.320253
11.22 -0.309364
11.23 -0.297902
11.24 -0.28597
11.25 -0.273675
11.26 -0.261123
11.27 -0.248412
11.28 -0.235661
11.29 -0.222957
11.3 -0.210375
11.31 -0.197976
11.32 -0.185805
11.33 -0.173906
11.34 -0.162306
11.35 -0.150984
11.36 -0.139924
11.37 -0.1291
11.38 -0.118473
11.39 -0.108
11.4 -0.0976326
11.41 -0.087304
11.42 -0.0769552
11.43 -0.0665315
11.44 -0.0559814
11.45 -0.0452585
11.46 -0.0343164
11.47 -0.0231016
11.48 -0.0116114
11.49 0.000169632
11.5 0.012249
11.51 0.0246272
11.52 0.0372985
11.53 0.0502726
11.54 0.0635213
11.55 0.0770156
11.56 0.0907366
11.57 0.104666
11.58 0.118786
11.59 0.133085
11.6 0.147565
11.61 0.1622
11.62 0.176988
11.63 0.191927
11.64 0.20702
11.65 0.222272
11.66 0.237696
11.67 0.253296
11.68 0.269065
11.69 0.284999
11.7 0.30109
11.71 0.317324
11.72 0.333678
11.73 0.350125
11.74 0.366609
11.75 0.383076
11.76 0.39946
11.77 0.41569
11.78 0.431682
11.79 0.447322
11.8 0.462494
11.81 0.477117
11.82 0.491085
11.83 0.504292
11.84 0.516634
11.85 0.528008
11.86 0.538197
11.87 0.547208
11.88 0.554976
11.89 0.561434
11.9 0.56653
11.91 0.57022
11.92 0.572414
11.93 0.573052
11.94 0.572239
11.95 0.569989
11.96 0.566322
11.97 0.561273
11.98 0.554881
11.99 0.547074
12 0.538013
12.01 0.527781
12.02 0.516439
12.03 0.504049
12.04 0.490675
12.05 0.47635
12.06 0.4611
12.07 0.44506
12.08 0.428288
12.09 0.410843
12.1 0.39278
12.11 0.374156
12.12 0.35499
12.13 0.335376
12.14 0.315391
12.15 0.295101
12.16 0.274575
12.17 0.253887
12.18 0.233117
12.19 0.21236
12.2 0.191713
12.21 0.171273
12.22 0.151137
12.23 0.13141
12.24 0.112194
12.25 0.0936487
12.26 0.0758717
12.27 0.058936
12.28 0.0429363
