# xPDFsuite Configuration #
[PDF]
wavelength = 0.1
dataformat = QA
inputfile = BiMsol6_insitu_700 C-00627.xy
backgroundfile = Quartz2mm-dist500-00000.xy
mode = xray
bgscale = 0.0042
composition = Bi2Fe4O9
outputtype = gr
qmaxinst = 24.998449118
qmin = 0.1
qmax = 21.4986662415
rmax = 80.0
rmin = 0.0
rstep = 0.01
rpoly = 0.9

[Misc]
inputdir = C:/Data/Seafile/CPH/Beamtime/Desy Oct 20/In situ data/Processed/BiMsol6/PDF
savedir = C:/Data/Seafile/CPH/Beamtime/Desy Oct 20/In situ data/PDF/BiMsol6
backgroundfilefull = C:/Data/Seafile/CPH/Beamtime/Desy Oct 20/In situ data/Processed/Standard_Empty_Cap/Quartz2mm-dist500-00000.xy

#### start data
#S 1
#L r($\AA$)  G($\AA^{-2}$)
0 0
0.01 0.00627383
0.02 0.0121923
0.03 0.0174515
0.04 0.0217783
0.05 0.0249438
0.06 0.0267734
0.07 0.027076
0.08 0.0257959
0.09 0.0230737
0.1 0.019025
0.11 0.0138292
0.12 0.00772169
0.13 0.000983145
0.14 -0.00607086
0.15 -0.0130428
0.16 -0.0195975
0.17 -0.0254203
0.18 -0.0302292
0.19 -0.0337888
0.2 -0.035857
0.21 -0.0362688
0.22 -0.0351205
0.23 -0.0324774
0.24 -0.0284817
0.25 -0.0233475
0.26 -0.0173532
0.27 -0.0108155
0.28 -0.00419007
0.29 0.00211743
0.3 0.0077133
0.31 0.0122234
0.32 0.0153115
0.33 0.0166373
0.34 0.0158686
0.35 0.0130572
0.36 0.00820154
0.37 0.00140257
0.38 -0.00713492
0.39 -0.0171051
0.4 -0.0281531
0.41 -0.0396699
0.42 -0.0510581
0.43 -0.0617098
0.44 -0.0709968
0.45 -0.0782932
0.46 -0.0829373
0.47 -0.0840771
0.48 -0.0815288
0.49 -0.0749484
0.5 -0.0641128
0.51 -0.0489333
0.52 -0.0294657
0.53 -0.00564561
0.54 0.0219813
0.55 0.0526979
0.56 0.0858372
0.57 0.12062
0.58 0.156176
0.59 0.191557
0.6 0.225552
0.61 0.257218
0.62 0.285604
0.63 0.309819
0.64 0.329062
0.65 0.342649
0.66 0.349625
0.67 0.349609
0.68 0.342781
0.69 0.329156
0.7 0.30893
0.71 0.282477
0.72 0.25034
0.73 0.212734
0.74 0.171144
0.75 0.126537
0.76 0.079938
0.77 0.0324084
0.78 -0.014982
0.79 -0.0610761
0.8 -0.104714
0.81 -0.14511
0.82 -0.181506
0.83 -0.213282
0.84 -0.239969
0.85 -0.261263
0.86 -0.276456
0.87 -0.286114
0.88 -0.290545
0.89 -0.290133
0.9 -0.285386
0.91 -0.276923
0.92 -0.26536
0.93 -0.251484
0.94 -0.236313
0.95 -0.220636
0.96 -0.20521
0.97 -0.190738
0.98 -0.177844
0.99 -0.167294
1 -0.159394
1.01 -0.154356
1.02 -0.152323
1.03 -0.153314
1.04 -0.157228
1.05 -0.163926
1.06 -0.173194
1.07 -0.184392
1.08 -0.197062
1.09 -0.210709
1.1 -0.224826
1.11 -0.238911
1.12 -0.25241
1.13 -0.264867
1.14 -0.275948
1.15 -0.285371
1.16 -0.292936
1.17 -0.298531
1.18 -0.302093
1.19 -0.303537
1.2 -0.303215
1.21 -0.301345
1.22 -0.298195
1.23 -0.294072
1.24 -0.289307
1.25 -0.284237
1.26 -0.279242
1.27 -0.274626
1.28 -0.270647
1.29 -0.267507
1.3 -0.265353
1.31 -0.264276
1.32 -0.264402
1.33 -0.265548
1.34 -0.267593
1.35 -0.270364
1.36 -0.273649
1.37 -0.277203
1.38 -0.28075
1.39 -0.283984
1.4 -0.286657
1.41 -0.288542
1.42 -0.289452
1.43 -0.289245
1.44 -0.287832
1.45 -0.285047
1.46 -0.28107
1.47 -0.276013
1.48 -0.27004
1.49 -0.26336
1.5 -0.256226
1.51 -0.248923
1.52 -0.241794
1.53 -0.235147
1.54 -0.229265
1.55 -0.224404
1.56 -0.220782
1.57 -0.218567
1.58 -0.218026
1.59 -0.219068
1.6 -0.221624
1.61 -0.225583
1.62 -0.230768
1.63 -0.236942
1.64 -0.243825
1.65 -0.25105
1.66 -0.258199
1.67 -0.26489
1.68 -0.270747
1.69 -0.275409
1.7 -0.278547
1.71 -0.279693
1.72 -0.278714
1.73 -0.275516
1.74 -0.270026
1.75 -0.26225
1.76 -0.252271
1.77 -0.240198
1.78 -0.226178
1.79 -0.210697
1.8 -0.194107
1.81 -0.176791
1.82 -0.159157
1.83 -0.141615
1.84 -0.124638
1.85 -0.108629
1.86 -0.0938951
1.87 -0.0807108
1.88 -0.0692887
1.89 -0.0597721
1.9 -0.0522593
1.91 -0.0469068
1.92 -0.0434123
1.93 -0.041609
1.94 -0.0412711
1.95 -0.0421237
1.96 -0.0438547
1.97 -0.046141
1.98 -0.0485783
1.99 -0.050808
2 -0.0525208
2.01 -0.0534449
2.02 -0.0533583
2.03 -0.0520938
2.04 -0.0494136
2.05 -0.0454511
2.06 -0.0402769
2.07 -0.0340335
2.08 -0.0269308
2.09 -0.0192381
2.1 -0.0112811
2.11 -0.00347802
2.12 0.00377139
2.13 0.0100748
2.14 0.0150492
2.15 0.0183357
2.16 0.0196133
2.17 0.0183391
2.18 0.0145305
2.19 0.00808831
2.2 -0.00102585
2.21 -0.0127697
2.22 -0.0270207
2.23 -0.0436707
2.24 -0.0624518
2.25 -0.0828519
2.26 -0.104473
2.27 -0.126881
2.28 -0.14962
2.29 -0.17223
2.3 -0.194154
2.31 -0.214967
2.32 -0.2343
2.33 -0.251822
2.34 -0.267267
2.35 -0.280435
2.36 -0.29112
2.37 -0.29916
2.38 -0.304806
2.39 -0.308181
2.4 -0.309475
2.41 -0.308934
2.42 -0.306854
2.43 -0.30349
2.44 -0.299314
2.45 -0.294726
2.46 -0.290086
2.47 -0.285733
2.48 -0.28198
2.49 -0.279121
2.5 -0.27748
2.51 -0.277122
2.52 -0.278141
2.53 -0.280569
2.54 -0.28438
2.55 -0.289491
2.56 -0.295844
2.57 -0.303191
2.58 -0.311262
2.59 -0.319814
2.6 -0.328589
2.61 -0.337325
2.62 -0.34576
2.63 -0.35358
2.64 -0.360614
2.65 -0.366687
2.66 -0.371666
2.67 -0.375456
2.68 -0.378006
2.69 -0.37923
2.7 -0.379192
2.71 -0.378039
2.72 -0.375886
2.73 -0.372875
2.74 -0.369165
2.75 -0.364931
2.76 -0.360333
2.77 -0.3556
2.78 -0.350897
2.79 -0.346372
2.8 -0.34215
2.81 -0.338333
2.82 -0.335023
2.83 -0.332272
2.84 -0.330058
2.85 -0.328363
2.86 -0.327144
2.87 -0.326339
2.88 -0.325867
2.89 -0.325653
2.9 -0.325561
2.91 -0.325488
2.92 -0.325333
2.93 -0.325004
2.94 -0.324416
2.95 -0.32348
2.96 -0.322119
2.97 -0.320316
2.98 -0.318042
2.99 -0.315276
3 -0.312009
3.01 -0.308235
3.02 -0.303903
3.03 -0.299046
3.04 -0.293662
3.05 -0.287733
3.06 -0.281225
3.07 -0.274095
3.08 -0.266256
3.09 -0.257581
3.1 -0.248035
3.11 -0.237512
3.12 -0.225896
3.13 -0.213067
3.14 -0.198902
3.15 -0.183153
3.16 -0.165776
3.17 -0.14673
3.18 -0.125952
3.19 -0.103404
3.2 -0.0790804
3.21 -0.0529764
3.22 -0.0250486
3.23 0.00441645
3.24 0.035259
3.25 0.067281
3.26 0.100248
3.27 0.133896
3.28 0.167934
3.29 0.201993
3.3 0.235726
3.31 0.268799
3.32 0.300882
3.33 0.331655
3.34 0.360797
3.35 0.387819
3.36 0.412666
3.37 0.435141
3.38 0.455091
3.39 0.472405
3.4 0.487019
3.41 0.498744
3.42 0.507637
3.43 0.513921
3.44 0.517705
3.45 0.51913
3.46 0.51836
3.47 0.515576
3.48 0.510784
3.49 0.50441
3.5 0.496651
3.51 0.487695
3.52 0.477715
3.53 0.466869
3.54 0.455264
3.55 0.443022
3.56 0.430278
3.57 0.4171
3.58 0.403539
3.59 0.389628
3.6 0.375387
3.61 0.360797
3.62 0.345898
3.63 0.330702
3.64 0.315229
3.65 0.299503
3.66 0.283567
3.67 0.267475
3.68 0.251314
3.69 0.235198
3.7 0.219246
3.71 0.203598
3.72 0.188409
3.73 0.173847
3.74 0.160182
3.75 0.147561
3.76 0.136146
3.77 0.126111
3.78 0.117618
3.79 0.110813
3.8 0.105879
3.81 0.103035
3.82 0.102186
3.83 0.103365
3.84 0.106575
3.85 0.111785
3.86 0.118936
3.87 0.128082
3.88 0.139
3.89 0.151485
3.9 0.165375
3.91 0.180499
3.92 0.196677
3.93 0.213739
3.94 0.231535
3.95 0.24981
3.96 0.268402
3.97 0.287163
3.98 0.30596
3.99 0.324677
4 0.343199
4.01 0.361439
4.02 0.379348
4.03 0.396878
4.04 0.413993
4.05 0.430668
4.06 0.446874
4.07 0.462538
4.08 0.477687
4.09 0.492291
4.1 0.506311
4.11 0.519696
4.12 0.532386
4.13 0.544254
4.14 0.555201
4.15 0.56517
4.16 0.574049
4.17 0.581722
4.18 0.588067
4.19 0.592961
4.2 0.596095
4.21 0.59752
4.22 0.597147
4.23 0.594894
4.24 0.5907
4.25 0.584525
4.26 0.576257
4.27 0.565874
4.28 0.553553
4.29 0.539364
4.3 0.523399
4.31 0.505771
4.32 0.486616
4.33 0.465958
4.34 0.444098
4.35 0.421226
4.36 0.397516
4.37 0.373136
4.38 0.348252
4.39 0.323008
4.4 0.297555
4.41 0.272036
4.42 0.246552
4.43 0.221183
4.44 0.195991
4.45 0.171017
4.46 0.146306
4.47 0.121849
4.48 0.0976318
4.49 0.0736347
4.5 0.0498339
4.51 0.0262032
4.52 0.0027206
4.53 -0.020628
4.54 -0.0438649
4.55 -0.0669888
4.56 -0.0899848
4.57 -0.112824
4.58 -0.135461
4.59 -0.157811
4.6 -0.179799
4.61 -0.201346
4.62 -0.222353
4.63 -0.242715
4.64 -0.262323
4.65 -0.281053
4.66 -0.298704
4.67 -0.31527
4.68 -0.330668
4.69 -0.344829
4.7 -0.357702
4.71 -0.369255
4.72 -0.379386
4.73 -0.388138
4.74 -0.395615
4.75 -0.401875
4.76 -0.406997
4.77 -0.411077
4.78 -0.414219
4.79 -0.416473
4.8 -0.41807
4.81 -0.419145
4.82 -0.419828
4.83 -0.420249
4.84 -0.420525
4.85 -0.420771
4.86 -0.421095
4.87 -0.421572
4.88 -0.42226
4.89 -0.423197
4.9 -0.424405
4.91 -0.425884
4.92 -0.427643
4.93 -0.429618
4.94 -0.431759
4.95 -0.434003
4.96 -0.436281
4.97 -0.438518
4.98 -0.440624
4.99 -0.442503
5 -0.444084
5.01 -0.445295
5.02 -0.446066
5.03 -0.446338
5.04 -0.446058
5.05 -0.445121
5.06 -0.443541
5.07 -0.441307
5.08 -0.43841
5.09 -0.434845
5.1 -0.430619
5.11 -0.425722
5.12 -0.420147
5.13 -0.413971
5.14 -0.407224
5.15 -0.399938
5.16 -0.392147
5.17 -0.383887
5.18 -0.375163
5.19 -0.366044
5.2 -0.356585
5.21 -0.346827
5.22 -0.336814
5.23 -0.326595
5.24 -0.316214
5.25 -0.305722
5.26 -0.295189
5.27 -0.28467
5.28 -0.274226
5.29 -0.263917
5.3 -0.253808
5.31 -0.243987
5.32 -0.234517
5.33 -0.225448
5.34 -0.216841
5.35 -0.20875
5.36 -0.201225
5.37 -0.194317
5.38 -0.188124
5.39 -0.182604
5.4 -0.177772
5.41 -0.173631
5.42 -0.170173
5.43 -0.167379
5.44 -0.16526
5.45 -0.16376
5.46 -0.162798
5.47 -0.162316
5.48 -0.162252
5.49 -0.162537
5.5 -0.163104
5.51 -0.163896
5.52 -0.164814
5.53 -0.165791
5.54 -0.166765
5.55 -0.167678
5.56 -0.168481
5.57 -0.169116
5.58 -0.169541
5.59 -0.169737
5.6 -0.169679
5.61 -0.169349
5.62 -0.168735
5.63 -0.167824
5.64 -0.166573
5.65 -0.165004
5.66 -0.163108
5.67 -0.160873
5.68 -0.158283
5.69 -0.155318
5.7 -0.151934
5.71 -0.148087
5.72 -0.14377
5.73 -0.138947
5.74 -0.133578
5.75 -0.127624
5.76 -0.121045
5.77 -0.113737
5.78 -0.105717
5.79 -0.0969762
5.8 -0.0875001
5.81 -0.0772864
5.82 -0.0663446
5.83 -0.0546757
5.84 -0.0422903
5.85 -0.0293027
5.86 -0.0157828
5.87 -0.00181325
5.88 0.0125112
5.89 0.0270859
5.9 0.0418002
5.91 0.0565139
5.92 0.0711036
5.93 0.0854517
5.94 0.0994454
5.95 0.11298
5.96 0.125947
5.97 0.138211
5.98 0.149766
5.99 0.160569
6 0.170595
6.01 0.179838
6.02 0.188312
6.03 0.195994
6.04 0.202963
6.05 0.209313
6.06 0.215118
6.07 0.220456
6.08 0.225413
6.09 0.230068
6.1 0.234491
6.11 0.23878
6.12 0.242995
6.13 0.247181
6.14 0.251365
6.15 0.255559
6.16 0.259751
6.17 0.263907
6.18 0.267974
6.19 0.271884
6.2 0.275551
6.21 0.278878
6.22 0.281759
6.23 0.284
6.24 0.285542
6.25 0.28627
6.26 0.28608
6.27 0.284874
6.28 0.28257
6.29 0.279039
6.3 0.274217
6.31 0.26816
6.32 0.260872
6.33 0.252379
6.34 0.24273
6.35 0.231994
6.36 0.220166
6.37 0.207461
6.38 0.194011
6.39 0.179948
6.4 0.165411
6.41 0.150536
6.42 0.135459
6.43 0.120326
6.44 0.105267
6.45 0.0903857
6.46 0.0757719
6.47 0.0614959
6.48 0.0476099
6.49 0.0341879
6.5 0.0212111
6.51 0.00866016
6.52 -0.00349067
6.53 -0.0152815
6.54 -0.026764
6.55 -0.0379929
6.56 -0.0490332
6.57 -0.0599732
6.58 -0.0708784
6.59 -0.0818094
6.6 -0.0928185
6.61 -0.103947
6.62 -0.115239
6.63 -0.1267
6.64 -0.13832
6.65 -0.150078
6.66 -0.16194
6.67 -0.173853
6.68 -0.185751
6.69 -0.19754
6.7 -0.209135
6.71 -0.22044
6.72 -0.231356
6.73 -0.241783
6.74 -0.251619
6.75 -0.260712
6.76 -0.268977
6.77 -0.276365
6.78 -0.282801
6.79 -0.288224
6.8 -0.292582
6.81 -0.295825
6.82 -0.297807
6.83 -0.298634
6.84 -0.298298
6.85 -0.2968
6.86 -0.294148
6.87 -0.290356
6.88 -0.285373
6.89 -0.279227
6.9 -0.272001
6.91 -0.263715
6.92 -0.254388
6.93 -0.244035
6.94 -0.232669
6.95 -0.220189
6.96 -0.206714
6.97 -0.192253
6.98 -0.176813
6.99 -0.160397
7 -0.143013
7.01 -0.124622
7.02 -0.105225
7.03 -0.0849035
7.04 -0.063685
7.05 -0.0416029
7.06 -0.0186991
7.07 0.00497551
7.08 0.029427
7.09 0.0545133
7.1 0.0801441
7.11 0.106231
7.12 0.132677
7.13 0.15938
7.14 0.186234
7.15 0.213113
7.16 0.239892
7.17 0.266459
7.18 0.2927
7.19 0.318505
7.2 0.343768
7.21 0.368317
7.22 0.392091
7.23 0.415017
7.24 0.437013
7.25 0.458006
7.26 0.477927
7.27 0.49668
7.28 0.514131
7.29 0.530331
7.3 0.545236
7.31 0.558802
7.32 0.570992
7.33 0.581767
7.34 0.59097
7.35 0.598627
7.36 0.604757
7.37 0.609324
7.38 0.612296
7.39 0.613639
7.4 0.613295
7.41 0.611092
7.42 0.607173
7.43 0.601519
7.44 0.594119
7.45 0.584966
7.46 0.574065
7.47 0.561311
7.48 0.546772
7.49 0.530573
7.5 0.512766
7.51 0.493419
7.52 0.472613
7.53 0.450437
7.54 0.426883
7.55 0.402223
7.56 0.376597
7.57 0.35015
7.58 0.323039
7.59 0.295428
7.6 0.267475
7.61 0.239379
7.62 0.211332
7.63 0.183502
7.64 0.156057
7.65 0.129157
7.66 0.102953
7.67 0.0776947
7.68 0.0534338
7.69 0.030278
7.7 0.00832542
7.71 -0.0123418
7.72 -0.0316576
7.73 -0.0495035
7.74 -0.0658133
7.75 -0.0806719
7.76 -0.0940821
7.77 -0.106061
7.78 -0.11664
7.79 -0.125861
7.8 -0.133653
7.81 -0.140196
7.82 -0.145585
7.83 -0.149894
7.84 -0.153205
7.85 -0.155599
7.86 -0.15713
7.87 -0.157857
7.88 -0.157921
7.89 -0.157395
7.9 -0.156343
7.91 -0.154826
7.92 -0.152895
7.93 -0.150566
7.94 -0.147902
7.95 -0.14494
7.96 -0.141701
7.97 -0.138199
7.98 -0.134442
7.99 -0.130429
8 -0.126141
8.01 -0.121599
8.02 -0.116801
8.03 -0.111743
8.04 -0.106425
8.05 -0.10085
8.06 -0.0950057
8.07 -0.0889176
8.08 -0.0826158
8.09 -0.0761275
8.1 -0.0694873
8.11 -0.0627368
8.12 -0.0559244
8.13 -0.049112
8.14 -0.0423663
8.15 -0.035753
8.16 -0.02934
8.17 -0.0231963
8.18 -0.0173901
8.19 -0.0120185
8.2 -0.00714332
8.21 -0.00279671
8.22 0.000977272
8.23 0.00414473
8.24 0.0066832
8.25 0.00858052
8.26 0.00977183
8.27 0.0103505
8.28 0.0103505
8.29 0.00981883
8.3 0.00881417
8.31 0.00740586
8.32 0.00565874
8.33 0.00367068
8.34 0.00155079
8.35 -0.000609625
8.36 -0.00272074
8.37 -0.00469691
8.38 -0.00645922
8.39 -0.00790061
8.4 -0.00898862
8.41 -0.009685
8.42 -0.00996472
8.43 -0.00981921
8.44 -0.00925689
8.45 -0.0082875
8.46 -0.00695234
8.47 -0.00534073
8.48 -0.00352774
8.49 -0.00159982
8.5 0.000347558
8.51 0.00221269
8.52 0.00386158
8.53 0.00519247
8.54 0.0061081
8.55 0.00651421
8.56 0.00632602
8.57 0.00547069
8.58 0.00386306
8.59 0.00141914
8.6 -0.00182134
8.61 -0.00586196
8.62 -0.0106887
8.63 -0.0162707
8.64 -0.0225611
8.65 -0.0295489
8.66 -0.0371129
8.67 -0.0451489
8.68 -0.0535654
8.69 -0.0622678
8.7 -0.0711604
8.71 -0.0801502
8.72 -0.0891388
8.73 -0.0980402
8.74 -0.106786
8.75 -0.115319
8.76 -0.123595
8.77 -0.131582
8.78 -0.139239
8.79 -0.146574
8.8 -0.153607
8.81 -0.160361
8.82 -0.166861
8.83 -0.173144
8.84 -0.179247
8.85 -0.1852
8.86 -0.19106
8.87 -0.196863
8.88 -0.202637
8.89 -0.208403
8.9 -0.214175
8.91 -0.219954
8.92 -0.225729
8.93 -0.231479
8.94 -0.237173
8.95 -0.24277
8.96 -0.248223
8.97 -0.253478
8.98 -0.258441
8.99 -0.263078
9 -0.26733
9.01 -0.271145
9.02 -0.274473
9.03 -0.277274
9.04 -0.279487
9.05 -0.281084
9.06 -0.282097
9.07 -0.282532
9.08 -0.28241
9.09 -0.281763
9.1 -0.280632
9.11 -0.279031
9.12 -0.277067
9.13 -0.27481
9.14 -0.27233
9.15 -0.269696
9.16 -0.266974
9.17 -0.264228
9.18 -0.261523
9.19 -0.258904
9.2 -0.256408
9.21 -0.254057
9.22 -0.251864
9.23 -0.249829
9.24 -0.247955
9.25 -0.246205
9.26 -0.244544
9.27 -0.242932
9.28 -0.241324
9.29 -0.239675
9.3 -0.237931
9.31 -0.236034
9.32 -0.233952
9.33 -0.231652
9.34 -0.229108
9.35 -0.226304
9.36 -0.223234
9.37 -0.219883
9.38 -0.216285
9.39 -0.212478
9.4 -0.208499
9.41 -0.204395
9.42 -0.200217
9.43 -0.19602
9.44 -0.191871
9.45 -0.187823
9.46 -0.183925
9.47 -0.18022
9.48 -0.17674
9.49 -0.173506
9.5 -0.170546
9.51 -0.167844
9.52 -0.165365
9.53 -0.163071
9.54 -0.16091
9.55 -0.158818
9.56 -0.156716
9.57 -0.154499
9.58 -0.152074
9.59 -0.149342
9.6 -0.146203
9.61 -0.142559
9.62 -0.138316
9.63 -0.13334
9.64 -0.127548
9.65 -0.120918
9.66 -0.1134
9.67 -0.104962
9.68 -0.0955865
9.69 -0.0852736
9.7 -0.0739348
9.71 -0.0617113
9.72 -0.0486526
9.73 -0.0348187
9.74 -0.0202796
9.75 -0.00511374
9.76 0.0106182
9.77 0.0268217
9.78 0.0433736
9.79 0.0601868
9.8 0.0771779
9.81 0.0942683
9.82 0.111386
9.83 0.128455
9.84 0.145419
9.85 0.162229
9.86 0.178847
9.87 0.195239
9.88 0.21138
9.89 0.227234
9.9 0.24277
9.91 0.257994
9.92 0.27289
9.93 0.287441
9.94 0.301628
9.95 0.315428
9.96 0.328775
9.97 0.341663
9.98 0.354065
9.99 0.365942
10 0.377253
10.01 0.387951
10.02 0.39797
10.03 0.407217
10.04 0.415709
10.05 0.423407
10.06 0.430279
10.07 0.436299
10.08 0.441451
10.09 0.445658
10.1 0.448967
10.11 0.45143
10.12 0.453076
10.13 0.45395
10.14 0.454103
10.15 0.45359
10.16 0.452444
10.17 0.450809
10.18 0.448771
10.19 0.446415
10.2 0.443827
10.21 0.441094
10.22 0.438294
10.23 0.435513
10.24 0.432816
10.25 0.430255
10.26 0.427872
10.27 0.425696
10.28 0.423746
10.29 0.422047
10.3 0.420564
10.31 0.419274
10.32 0.418146
10.33 0.417138
10.34 0.416202
10.35 0.415282
10.36 0.414312
10.37 0.413233
10.38 0.411985
10.39 0.410514
10.4 0.408764
10.41 0.406688
10.42 0.404196
10.43 0.401287
10.44 0.397932
10.45 0.394108
10.46 0.389795
10.47 0.38498
10.48 0.379626
10.49 0.373718
10.5 0.367286
10.51 0.360327
10.52 0.352839
10.53 0.34482
10.54 0.336265
10.55 0.327112
10.56 0.317401
10.57 0.307129
10.58 0.296288
10.59 0.284867
10.6 0.272854
10.61 0.260219
10.62 0.246929
10.63 0.233032
10.64 0.218531
10.65 0.203437
10.66 0.18777
10.67 0.171555
10.68 0.154786
10.69 0.137549
10.7 0.119913
10.71 0.101944
10.72 0.0837154
10.73 0.0653059
10.74 0.0468009
10.75 0.0282998
10.76 0.00989927
10.77 -0.00831302
10.78 -0.026253
10.79 -0.0438427
10.8 -0.0610122
10.81 -0.0776594
10.82 -0.0937525
10.83 -0.109279
10.84 -0.124221
10.85 -0.138579
10.86 -0.152363
10.87 -0.165594
10.88 -0.178275
10.89 -0.190515
10.9 -0.202377
10.91 -0.213933
10.92 -0.225258
10.93 -0.236428
10.94 -0.247517
10.95 -0.258607
10.96 -0.269763
10.97 -0.281035
10.98 -0.292462
10.99 -0.304068
11 -0.315862
11.01 -0.327853
11.02 -0.33999
11.03 -0.352228
11.04 -0.364505
11.05 -0.376746
11.06 -0.388864
11.07 -0.400743
11.08 -0.412261
11.09 -0.423324
11.1 -0.433823
11.11 -0.44365
11.12 -0.452705
11.13 -0.460895
11.14 -0.468028
11.15 -0.474127
11.16 -0.479152
11.17 -0.483067
11.18 -0.485857
11.19 -0.487523
11.2 -0.488029
11.21 -0.48739
11.22 -0.485732
11.23 -0.483114
11.24 -0.479607
11.25 -0.475285
11.26 -0.470228
11.27 -0.464458
11.28 -0.458115
11.29 -0.451283
11.3 -0.444028
11.31 -0.436407
11.32 -0.428466
11.33 -0.420232
11.34 -0.411715
11.35 -0.402949
11.36 -0.393929
11.37 -0.384642
11.38 -0.375066
11.39 -0.365171
11.4 -0.354887
11.41 -0.344195
11.42 -0.333065
11.43 -0.321464
11.44 -0.30936
11.45 -0.296731
11.46 -0.283547
11.47 -0.26977
11.48 -0.255459
11.49 -0.240639
11.5 -0.225345
11.51 -0.209627
11.52 -0.193547
11.53 -0.177159
11.54 -0.160569
11.55 -0.143881
11.56 -0.12719
11.57 -0.110597
11.58 -0.0942026
11.59 -0.078111
11.6 -0.0624643
11.61 -0.0473165
11.62 -0.0327459
11.63 -0.0188206
11.64 -0.00559707
11.65 0.00688075
11.66 0.0185296
11.67 0.0293438
11.68 0.0393625
11.69 0.0485979
11.7 0.0570735
11.71 0.0648232
11.72 0.0718883
11.73 0.0782538
11.74 0.0840531
11.75 0.0893453
11.76 0.0941905
11.77 0.0986476
11.78 0.102773
11.79 0.106608
11.8 0.110203
11.81 0.113614
11.82 0.116873
11.83 0.120002
11.84 0.123018
11.85 0.125928
11.86 0.128718
11.87 0.131389
11.88 0.133927
11.89 0.136309
11.9 0.13851
11.91 0.140499
11.92 0.142232
11.93 0.143661
11.94 0.14477
11.95 0.145524
11.96 0.145889
11.97 0.145833
11.98 0.145326
11.99 0.144289
12 0.142733
12.01 0.140642
12.02 0.137997
12.03 0.134777
12.04 0.130967
12.05 0.126529
12.06 0.121415
12.07 0.115664
12.08 0.109265
12.09 0.102206
12.1 0.0944775
12.11 0.0860722
12.12 0.0769248
12.13 0.0670686
12.14 0.056525
12.15 0.0452975
12.16 0.0333946
12.17 0.0208295
12.18 0.00760872
