# xPDFsuite Configuration #
[PDF]
wavelength = 0.1
dataformat = QA
inputfile = BiMsol6_insitu_700 C-00333.xy
backgroundfile = Quartz2mm-dist500-00000.xy
mode = xray
bgscale = 0.0042
composition = Bi2Fe4O9
outputtype = gr
qmaxinst = 24.998449118
qmin = 0.1
qmax = 21.4986662415
rmax = 80.0
rmin = 0.0
rstep = 0.01
rpoly = 0.9

[Misc]
inputdir = C:/Data/Seafile/CPH/Beamtime/Desy Oct 20/In situ data/Processed/BiMsol6/PDF
savedir = C:/Data/Seafile/CPH/Beamtime/Desy Oct 20/In situ data/PDF/BiMsol6
backgroundfilefull = C:/Data/Seafile/CPH/Beamtime/Desy Oct 20/In situ data/Processed/Standard_Empty_Cap/Quartz2mm-dist500-00000.xy

#### start data
#S 1
#L r($\AA$)  G($\AA^{-2}$)
0 0
0.01 0.00700453
0.02 0.0136197
0.03 0.0195121
0.04 0.0243823
0.05 0.0279784
0.06 0.0301075
0.07 0.0305581
0.08 0.0292662
0.09 0.0263832
0.1 0.0220325
0.11 0.0164072
0.12 0.00976196
0.13 0.00240137
0.14 -0.0053342
0.15 -0.0130084
0.16 -0.0202536
0.17 -0.0267244
0.18 -0.0321092
0.19 -0.0361459
0.2 -0.0385645
0.21 -0.039176
0.22 -0.0380765
0.23 -0.035328
0.24 -0.0310759
0.25 -0.0255446
0.26 -0.0190288
0.27 -0.0118602
0.28 -0.00453292
0.29 0.00251363
0.3 0.00885176
0.31 0.0140725
0.32 0.0178056
0.33 0.0196745
0.34 0.0193075
0.35 0.0167431
0.36 0.0119631
0.37 0.00505858
0.38 -0.00376768
0.39 -0.0142042
0.4 -0.0258946
0.41 -0.0381966
0.42 -0.0504773
0.43 -0.0620935
0.44 -0.0723762
0.45 -0.0806559
0.46 -0.0862232
0.47 -0.0881664
0.48 -0.0862643
0.49 -0.0801326
0.5 -0.0695127
0.51 -0.0542868
0.52 -0.034489
0.53 -0.0100195
0.54 0.0185712
0.55 0.0505452
0.56 0.0852189
0.57 0.121788
0.58 0.159348
0.59 0.196912
0.6 0.233229
0.61 0.267284
0.62 0.298073
0.63 0.324649
0.64 0.346156
0.65 0.361857
0.66 0.370735
0.67 0.37236
0.68 0.36689
0.69 0.354313
0.7 0.334806
0.71 0.308735
0.72 0.276639
0.73 0.238706
0.74 0.196476
0.75 0.150942
0.76 0.103157
0.77 0.0542196
0.78 0.00523615
0.79 -0.0426006
0.8 -0.0880851
0.81 -0.130383
0.82 -0.168698
0.83 -0.202376
0.84 -0.230916
0.85 -0.253988
0.86 -0.270854
0.87 -0.282068
0.88 -0.287934
0.89 -0.288828
0.9 -0.285261
0.91 -0.277852
0.92 -0.26722
0.93 -0.254157
0.94 -0.239699
0.95 -0.224645
0.96 -0.209761
0.97 -0.195756
0.98 -0.183259
0.99 -0.173033
1 -0.165389
1.01 -0.160538
1.02 -0.15862
1.03 -0.159646
1.04 -0.163511
1.05 -0.170063
1.06 -0.179079
1.07 -0.189923
1.08 -0.202135
1.09 -0.215224
1.1 -0.22869
1.11 -0.242043
1.12 -0.254742
1.13 -0.266362
1.14 -0.276599
1.15 -0.285205
1.16 -0.292017
1.17 -0.296962
1.18 -0.300024
1.19 -0.301179
1.2 -0.300804
1.21 -0.299152
1.22 -0.296526
1.23 -0.293256
1.24 -0.289689
1.25 -0.286197
1.26 -0.283144
1.27 -0.280806
1.28 -0.279408
1.29 -0.279117
1.3 -0.280031
1.31 -0.28218
1.32 -0.285626
1.33 -0.290095
1.34 -0.295385
1.35 -0.301243
1.36 -0.307377
1.37 -0.313466
1.38 -0.319135
1.39 -0.324007
1.4 -0.327809
1.41 -0.33028
1.42 -0.331209
1.43 -0.33045
1.44 -0.327926
1.45 -0.323445
1.46 -0.317295
1.47 -0.309657
1.48 -0.300772
1.49 -0.29094
1.5 -0.280511
1.51 -0.269881
1.52 -0.259521
1.53 -0.249847
1.54 -0.241248
1.55 -0.234077
1.56 -0.22864
1.57 -0.225178
1.58 -0.224085
1.59 -0.225257
1.6 -0.228632
1.61 -0.234095
1.62 -0.241444
1.63 -0.250399
1.64 -0.260636
1.65 -0.271717
1.66 -0.28308
1.67 -0.294238
1.68 -0.304699
1.69 -0.313983
1.7 -0.321642
1.71 -0.327059
1.72 -0.329995
1.73 -0.330266
1.74 -0.32772
1.75 -0.322296
1.76 -0.314032
1.77 -0.302995
1.78 -0.289287
1.79 -0.27348
1.8 -0.255968
1.81 -0.237199
1.82 -0.217662
1.83 -0.197865
1.84 -0.178377
1.85 -0.159745
1.86 -0.142407
1.87 -0.126761
1.88 -0.113137
1.89 -0.10179
1.9 -0.0929262
1.91 -0.0868445
1.92 -0.0832557
1.93 -0.0820362
1.94 -0.0829817
1.95 -0.0858165
1.96 -0.0902052
1.97 -0.0958172
1.98 -0.102157
1.99 -0.108745
2 -0.115164
2.01 -0.121022
2.02 -0.125967
2.03 -0.129694
2.04 -0.131789
2.05 -0.132255
2.06 -0.13103
2.07 -0.128134
2.08 -0.123667
2.09 -0.117803
2.1 -0.110738
2.11 -0.102822
2.12 -0.0944808
2.13 -0.0860984
2.14 -0.078072
2.15 -0.0707967
2.16 -0.0646497
2.17 -0.0601715
2.18 -0.0575313
2.19 -0.0569443
2.2 -0.0585698
2.21 -0.0624942
2.22 -0.0687281
2.23 -0.0773018
2.24 -0.088101
2.25 -0.100743
2.26 -0.114947
2.27 -0.130388
2.28 -0.146703
2.29 -0.163513
2.3 -0.180397
2.31 -0.196927
2.32 -0.212744
2.33 -0.227528
2.34 -0.241004
2.35 -0.252951
2.36 -0.263146
2.37 -0.271401
2.38 -0.277845
2.39 -0.282529
2.4 -0.285562
2.41 -0.287108
2.42 -0.287376
2.43 -0.286547
2.44 -0.284986
2.45 -0.283011
2.46 -0.28091
2.47 -0.278957
2.48 -0.277408
2.49 -0.276506
2.5 -0.276514
2.51 -0.2775
2.52 -0.279545
2.53 -0.282682
2.54 -0.286894
2.55 -0.29212
2.56 -0.298311
2.57 -0.305273
2.58 -0.31279
2.59 -0.320669
2.6 -0.328704
2.61 -0.336689
2.62 -0.344416
2.63 -0.351639
2.64 -0.358227
2.65 -0.36405
2.66 -0.369007
2.67 -0.373028
2.68 -0.376081
2.69 -0.378099
2.7 -0.379133
2.71 -0.379292
2.72 -0.378654
2.73 -0.37731
2.74 -0.375359
2.75 -0.3729
2.76 -0.369987
2.77 -0.366753
2.78 -0.363258
2.79 -0.359537
2.8 -0.355601
2.81 -0.351438
2.82 -0.346989
2.83 -0.342173
2.84 -0.336919
2.85 -0.331121
2.86 -0.324661
2.87 -0.317419
2.88 -0.309276
2.89 -0.300002
2.9 -0.289594
2.91 -0.277995
2.92 -0.265163
2.93 -0.251089
2.94 -0.235797
2.95 -0.219301
2.96 -0.201682
2.97 -0.18316
2.98 -0.163903
2.99 -0.144101
3 -0.123962
3.01 -0.103709
3.02 -0.0835988
3.03 -0.0638709
3.04 -0.0447301
3.05 -0.0263642
3.06 -0.0089343
3.07 0.007431
3.08 0.0226013
3.09 0.0364599
3.1 0.0491088
3.11 0.0605924
3.12 0.0709952
3.13 0.0804382
3.14 0.0890748
3.15 0.0970487
3.16 0.10462
3.17 0.11202
3.18 0.119462
3.19 0.127155
3.2 0.135291
3.21 0.144056
3.22 0.153666
3.23 0.164157
3.24 0.175591
3.25 0.187988
3.26 0.201328
3.27 0.215548
3.28 0.230598
3.29 0.246296
3.3 0.262438
3.31 0.278834
3.32 0.295277
3.33 0.311554
3.34 0.327447
3.35 0.34267
3.36 0.357086
3.37 0.370532
3.38 0.382876
3.39 0.394017
3.4 0.403888
3.41 0.41238
3.42 0.419516
3.43 0.42542
3.44 0.430174
3.45 0.433887
3.46 0.436694
3.47 0.438743
3.48 0.440145
3.49 0.441149
3.5 0.441916
3.51 0.442599
3.52 0.443335
3.53 0.444242
3.54 0.445433
3.55 0.446988
3.56 0.448924
3.57 0.45125
3.58 0.45395
3.59 0.456981
3.6 0.460285
3.61 0.463794
3.62 0.467389
3.63 0.470972
3.64 0.474442
3.65 0.477706
3.66 0.480677
3.67 0.483262
3.68 0.485382
3.69 0.487029
3.7 0.488186
3.71 0.488855
3.72 0.489059
3.73 0.488836
3.74 0.488209
3.75 0.487279
3.76 0.486127
3.77 0.484828
3.78 0.483455
3.79 0.482073
3.8 0.480741
3.81 0.479507
3.82 0.478382
3.83 0.477365
3.84 0.476429
3.85 0.475527
3.86 0.474591
3.87 0.473513
3.88 0.472174
3.89 0.470457
3.9 0.468227
3.91 0.465346
3.92 0.461675
3.93 0.457061
3.94 0.45128
3.95 0.44432
3.96 0.436094
3.97 0.426536
3.98 0.415607
3.99 0.40329
4 0.389504
4.01 0.374333
4.02 0.35791
4.03 0.340331
4.04 0.321709
4.05 0.302175
4.06 0.281868
4.07 0.260895
4.08 0.239493
4.09 0.217815
4.1 0.196009
4.11 0.174214
4.12 0.152554
4.13 0.131161
4.14 0.110139
4.15 0.0895426
4.16 0.0694242
4.17 0.0498176
4.18 0.0307408
4.19 0.0121972
4.2 -0.00576381
4.21 -0.0232201
4.22 -0.0401981
4.23 -0.0567241
4.24 -0.0728234
4.25 -0.0885175
4.26 -0.103803
4.27 -0.11868
4.28 -0.133169
4.29 -0.147256
4.3 -0.160914
4.31 -0.174108
4.32 -0.186795
4.33 -0.198862
4.34 -0.210295
4.35 -0.221048
4.36 -0.231064
4.37 -0.240294
4.38 -0.248694
4.39 -0.256197
4.4 -0.262744
4.41 -0.2684
4.42 -0.273177
4.43 -0.277101
4.44 -0.280214
4.45 -0.282574
4.46 -0.284197
4.47 -0.285221
4.48 -0.285757
4.49 -0.285903
4.5 -0.285761
4.51 -0.285432
4.52 -0.285011
4.53 -0.284601
4.54 -0.284284
4.55 -0.284126
4.56 -0.284178
4.57 -0.284474
4.58 -0.285034
4.59 -0.28588
4.6 -0.286985
4.61 -0.288308
4.62 -0.289809
4.63 -0.291433
4.64 -0.293124
4.65 -0.294818
4.66 -0.296437
4.67 -0.29792
4.68 -0.299214
4.69 -0.300269
4.7 -0.301048
4.71 -0.301524
4.72 -0.301662
4.73 -0.301471
4.74 -0.300982
4.75 -0.300225
4.76 -0.299242
4.77 -0.298082
4.78 -0.296804
4.79 -0.295476
4.8 -0.294176
4.81 -0.292973
4.82 -0.291932
4.83 -0.291114
4.84 -0.290571
4.85 -0.290369
4.86 -0.290546
4.87 -0.291103
4.88 -0.292047
4.89 -0.293374
4.9 -0.295069
4.91 -0.297108
4.92 -0.299483
4.93 -0.302116
4.94 -0.304954
4.95 -0.307945
4.96 -0.311034
4.97 -0.314165
4.98 -0.317282
4.99 -0.320327
5 -0.323254
5.01 -0.326024
5.02 -0.328602
5.03 -0.330956
5.04 -0.333063
5.05 -0.33487
5.06 -0.336381
5.07 -0.337583
5.08 -0.33846
5.09 -0.338994
5.1 -0.339166
5.11 -0.338937
5.12 -0.338255
5.13 -0.337118
5.14 -0.335483
5.15 -0.333306
5.16 -0.330534
5.17 -0.327112
5.18 -0.322911
5.19 -0.317906
5.2 -0.312054
5.21 -0.305298
5.22 -0.297581
5.23 -0.288855
5.24 -0.279051
5.25 -0.268061
5.26 -0.255966
5.27 -0.242761
5.28 -0.228454
5.29 -0.213067
5.3 -0.196637
5.31 -0.179141
5.32 -0.160687
5.33 -0.141389
5.34 -0.121332
5.35 -0.100608
5.36 -0.0793123
5.37 -0.0575411
5.38 -0.035375
5.39 -0.0129612
5.4 0.00960216
5.41 0.0322213
5.42 0.054807
5.43 0.0772759
5.44 0.0995322
5.45 0.121497
5.46 0.143115
5.47 0.164325
5.48 0.185068
5.49 0.205287
5.5 0.224922
5.51 0.243835
5.52 0.262032
5.53 0.279445
5.54 0.296001
5.55 0.311622
5.56 0.326224
5.57 0.339648
5.58 0.351777
5.59 0.36258
5.6 0.371956
5.61 0.379805
5.62 0.38603
5.63 0.39054
5.64 0.393054
5.65 0.393675
5.66 0.39237
5.67 0.38911
5.68 0.383883
5.69 0.376702
5.7 0.367523
5.71 0.356366
5.72 0.343461
5.73 0.328926
5.74 0.312896
5.75 0.29553
5.76 0.277
5.77 0.25742
5.78 0.237084
5.79 0.216213
5.8 0.195012
5.81 0.173677
5.82 0.152398
5.83 0.131368
5.84 0.110786
5.85 0.0907701
5.86 0.0714356
5.87 0.052877
5.88 0.0351653
5.89 0.0183494
5.9 0.0025359
5.91 -0.0123212
5.92 -0.0262656
5.93 -0.0393257
5.94 -0.0515402
5.95 -0.0629545
5.96 -0.0736013
5.97 -0.0834818
5.98 -0.0927078
5.99 -0.101312
6 -0.109315
6.01 -0.116726
6.02 -0.12354
6.03 -0.129688
6.04 -0.135148
6.05 -0.139897
6.06 -0.143871
6.07 -0.147002
6.08 -0.149214
6.09 -0.150417
6.1 -0.150427
6.11 -0.149283
6.12 -0.14693
6.13 -0.143326
6.14 -0.138448
6.15 -0.132291
6.16 -0.124795
6.17 -0.116026
6.18 -0.106123
6.19 -0.0951804
6.2 -0.083316
6.21 -0.0706662
6.22 -0.0573843
6.23 -0.0436028
6.24 -0.0295688
6.25 -0.0154628
6.26 -0.0014635
6.27 0.0122567
6.28 0.0255362
6.29 0.0381902
6.3 0.050067
6.31 0.0611072
6.32 0.0712376
6.33 0.0804122
6.34 0.0886123
6.35 0.0958469
6.36 0.10206
6.37 0.107409
6.38 0.111995
6.39 0.115921
6.4 0.11931
6.41 0.122291
6.42 0.124994
6.43 0.127572
6.44 0.130177
6.45 0.132933
6.46 0.135953
6.47 0.139335
6.48 0.143161
6.49 0.147546
6.5 0.152498
6.51 0.158026
6.52 0.164127
6.53 0.170785
6.54 0.177966
6.55 0.185637
6.56 0.193755
6.57 0.202215
6.58 0.210947
6.59 0.219881
6.6 0.22895
6.61 0.238093
6.62 0.247251
6.63 0.256373
6.64 0.265423
6.65 0.274378
6.66 0.283224
6.67 0.291955
6.68 0.300573
6.69 0.30908
6.7 0.317499
6.71 0.325844
6.72 0.334126
6.73 0.342353
6.74 0.350524
6.75 0.358623
6.76 0.366627
6.77 0.374501
6.78 0.382194
6.79 0.389641
6.8 0.396763
6.81 0.403464
6.82 0.409575
6.83 0.415028
6.84 0.419702
6.85 0.423473
6.86 0.426217
6.87 0.427813
6.88 0.428062
6.89 0.426853
6.9 0.424169
6.91 0.419939
6.92 0.414108
6.93 0.406643
6.94 0.397532
6.95 0.3866
6.96 0.374067
6.97 0.359992
6.98 0.344452
6.99 0.327538
7 0.309355
7.01 0.289973
7.02 0.26952
7.03 0.248207
7.04 0.226169
7.05 0.203542
7.06 0.180456
7.07 0.157038
7.08 0.133391
7.09 0.109653
7.1 0.0859186
7.11 0.0622683
7.12 0.0387713
7.13 0.0154849
7.14 -0.00753262
7.15 -0.0302287
7.16 -0.0525966
7.17 -0.074615
7.18 -0.096266
7.19 -0.117534
7.2 -0.138403
7.21 -0.158817
7.22 -0.178778
7.23 -0.198272
7.24 -0.217268
7.25 -0.235727
7.26 -0.253608
7.27 -0.270842
7.28 -0.287328
7.29 -0.303065
7.3 -0.317994
7.31 -0.332057
7.32 -0.345198
7.33 -0.357361
7.34 -0.368416
7.35 -0.378363
7.36 -0.387212
7.37 -0.394946
7.38 -0.40156
7.39 -0.407062
7.4 -0.411455
7.41 -0.414689
7.42 -0.416924
7.43 -0.418218
7.44 -0.418643
7.45 -0.418277
7.46 -0.417204
7.47 -0.415475
7.48 -0.41321
7.49 -0.410525
7.5 -0.407507
7.51 -0.404237
7.52 -0.400787
7.53 -0.397222
7.54 -0.393593
7.55 -0.38995
7.56 -0.386319
7.57 -0.382713
7.58 -0.379133
7.59 -0.375566
7.6 -0.371987
7.61 -0.368358
7.62 -0.364636
7.63 -0.360773
7.64 -0.356714
7.65 -0.352407
7.66 -0.347794
7.67 -0.34278
7.68 -0.337348
7.69 -0.33146
7.7 -0.325085
7.71 -0.318199
7.72 -0.310788
7.73 -0.302828
7.74 -0.29432
7.75 -0.285325
7.76 -0.275881
7.77 -0.266033
7.78 -0.25584
7.79 -0.245366
7.8 -0.234673
7.81 -0.223866
7.82 -0.213032
7.83 -0.202258
7.84 -0.191631
7.85 -0.181236
7.86 -0.17117
7.87 -0.161536
7.88 -0.15238
7.89 -0.143761
7.9 -0.135735
7.91 -0.128344
7.92 -0.121624
7.93 -0.11566
7.94 -0.110423
7.95 -0.105895
7.96 -0.102066
7.97 -0.0989174
7.98 -0.0964242
7.99 -0.0945675
8 -0.0933404
8.01 -0.0926418
8.02 -0.0924237
8.03 -0.0926363
8.04 -0.09323
8.05 -0.0941556
8.06 -0.0953856
8.07 -0.0968599
8.08 -0.0985302
8.09 -0.100364
8.1 -0.102335
8.11 -0.104422
8.12 -0.106613
8.13 -0.108906
8.14 -0.111291
8.15 -0.113772
8.16 -0.116355
8.17 -0.119051
8.18 -0.121873
8.19 -0.124842
8.2 -0.127969
8.21 -0.131254
8.22 -0.134701
8.23 -0.138306
8.24 -0.142059
8.25 -0.145943
8.26 -0.149937
8.27 -0.153987
8.28 -0.158043
8.29 -0.162045
8.3 -0.165922
8.31 -0.169597
8.32 -0.172959
8.33 -0.175897
8.34 -0.178331
8.35 -0.180157
8.36 -0.181273
8.37 -0.181575
8.38 -0.180968
8.39 -0.179239
8.4 -0.176402
8.41 -0.172395
8.42 -0.167163
8.43 -0.160662
8.44 -0.152866
8.45 -0.143709
8.46 -0.133166
8.47 -0.121359
8.48 -0.108336
8.49 -0.0941552
8.5 -0.0788929
8.51 -0.0626359
8.52 -0.0454041
8.53 -0.0273871
8.54 -0.00871351
8.55 0.0105027
8.56 0.0301478
8.57 0.0501111
8.58 0.0702909
8.59 0.0905823
8.6 0.110883
8.61 0.131119
8.62 0.151225
8.63 0.171152
8.64 0.19086
8.65 0.2103
8.66 0.229469
8.67 0.24837
8.68 0.267007
8.69 0.285387
8.7 0.303522
8.71 0.321416
8.72 0.339065
8.73 0.356494
8.74 0.373698
8.75 0.390665
8.76 0.407371
8.77 0.423779
8.78 0.439812
8.79 0.455407
8.8 0.470502
8.81 0.485006
8.82 0.49882
8.83 0.511831
8.84 0.523913
8.85 0.53483
8.86 0.544558
8.87 0.552975
8.88 0.559963
8.89 0.565412
8.9 0.569221
8.91 0.571186
8.92 0.571244
8.93 0.569435
8.94 0.565723
8.95 0.560092
8.96 0.552544
8.97 0.543098
8.98 0.531588
8.99 0.518293
9 0.50329
9.01 0.48667
9.02 0.468535
9.03 0.448994
9.04 0.428106
9.05 0.406
9.06 0.382885
9.07 0.358885
9.08 0.334127
9.09 0.308731
9.1 0.282817
9.11 0.256466
9.12 0.229833
9.13 0.203025
9.14 0.176136
9.15 0.149258
9.16 0.122477
9.17 0.0958884
9.18 0.0695943
9.19 0.043661
9.2 0.0181696
9.21 -0.0067976
9.22 -0.0311563
9.23 -0.0548201
9.24 -0.0776159
9.25 -0.0994996
9.26 -0.120394
9.27 -0.140204
9.28 -0.158833
9.29 -0.176188
9.3 -0.19213
9.31 -0.206482
9.32 -0.219283
9.33 -0.230461
9.34 -0.239955
9.35 -0.247714
9.36 -0.2537
9.37 -0.257739
9.38 -0.259915
9.39 -0.260299
9.4 -0.258918
9.41 -0.255811
9.42 -0.251035
9.43 -0.244629
9.44 -0.236569
9.45 -0.227103
9.46 -0.216333
9.47 -0.204367
9.48 -0.191317
9.49 -0.177296
9.5 -0.162364
9.51 -0.146673
9.52 -0.130366
9.53 -0.113546
9.54 -0.0963068
9.55 -0.0787373
9.56 -0.0609169
9.57 -0.0429107
9.58 -0.0248092
9.59 -0.00667205
9.6 0.0114459
9.61 0.0294933
9.62 0.0474214
9.63 0.0651685
9.64 0.0826799
9.65 0.0999143
9.66 0.116818
9.67 0.133332
9.68 0.149396
9.69 0.16494
9.7 0.179818
9.71 0.194011
9.72 0.20744
9.73 0.220024
9.74 0.23168
9.75 0.242325
9.76 0.251823
9.77 0.260074
9.78 0.267086
9.79 0.272807
9.8 0.277194
9.81 0.280221
9.82 0.281872
9.83 0.282009
9.84 0.280781
9.85 0.278246
9.86 0.274458
9.87 0.269488
9.88 0.263421
9.89 0.256319
9.9 0.248271
9.91 0.239472
9.92 0.230042
9.93 0.220106
9.94 0.209784
9.95 0.199198
9.96 0.188454
9.97 0.17768
9.98 0.166969
9.99 0.156398
10 0.146031
10.01 0.135918
10.02 0.126102
10.03 0.116619
10.04 0.107445
10.05 0.0985686
10.06 0.089965
10.07 0.0816016
10.08 0.0734375
10.09 0.0654354
10.1 0.0575324
10.11 0.0496742
10.12 0.041814
10.13 0.0339095
10.14 0.0259246
10.15 0.0178288
10.16 0.00959164
10.17 0.00121829
10.18 -0.00728678
10.19 -0.0159086
10.2 -0.0246221
10.21 -0.0333929
10.22 -0.0421758
10.23 -0.0509132
10.24 -0.059549
10.25 -0.0680248
10.26 -0.0762815
10.27 -0.0842607
10.28 -0.0919043
10.29 -0.0991167
10.3 -0.105893
10.31 -0.1122
10.32 -0.118011
10.33 -0.123312
10.34 -0.128096
10.35 -0.132339
10.36 -0.136061
10.37 -0.139319
10.38 -0.142148
10.39 -0.144592
10.4 -0.1467
10.41 -0.148526
10.42 -0.150109
10.43 -0.151539
10.44 -0.152875
10.45 -0.154176
10.46 -0.155496
10.47 -0.156886
10.48 -0.158399
10.49 -0.160081
10.5 -0.161955
10.51 -0.164044
10.52 -0.166364
10.53 -0.168923
10.54 -0.171723
10.55 -0.174781
10.56 -0.178062
10.57 -0.181544
10.58 -0.185203
10.59 -0.18901
10.6 -0.192936
10.61 -0.196948
10.62 -0.201008
10.63 -0.205074
10.64 -0.20911
10.65 -0.213081
10.66 -0.216953
10.67 -0.220693
10.68 -0.224256
10.69 -0.22762
10.7 -0.230768
10.71 -0.23368
10.72 -0.23634
10.73 -0.238735
10.74 -0.240851
10.75 -0.242666
10.76 -0.244208
10.77 -0.245482
10.78 -0.246499
10.79 -0.247276
10.8 -0.247831
10.81 -0.248176
10.82 -0.248351
10.83 -0.248396
10.84 -0.248345
10.85 -0.248237
10.86 -0.248111
10.87 -0.248007
10.88 -0.247976
10.89 -0.248053
10.9 -0.248274
10.91 -0.24867
10.92 -0.24927
10.93 -0.250095
10.94 -0.251177
10.95 -0.25252
10.96 -0.254108
10.97 -0.255929
10.98 -0.25796
10.99 -0.260172
11 -0.262523
11.01 -0.264967
11.02 -0.267429
11.03 -0.269843
11.04 -0.272134
11.05 -0.274226
11.06 -0.276038
11.07 -0.277466
11.08 -0.278415
11.09 -0.278833
11.1 -0.278649
11.11 -0.277802
11.12 -0.276237
11.13 -0.273913
11.14 -0.27071
11.15 -0.266693
11.16 -0.261868
11.17 -0.256249
11.18 -0.249866
11.19 -0.242761
11.2 -0.234961
11.21 -0.22653
11.22 -0.217593
11.23 -0.208237
11.24 -0.198554
11.25 -0.18864
11.26 -0.178591
11.27 -0.168506
11.28 -0.158489
11.29 -0.148624
11.3 -0.138984
11.31 -0.129632
11.32 -0.120621
11.33 -0.112003
11.34 -0.103824
11.35 -0.0960602
11.36 -0.0887038
11.37 -0.0817354
11.38 -0.0751226
11.39 -0.0688223
11.4 -0.062799
11.41 -0.0569681
11.42 -0.0512547
11.43 -0.0455884
11.44 -0.0398975
11.45 -0.0341116
11.46 -0.0281576
11.47 -0.0219503
11.48 -0.015452
11.49 -0.00861678
11.5 -0.0014081
11.51 0.00620098
11.52 0.0142273
11.53 0.0227103
11.54 0.0316292
11.55 0.0409528
11.56 0.050659
11.57 0.0607188
11.58 0.0710979
11.59 0.081761
11.6 0.0926837
11.61 0.103795
11.62 0.115053
11.63 0.126418
11.64 0.137853
11.65 0.149322
11.66 0.160795
11.67 0.172243
11.68 0.183646
11.69 0.194986
11.7 0.206253
11.71 0.217435
11.72 0.228524
11.73 0.239502
11.74 0.250372
11.75 0.261125
11.76 0.27175
11.77 0.282231
11.78 0.292549
11.79 0.302666
11.8 0.312545
11.81 0.32216
11.82 0.331465
11.83 0.340411
11.84 0.348943
11.85 0.357001
11.86 0.364456
11.87 0.371289
11.88 0.377439
11.89 0.38284
11.9 0.387429
11.91 0.391147
11.92 0.393895
11.93 0.395593
11.94 0.39627
11.95 0.395899
11.96 0.394459
11.97 0.391943
11.98 0.388352
11.99 0.383597
12 0.377787
12.01 0.370977
12.02 0.363211
12.03 0.354542
12.04 0.345025
12.05 0.334704
12.06 0.323619
12.07 0.311907
12.08 0.299643
12.09 0.286902
12.1 0.273758
12.11 0.260283
12.12 0.246533
12.13 0.232598
12.14 0.21855
12.15 0.204451
12.16 0.19036
12.17 0.17633
12.18 0.162418
12.19 0.148691
12.2 0.135185
12.21 0.121944
12.22 0.109014
12.23 0.0964358
