# xPDFsuite Configuration #
[PDF]
wavelength = 0.1
dataformat = QA
inputfile = BiMsol6_insitu_700 C-00423.xy
backgroundfile = Quartz2mm-dist500-00000.xy
mode = xray
bgscale = 0.0042
composition = Bi2Fe4O9
outputtype = gr
qmaxinst = 24.998449118
qmin = 0.1
qmax = 21.4986662415
rmax = 80.0
rmin = 0.0
rstep = 0.01
rpoly = 0.9

[Misc]
inputdir = C:/Data/Seafile/CPH/Beamtime/Desy Oct 20/In situ data/Processed/BiMsol6/PDF
savedir = C:/Data/Seafile/CPH/Beamtime/Desy Oct 20/In situ data/PDF/BiMsol6
backgroundfilefull = C:/Data/Seafile/CPH/Beamtime/Desy Oct 20/In situ data/Processed/Standard_Empty_Cap/Quartz2mm-dist500-00000.xy

#### start data
#S 1
#L r($\AA$)  G($\AA^{-2}$)
0 0
0.01 0.00691454
0.02 0.0134412
0.03 0.0192481
0.04 0.0240371
0.05 0.0275579
0.06 0.0296194
0.07 0.0300125
0.08 0.0286753
0.09 0.0257604
0.1 0.0213931
0.11 0.015768
0.12 0.00914092
0.13 0.00181747
0.14 -0.00585967
0.15 -0.0134563
0.16 -0.0206064
0.17 -0.0269661
0.18 -0.032227
0.19 -0.0361303
0.2 -0.0384103
0.21 -0.0388841
0.22 -0.0376535
0.23 -0.0347866
0.24 -0.0304349
0.25 -0.0248289
0.26 -0.0182686
0.27 -0.0110946
0.28 -0.00380244
0.29 0.00316673
0.3 0.0093844
0.31 0.0144424
0.32 0.0179729
0.33 0.019603
0.34 0.0189669
0.35 0.0161145
0.36 0.0110376
0.37 0.00383899
0.38 -0.00526637
0.39 -0.0159539
0.4 -0.0278494
0.41 -0.0402982
0.42 -0.0526571
0.43 -0.0642724
0.44 -0.0744667
0.45 -0.0825645
0.46 -0.0878509
0.47 -0.089407
0.48 -0.0870247
0.49 -0.0803273
0.5 -0.0690667
0.51 -0.0531392
0.52 -0.0325958
0.53 -0.00735625
0.54 0.0220033
0.55 0.0547202
0.56 0.0900868
0.57 0.127274
0.58 0.165355
0.59 0.203318
0.6 0.239877
0.61 0.274017
0.62 0.30472
0.63 0.331031
0.64 0.352093
0.65 0.367172
0.66 0.375248
0.67 0.375907
0.68 0.369338
0.69 0.35555
0.7 0.33475
0.71 0.307333
0.72 0.273873
0.73 0.2346
0.74 0.191091
0.75 0.144373
0.76 0.0955344
0.77 0.0457037
0.78 -0.00398384
0.79 -0.0523008
0.8 -0.0980178
0.81 -0.140304
0.82 -0.17836
0.83 -0.211531
0.84 -0.239327
0.85 -0.261433
0.86 -0.277114
0.87 -0.286975
0.88 -0.291355
0.89 -0.290669
0.9 -0.285469
0.91 -0.276419
0.92 -0.264184
0.93 -0.249613
0.94 -0.23378
0.95 -0.217526
0.96 -0.201654
0.97 -0.186904
0.98 -0.173936
0.99 -0.163559
1 -0.156081
1.01 -0.15171
1.02 -0.150583
1.03 -0.152703
1.04 -0.157947
1.05 -0.166146
1.06 -0.177053
1.07 -0.189974
1.08 -0.204405
1.09 -0.219809
1.1 -0.235636
1.11 -0.251346
1.12 -0.266337
1.13 -0.28013
1.14 -0.292373
1.15 -0.302775
1.16 -0.311134
1.17 -0.317339
1.18 -0.32134
1.19 -0.323062
1.2 -0.322901
1.21 -0.321107
1.22 -0.317983
1.23 -0.313873
1.24 -0.309144
1.25 -0.304174
1.26 -0.299376
1.27 -0.295078
1.28 -0.291555
1.29 -0.289021
1.3 -0.287628
1.31 -0.287461
1.32 -0.288648
1.33 -0.290967
1.34 -0.294267
1.35 -0.298341
1.36 -0.302938
1.37 -0.307772
1.38 -0.312515
1.39 -0.316813
1.4 -0.320383
1.41 -0.322965
1.42 -0.32434
1.43 -0.324346
1.44 -0.322879
1.45 -0.319743
1.46 -0.315152
1.47 -0.309239
1.48 -0.302195
1.49 -0.294267
1.5 -0.28575
1.51 -0.27698
1.52 -0.268365
1.53 -0.260276
1.54 -0.253056
1.55 -0.247022
1.56 -0.242445
1.57 -0.239543
1.58 -0.238663
1.59 -0.23972
1.6 -0.242665
1.61 -0.247395
1.62 -0.253731
1.63 -0.261422
1.64 -0.270177
1.65 -0.279598
1.66 -0.28919
1.67 -0.298517
1.68 -0.307138
1.69 -0.314627
1.7 -0.320585
1.71 -0.32446
1.72 -0.32605
1.73 -0.325203
1.74 -0.321793
1.75 -0.315782
1.76 -0.307218
1.77 -0.296179
1.78 -0.28278
1.79 -0.267549
1.8 -0.250859
1.81 -0.233129
1.82 -0.214811
1.83 -0.196374
1.84 -0.178351
1.85 -0.161233
1.86 -0.145409
1.87 -0.131234
1.88 -0.118997
1.89 -0.108915
1.9 -0.101159
1.91 -0.0959819
1.92 -0.0930905
1.93 -0.0923476
1.94 -0.0935418
1.95 -0.0963963
1.96 -0.100581
1.97 -0.105761
1.98 -0.111464
1.99 -0.117239
2 -0.122692
2.01 -0.127455
2.02 -0.1312
2.03 -0.133646
2.04 -0.134399
2.05 -0.133491
2.06 -0.130878
2.07 -0.126594
2.08 -0.120751
2.09 -0.113531
2.1 -0.105136
2.11 -0.0959188
2.12 -0.0862995
2.13 -0.0766592
2.14 -0.0673895
2.15 -0.0588791
2.16 -0.0514991
2.17 -0.0457828
2.18 -0.0418951
2.19 -0.0400486
2.2 -0.0404022
2.21 -0.0430444
2.22 -0.0479902
2.23 -0.0552774
2.24 -0.0648032
2.25 -0.0761961
2.26 -0.0891892
2.27 -0.10347
2.28 -0.118692
2.29 -0.134487
2.3 -0.15046
2.31 -0.166185
2.32 -0.18131
2.33 -0.19552
2.34 -0.208541
2.35 -0.220152
2.36 -0.230128
2.37 -0.238278
2.38 -0.244709
2.39 -0.249459
2.4 -0.252622
2.41 -0.254347
2.42 -0.254825
2.43 -0.254223
2.44 -0.25289
2.45 -0.251133
2.46 -0.24923
2.47 -0.247453
2.48 -0.246056
2.49 -0.245285
2.5 -0.24541
2.51 -0.246513
2.52 -0.248689
2.53 -0.251988
2.54 -0.256411
2.55 -0.261915
2.56 -0.268479
2.57 -0.275922
2.58 -0.28404
2.59 -0.292649
2.6 -0.301548
2.61 -0.31053
2.62 -0.319385
2.63 -0.327864
2.64 -0.335806
2.65 -0.343056
2.66 -0.349487
2.67 -0.355001
2.68 -0.35953
2.69 -0.362972
2.7 -0.36534
2.71 -0.366717
2.72 -0.367158
2.73 -0.366735
2.74 -0.365536
2.75 -0.363655
2.76 -0.361137
2.77 -0.358153
2.78 -0.354789
2.79 -0.35112
2.8 -0.347204
2.81 -0.343079
2.82 -0.338756
2.83 -0.334229
2.84 -0.329485
2.85 -0.324481
2.86 -0.319162
2.87 -0.313461
2.88 -0.307303
2.89 -0.300546
2.9 -0.293161
2.91 -0.285087
2.92 -0.276267
2.93 -0.26666
2.94 -0.256242
2.95 -0.244971
2.96 -0.232842
2.97 -0.219953
2.98 -0.20636
2.99 -0.192138
3 -0.177372
3.01 -0.162159
3.02 -0.146583
3.03 -0.130786
3.04 -0.114881
3.05 -0.0989647
3.06 -0.0831258
3.07 -0.0674386
3.08 -0.0519703
3.09 -0.036779
3.1 -0.0218635
3.11 -0.00722334
3.12 0.00715965
3.13 0.0213192
3.14 0.0353024
3.15 0.0491615
3.16 0.062975
3.17 0.0768122
3.18 0.090736
3.19 0.104803
3.2 0.119057
3.21 0.133537
3.22 0.148272
3.23 0.163233
3.24 0.178387
3.25 0.193685
3.26 0.209053
3.27 0.224403
3.28 0.239609
3.29 0.254535
3.3 0.269056
3.31 0.283033
3.32 0.296331
3.33 0.308814
3.34 0.32035
3.35 0.33071
3.36 0.339908
3.37 0.347875
3.38 0.354565
3.39 0.359954
3.4 0.364048
3.41 0.3668
3.42 0.368287
3.43 0.368662
3.44 0.368029
3.45 0.366508
3.46 0.364237
3.47 0.361361
3.48 0.357997
3.49 0.354367
3.5 0.350623
3.51 0.346913
3.52 0.343373
3.53 0.340129
3.54 0.337321
3.55 0.335063
3.56 0.333406
3.57 0.332408
3.58 0.332113
3.59 0.332552
3.6 0.333737
3.61 0.33575
3.62 0.338511
3.63 0.34199
3.64 0.346163
3.65 0.350999
3.66 0.356466
3.67 0.362552
3.68 0.369234
3.69 0.376433
3.7 0.384111
3.71 0.392235
3.72 0.400766
3.73 0.409667
3.74 0.418926
3.75 0.42847
3.76 0.438245
3.77 0.448196
3.78 0.458265
3.79 0.468385
3.8 0.478481
3.81 0.488454
3.82 0.49822
3.83 0.507685
3.84 0.51675
3.85 0.525314
3.86 0.533275
3.87 0.540463
3.88 0.5468
3.89 0.552217
3.9 0.556626
3.91 0.559949
3.92 0.562119
3.93 0.563056
3.94 0.56261
3.95 0.560876
3.96 0.557839
3.97 0.553498
3.98 0.547863
3.99 0.540955
4 0.532722
4.01 0.523238
4.02 0.512609
4.03 0.500883
4.04 0.488113
4.05 0.474351
4.06 0.459642
4.07 0.44395
4.08 0.42742
4.09 0.410094
4.1 0.392009
4.11 0.3732
4.12 0.353698
4.13 0.333496
4.14 0.312631
4.15 0.291172
4.16 0.269156
4.17 0.246624
4.18 0.223623
4.19 0.20021
4.2 0.176416
4.21 0.152363
4.22 0.128137
4.23 0.103835
4.24 0.079557
4.25 0.0554136
4.26 0.0315366
4.27 0.00806652
4.28 -0.0148994
4.29 -0.0372496
4.3 -0.0588796
4.31 -0.0796946
4.32 -0.0996124
4.33 -0.118462
4.34 -0.136277
4.35 -0.153044
4.36 -0.168761
4.37 -0.18344
4.38 -0.197118
4.39 -0.209816
4.4 -0.221582
4.41 -0.232579
4.42 -0.242908
4.43 -0.252677
4.44 -0.261999
4.45 -0.270985
4.46 -0.279732
4.47 -0.288365
4.48 -0.296972
4.49 -0.305624
4.5 -0.314371
4.51 -0.323245
4.52 -0.33226
4.53 -0.341408
4.54 -0.35064
4.55 -0.359902
4.56 -0.36912
4.57 -0.378209
4.58 -0.387072
4.59 -0.395572
4.6 -0.403604
4.61 -0.411078
4.62 -0.417899
4.63 -0.423983
4.64 -0.429258
4.65 -0.43366
4.66 -0.437077
4.67 -0.439592
4.68 -0.441222
4.69 -0.442007
4.7 -0.442007
4.71 -0.441302
4.72 -0.439957
4.73 -0.438112
4.74 -0.435922
4.75 -0.433515
4.76 -0.431024
4.77 -0.428577
4.78 -0.426298
4.79 -0.424341
4.8 -0.422781
4.81 -0.421694
4.82 -0.42114
4.83 -0.421159
4.84 -0.421769
4.85 -0.423001
4.86 -0.424831
4.87 -0.427179
4.88 -0.42999
4.89 -0.433192
4.9 -0.436706
4.91 -0.440447
4.92 -0.444332
4.93 -0.448251
4.94 -0.452117
4.95 -0.455855
4.96 -0.459393
4.97 -0.462671
4.98 -0.465624
4.99 -0.4682
5 -0.470394
5.01 -0.472189
5.02 -0.473576
5.03 -0.474549
5.04 -0.475109
5.05 -0.475215
5.06 -0.474898
5.07 -0.47416
5.08 -0.472988
5.09 -0.471363
5.1 -0.469254
5.11 -0.4666
5.12 -0.463315
5.13 -0.45938
5.14 -0.454722
5.15 -0.449259
5.16 -0.442906
5.17 -0.435573
5.18 -0.427068
5.19 -0.417356
5.2 -0.406388
5.21 -0.394093
5.22 -0.380411
5.23 -0.365295
5.24 -0.348679
5.25 -0.330451
5.26 -0.310758
5.27 -0.28963
5.28 -0.267116
5.29 -0.243281
5.3 -0.218206
5.31 -0.191909
5.32 -0.164556
5.33 -0.136311
5.34 -0.107298
5.35 -0.0776436
5.36 -0.0474753
5.37 -0.016914
5.38 0.0139301
5.39 0.0449079
5.4 0.0759157
5.41 0.106858
5.42 0.13765
5.43 0.168211
5.44 0.198447
5.45 0.228287
5.46 0.257687
5.47 0.286587
5.48 0.314926
5.49 0.342641
5.5 0.369659
5.51 0.395808
5.52 0.42108
5.53 0.445378
5.54 0.468592
5.55 0.490603
5.56 0.511284
5.57 0.530408
5.58 0.5478
5.59 0.563407
5.6 0.577083
5.61 0.58869
5.62 0.598094
5.63 0.605176
5.64 0.609561
5.65 0.611401
5.66 0.610661
5.67 0.607314
5.68 0.601358
5.69 0.59282
5.7 0.581652
5.71 0.567887
5.72 0.55183
5.73 0.53363
5.74 0.513457
5.75 0.4915
5.76 0.467963
5.77 0.442953
5.78 0.41682
5.79 0.389815
5.8 0.362156
5.81 0.334054
5.82 0.305706
5.83 0.277299
5.84 0.249023
5.85 0.221021
5.86 0.193412
5.87 0.166292
5.88 0.139741
5.89 0.113817
5.9 0.0886233
5.91 0.0641534
5.92 0.0404019
5.93 0.0173779
5.94 -0.0049127
5.95 -0.0264634
5.96 -0.0472477
5.97 -0.0671904
5.98 -0.0863357
5.99 -0.104646
6 -0.12207
6.01 -0.138549
6.02 -0.154009
6.03 -0.168279
6.04 -0.181291
6.05 -0.192997
6.06 -0.203298
6.07 -0.2121
6.08 -0.219313
6.09 -0.224837
6.1 -0.228436
6.11 -0.230243
6.12 -0.230233
6.13 -0.228405
6.14 -0.22478
6.15 -0.219408
6.16 -0.21226
6.17 -0.203471
6.18 -0.193256
6.19 -0.181763
6.2 -0.169157
6.21 -0.155615
6.22 -0.141327
6.23 -0.126444
6.24 -0.111244
6.25 -0.0959137
6.26 -0.0806347
6.27 -0.0655733
6.28 -0.0508795
6.29 -0.0367157
6.3 -0.0232098
6.31 -0.0104059
6.32 0.00164357
6.33 0.012911
6.34 0.0233928
6.35 0.0331081
6.36 0.0420264
6.37 0.0502835
6.38 0.0579644
6.39 0.0651569
6.4 0.0719566
6.41 0.0784629
6.42 0.0847725
6.43 0.0909937
6.44 0.0972308
6.45 0.103567
6.46 0.110074
6.47 0.116814
6.48 0.123837
6.49 0.131213
6.5 0.138944
6.51 0.147035
6.52 0.155487
6.53 0.164291
6.54 0.173434
6.55 0.182904
6.56 0.192691
6.57 0.202743
6.58 0.213035
6.59 0.223541
6.6 0.23424
6.61 0.245111
6.62 0.256151
6.63 0.267335
6.64 0.278646
6.65 0.290074
6.66 0.301609
6.67 0.313239
6.68 0.324952
6.69 0.336731
6.7 0.348543
6.71 0.360359
6.72 0.372136
6.73 0.383829
6.74 0.395379
6.75 0.4067
6.76 0.41771
6.77 0.428335
6.78 0.438482
6.79 0.448053
6.8 0.456946
6.81 0.465049
6.82 0.472155
6.83 0.478251
6.84 0.483238
6.85 0.487024
6.86 0.489526
6.87 0.49067
6.88 0.490303
6.89 0.488376
6.9 0.484933
6.91 0.479956
6.92 0.473435
6.93 0.465377
6.94 0.455799
6.95 0.444566
6.96 0.431892
6.97 0.417832
6.98 0.402446
6.99 0.385803
7 0.367975
7.01 0.348985
7.02 0.328909
7.03 0.3079
7.04 0.286041
7.05 0.263412
7.06 0.240095
7.07 0.216169
7.08 0.191668
7.09 0.166724
7.1 0.141421
7.11 0.115836
7.12 0.0900425
7.13 0.0641164
7.14 0.0381325
7.15 0.012176
7.16 -0.0136758
7.17 -0.0393496
7.18 -0.0647726
7.19 -0.0898734
7.2 -0.114582
7.21 -0.138782
7.22 -0.162431
7.23 -0.185482
7.24 -0.207877
7.25 -0.229565
7.26 -0.2505
7.27 -0.270619
7.28 -0.289835
7.29 -0.308193
7.3 -0.325676
7.31 -0.342272
7.32 -0.357976
7.33 -0.372788
7.34 -0.386644
7.35 -0.399595
7.36 -0.411689
7.37 -0.422944
7.38 -0.43338
7.39 -0.443018
7.4 -0.451868
7.41 -0.459891
7.42 -0.467185
7.43 -0.47377
7.44 -0.479663
7.45 -0.484881
7.46 -0.48944
7.47 -0.49331
7.48 -0.496521
7.49 -0.499118
7.5 -0.501114
7.51 -0.502524
7.52 -0.503364
7.53 -0.503647
7.54 -0.503339
7.55 -0.502524
7.56 -0.501225
7.57 -0.499466
7.58 -0.497275
7.59 -0.494678
7.6 -0.491682
7.61 -0.488316
7.62 -0.484626
7.63 -0.480633
7.64 -0.476354
7.65 -0.471801
7.66 -0.466982
7.67 -0.461869
7.68 -0.456485
7.69 -0.45082
7.7 -0.444858
7.71 -0.438579
7.72 -0.431958
7.73 -0.424951
7.74 -0.41752
7.75 -0.409665
7.76 -0.401366
7.77 -0.392606
7.78 -0.383378
7.79 -0.373682
7.8 -0.363486
7.81 -0.352857
7.82 -0.341842
7.83 -0.330494
7.84 -0.318881
7.85 -0.30708
7.86 -0.295184
7.87 -0.28331
7.88 -0.271575
7.89 -0.260097
7.9 -0.248995
7.91 -0.238386
7.92 -0.228385
7.93 -0.219174
7.94 -0.210814
7.95 -0.203366
7.96 -0.196894
7.97 -0.191446
7.98 -0.187047
7.99 -0.183732
8 -0.181549
8.01 -0.180361
8.02 -0.18011
8.03 -0.180719
8.04 -0.182097
8.05 -0.184142
8.06 -0.186777
8.07 -0.189847
8.08 -0.193213
8.09 -0.19676
8.1 -0.200382
8.11 -0.203978
8.12 -0.20746
8.13 -0.210734
8.14 -0.213761
8.15 -0.216506
8.16 -0.218952
8.17 -0.221097
8.18 -0.222954
8.19 -0.224534
8.2 -0.225881
8.21 -0.227052
8.22 -0.228091
8.23 -0.229041
8.24 -0.229938
8.25 -0.230812
8.26 -0.231679
8.27 -0.232538
8.28 -0.233367
8.29 -0.234128
8.3 -0.234761
8.31 -0.235189
8.32 -0.23529
8.33 -0.234932
8.34 -0.234002
8.35 -0.232363
8.36 -0.229871
8.37 -0.226379
8.38 -0.221745
8.39 -0.215683
8.4 -0.20819
8.41 -0.199178
8.42 -0.188568
8.43 -0.176305
8.44 -0.16236
8.45 -0.146658
8.46 -0.129191
8.47 -0.110142
8.48 -0.0895984
8.49 -0.0676708
8.5 -0.04449
8.51 -0.0202024
8.52 0.00511044
8.53 0.0311893
8.54 0.0578502
8.55 0.0849309
8.56 0.112278
8.57 0.13975
8.58 0.167219
8.59 0.194562
8.6 0.221703
8.61 0.248585
8.62 0.275173
8.63 0.301453
8.64 0.327429
8.65 0.3531
8.66 0.37852
8.67 0.403739
8.68 0.428802
8.69 0.45375
8.7 0.478617
8.71 0.503423
8.72 0.528171
8.73 0.552847
8.74 0.577407
8.75 0.601786
8.76 0.625891
8.77 0.649605
8.78 0.672734
8.79 0.695107
8.8 0.716562
8.81 0.736898
8.82 0.755906
8.83 0.773376
8.84 0.789071
8.85 0.802585
8.86 0.813918
8.87 0.822903
8.88 0.829396
8.89 0.833278
8.9 0.834463
8.91 0.832714
8.92 0.828043
8.93 0.820613
8.94 0.810471
8.95 0.797695
8.96 0.782386
8.97 0.764667
8.98 0.744437
8.99 0.72213
9 0.697911
9.01 0.671946
9.02 0.644401
9.03 0.615435
9.04 0.585136
9.05 0.553651
9.06 0.521177
9.07 0.487821
9.08 0.453671
9.09 0.418806
9.1 0.383288
9.11 0.347116
9.12 0.310401
9.13 0.273195
9.14 0.235547
9.15 0.197513
9.16 0.159157
9.17 0.120553
9.18 0.0818061
9.19 0.0430513
9.2 0.00442701
9.21 -0.0339085
9.22 -0.0717774
9.23 -0.108984
9.24 -0.14521
9.25 -0.180272
9.26 -0.213953
9.27 -0.246019
9.28 -0.276239
9.29 -0.304387
9.3 -0.330175
9.31 -0.353256
9.32 -0.373669
9.33 -0.391282
9.34 -0.405999
9.35 -0.417754
9.36 -0.426522
9.37 -0.432063
9.38 -0.434591
9.39 -0.43429
9.4 -0.431279
9.41 -0.425704
9.42 -0.417732
9.43 -0.407508
9.44 -0.395102
9.45 -0.380926
9.46 -0.365183
9.47 -0.348068
9.48 -0.329767
9.49 -0.310449
9.5 -0.290211
9.51 -0.269225
9.52 -0.24763
9.53 -0.225504
9.54 -0.202905
9.55 -0.179872
9.56 -0.15642
9.57 -0.132515
9.58 -0.108196
9.59 -0.0834524
9.6 -0.0582749
9.61 -0.0326582
9.62 -0.00660633
9.63 0.0198877
9.64 0.0467791
9.65 0.0739871
9.66 0.101432
9.67 0.129014
9.68 0.156609
9.69 0.184074
9.7 0.211196
9.71 0.237811
9.72 0.263732
9.73 0.288761
9.74 0.312705
9.75 0.33537
9.76 0.35649
9.77 0.375851
9.78 0.393406
9.79 0.409036
9.8 0.422647
9.81 0.434174
9.82 0.443583
9.83 0.450653
9.84 0.455613
9.85 0.458553
9.86 0.459564
9.87 0.458755
9.88 0.456256
9.89 0.452157
9.9 0.446582
9.91 0.439807
9.92 0.43199
9.93 0.423281
9.94 0.413822
9.95 0.403743
9.96 0.393117
9.97 0.382082
9.98 0.370719
9.99 0.35908
10 0.347197
10.01 0.335083
10.02 0.32273
10.03 0.310109
10.04 0.297213
10.05 0.284012
10.06 0.270474
10.07 0.25657
10.08 0.242274
10.09 0.227535
10.1 0.212366
10.11 0.196793
10.12 0.180838
10.13 0.164541
10.14 0.147954
10.15 0.131139
10.16 0.114176
10.17 0.097173
10.18 0.0802279
10.19 0.0634401
10.2 0.0469094
10.21 0.0307332
10.22 0.0150405
10.23 -8.73691e-05
10.24 -0.014604
10.25 -0.0284559
10.26 -0.0416047
10.27 -0.0540285
10.28 -0.0657169
10.29 -0.0766093
10.3 -0.0868159
10.31 -0.0963793
10.32 -0.105353
10.33 -0.1138
10.34 -0.121787
10.35 -0.129367
10.36 -0.136623
10.37 -0.143643
10.38 -0.150489
10.39 -0.157215
10.4 -0.163865
10.41 -0.170473
10.42 -0.177063
10.43 -0.183647
10.44 -0.190224
10.45 -0.196784
10.46 -0.20331
10.47 -0.209779
10.48 -0.216159
10.49 -0.222419
10.5 -0.228539
10.51 -0.2345
10.52 -0.240288
10.53 -0.245898
10.54 -0.251336
10.55 -0.256603
10.56 -0.261742
10.57 -0.266797
10.58 -0.271814
10.59 -0.276852
10.6 -0.281971
10.61 -0.287248
10.62 -0.292767
10.63 -0.298581
10.64 -0.30475
10.65 -0.311325
10.66 -0.318347
10.67 -0.325846
10.68 -0.333878
10.69 -0.342408
10.7 -0.351398
10.71 -0.36081
10.72 -0.370587
10.73 -0.380659
10.74 -0.390945
10.75 -0.401346
10.76 -0.411741
10.77 -0.422024
10.78 -0.432088
10.79 -0.44183
10.8 -0.451154
10.81 -0.459927
10.82 -0.468088
10.83 -0.475602
10.84 -0.482431
10.85 -0.488557
10.86 -0.493977
10.87 -0.4987
10.88 -0.502709
10.89 -0.506128
10.9 -0.509021
10.91 -0.511465
10.92 -0.513541
10.93 -0.515333
10.94 -0.516915
10.95 -0.51838
10.96 -0.519805
10.97 -0.521245
10.98 -0.522739
10.99 -0.524313
11 -0.525971
11.01 -0.527704
11.02 -0.529465
11.03 -0.531197
11.04 -0.532827
11.05 -0.53427
11.06 -0.535426
11.07 -0.536161
11.08 -0.536343
11.09 -0.535884
11.1 -0.534678
11.11 -0.532622
11.12 -0.529629
11.13 -0.525622
11.14 -0.520421
11.15 -0.514098
11.16 -0.506648
11.17 -0.49808
11.18 -0.488423
11.19 -0.477728
11.2 -0.466024
11.21 -0.45339
11.22 -0.439998
11.23 -0.425961
11.24 -0.411399
11.25 -0.396434
11.26 -0.38119
11.27 -0.365777
11.28 -0.350329
11.29 -0.334943
11.3 -0.319698
11.31 -0.304658
11.32 -0.289869
11.33 -0.275366
11.34 -0.261169
11.35 -0.24724
11.36 -0.233546
11.37 -0.220037
11.38 -0.206654
11.39 -0.193325
11.4 -0.179959
11.41 -0.166466
11.42 -0.15276
11.43 -0.13876
11.44 -0.124387
11.45 -0.109572
11.46 -0.0942432
11.47 -0.0783094
11.48 -0.0617875
11.49 -0.0446609
11.5 -0.026927
11.51 -0.00859722
11.52 0.0103038
11.53 0.0297769
11.54 0.0497469
11.55 0.0701346
11.56 0.090876
11.57 0.111903
11.58 0.133144
11.59 0.154532
11.6 0.175996
11.61 0.19746
11.62 0.218866
11.63 0.240164
11.64 0.261308
11.65 0.282262
11.66 0.302981
11.67 0.323443
11.68 0.343646
11.69 0.36358
11.7 0.383238
11.71 0.402617
11.72 0.421713
11.73 0.440491
11.74 0.458975
11.75 0.477155
11.76 0.495015
11.77 0.512533
11.78 0.529679
11.79 0.546393
11.8 0.562619
11.81 0.578329
11.82 0.593462
11.83 0.607952
11.84 0.621725
11.85 0.634705
11.86 0.646709
11.87 0.657732
11.88 0.6677
11.89 0.676534
11.9 0.684155
11.91 0.690491
11.92 0.695412
11.93 0.698807
11.94 0.700726
11.95 0.701127
11.96 0.699976
11.97 0.69725
11.98 0.692936
11.99 0.686876
12 0.679202
12.01 0.669963
12.02 0.659187
12.03 0.646911
12.04 0.633177
12.05 0.617994
12.06 0.60136
12.07 0.583458
12.08 0.56436
12.09 0.544142
12.1 0.522885
12.11 0.500675
12.12 0.477532
12.13 0.453608
12.14 0.429023
12.15 0.403873
12.16 0.378257
12.17 0.352274
12.18 0.326021
12.19 0.299602
12.2 0.273142
12.21 0.246743
12.22 0.220506
12.23 0.194533
12.24 0.168923
12.25 0.143818
12.26 0.119311
12.27 0.0954756
12.28 0.0724019
