# xPDFsuite Configuration #
[PDF]
wavelength = 0.1
dataformat = QA
inputfile = BiMsol6_insitu_700 C-00497.xy
backgroundfile = Quartz2mm-dist500-00000.xy
mode = xray
bgscale = 0.0042
composition = Bi2Fe4O9
outputtype = gr
qmaxinst = 24.998449118
qmin = 0.1
qmax = 21.4986662415
rmax = 80.0
rmin = 0.0
rstep = 0.01
rpoly = 0.9

[Misc]
inputdir = C:/Data/Seafile/CPH/Beamtime/Desy Oct 20/In situ data/Processed/BiMsol6/PDF
savedir = C:/Data/Seafile/CPH/Beamtime/Desy Oct 20/In situ data/PDF/BiMsol6
backgroundfilefull = C:/Data/Seafile/CPH/Beamtime/Desy Oct 20/In situ data/Processed/Standard_Empty_Cap/Quartz2mm-dist500-00000.xy

#### start data
#S 1
#L r($\AA$)  G($\AA^{-2}$)
0 0
0.01 0.00663647
0.02 0.0129003
0.03 0.0184725
0.04 0.0230668
0.05 0.0264426
0.06 0.0284161
0.07 0.0287863
0.08 0.0274936
0.09 0.0246842
0.1 0.0204782
0.11 0.0150622
0.12 0.00868156
0.13 0.00162915
0.14 -0.0057667
0.15 -0.0130893
0.16 -0.0199874
0.17 -0.0261315
0.18 -0.0312254
0.19 -0.0350211
0.2 -0.0372636
0.21 -0.037777
0.22 -0.0366583
0.23 -0.0339718
0.24 -0.0298617
0.25 -0.0245475
0.26 -0.0183152
0.27 -0.0114885
0.28 -0.00454035
0.29 0.00210905
0.3 0.00805166
0.31 0.0128991
0.32 0.0163017
0.33 0.0179055
0.34 0.0173636
0.35 0.0147236
0.36 0.00997851
0.37 0.00322668
0.38 -0.00532704
0.39 -0.0153742
0.4 -0.0265589
0.41 -0.0382611
0.42 -0.0498725
0.43 -0.0607754
0.44 -0.0703311
0.45 -0.0779033
0.46 -0.0828208
0.47 -0.0842212
0.48 -0.0819148
0.49 -0.0755534
0.5 -0.0649112
0.51 -0.0498997
0.52 -0.0305766
0.53 -0.0068804
0.54 0.0206366
0.55 0.0512495
0.56 0.0842844
0.57 0.118955
0.58 0.154385
0.59 0.189622
0.6 0.22345
0.61 0.254928
0.62 0.283107
0.63 0.307105
0.64 0.32613
0.65 0.339508
0.66 0.346305
0.67 0.346158
0.68 0.339266
0.69 0.325663
0.7 0.305565
0.71 0.279364
0.72 0.247618
0.73 0.210574
0.74 0.169709
0.75 0.125991
0.76 0.0804406
0.77 0.0341106
0.78 -0.0119458
0.79 -0.0565896
0.8 -0.0986927
0.81 -0.137512
0.82 -0.17233
0.83 -0.202566
0.84 -0.227798
0.85 -0.247766
0.86 -0.26183
0.87 -0.270582
0.88 -0.274367
0.89 -0.273595
0.9 -0.268799
0.91 -0.260611
0.92 -0.249663
0.93 -0.236749
0.94 -0.222841
0.95 -0.208702
0.96 -0.19505
0.97 -0.182544
0.98 -0.171755
0.99 -0.163392
1 -0.157685
1.01 -0.154782
1.02 -0.154763
1.03 -0.157586
1.04 -0.163097
1.05 -0.171097
1.06 -0.181313
1.07 -0.193103
1.08 -0.205995
1.09 -0.219494
1.1 -0.233101
1.11 -0.246339
1.12 -0.258667
1.13 -0.269698
1.14 -0.279165
1.15 -0.286851
1.16 -0.292625
1.17 -0.296448
1.18 -0.298332
1.19 -0.298283
1.2 -0.296707
1.21 -0.293877
1.22 -0.29011
1.23 -0.285747
1.24 -0.281141
1.25 -0.276667
1.26 -0.272687
1.27 -0.269464
1.28 -0.267218
1.29 -0.266106
1.3 -0.266215
1.31 -0.267568
1.32 -0.270217
1.33 -0.273885
1.34 -0.27837
1.35 -0.283421
1.36 -0.288751
1.37 -0.29405
1.38 -0.298959
1.39 -0.303119
1.4 -0.306272
1.41 -0.308175
1.42 -0.308636
1.43 -0.307526
1.44 -0.304781
1.45 -0.300236
1.46 -0.294169
1.47 -0.286759
1.48 -0.27824
1.49 -0.268897
1.5 -0.259062
1.51 -0.249106
1.52 -0.239463
1.53 -0.230508
1.54 -0.222589
1.55 -0.216018
1.56 -0.211057
1.57 -0.207907
1.58 -0.206899
1.59 -0.207912
1.6 -0.210863
1.61 -0.21562
1.62 -0.221975
1.63 -0.229649
1.64 -0.238323
1.65 -0.247575
1.66 -0.256905
1.67 -0.265869
1.68 -0.274028
1.69 -0.280963
1.7 -0.28629
1.71 -0.289471
1.72 -0.290338
1.73 -0.288765
1.74 -0.284657
1.75 -0.278002
1.76 -0.268878
1.77 -0.25739
1.78 -0.243679
1.79 -0.228276
1.8 -0.211556
1.81 -0.193934
1.82 -0.175847
1.83 -0.157741
1.84 -0.140121
1.85 -0.123429
1.86 -0.108007
1.87 -0.0941571
1.88 -0.0821156
1.89 -0.0720448
1.9 -0.0640583
1.91 -0.05833
1.92 -0.0545517
1.93 -0.0525548
1.94 -0.0521076
1.95 -0.0529255
1.96 -0.0546842
1.97 -0.0570485
1.98 -0.0595951
1.99 -0.0619476
2 -0.0637809
2.01 -0.0648091
2.02 -0.0647976
2.03 -0.0635684
2.04 -0.0608692
2.05 -0.0568331
2.06 -0.0515277
2.07 -0.0450952
2.08 -0.0377463
2.09 -0.0297537
2.1 -0.0214445
2.11 -0.0132425
2.12 -0.00555578
2.13 0.00121832
2.14 0.00669228
2.15 0.0105034
2.16 0.0123282
2.17 0.0116242
2.18 0.00840676
2.19 0.00257729
2.2 -0.00590078
2.21 -0.0169829
2.22 -0.030544
2.23 -0.0464721
2.24 -0.0644966
2.25 -0.084107
2.26 -0.104906
2.27 -0.126461
2.28 -0.148323
2.29 -0.170034
2.3 -0.191048
2.31 -0.210951
2.32 -0.229385
2.33 -0.246033
2.34 -0.260642
2.35 -0.273026
2.36 -0.282994
2.37 -0.290403
2.38 -0.29551
2.39 -0.298446
2.4 -0.299406
2.41 -0.298641
2.42 -0.296445
2.43 -0.293082
2.44 -0.289009
2.45 -0.284612
2.46 -0.280238
2.47 -0.276214
2.48 -0.272832
2.49 -0.270373
2.5 -0.269138
2.51 -0.269175
2.52 -0.270559
2.53 -0.27331
2.54 -0.27739
2.55 -0.282708
2.56 -0.289197
2.57 -0.296609
2.58 -0.304683
2.59 -0.313184
2.6 -0.321864
2.61 -0.330479
2.62 -0.338782
2.63 -0.346483
2.64 -0.353432
2.65 -0.359475
2.66 -0.364496
2.67 -0.368418
2.68 -0.371205
2.69 -0.372788
2.7 -0.373237
2.71 -0.37269
2.72 -0.371257
2.73 -0.369067
2.74 -0.366263
2.75 -0.362996
2.76 -0.359398
2.77 -0.355659
2.78 -0.351909
2.79 -0.348254
2.8 -0.344784
2.81 -0.341559
2.82 -0.338631
2.83 -0.336011
2.84 -0.333661
2.85 -0.331536
2.86 -0.329577
2.87 -0.327708
2.88 -0.325845
2.89 -0.323882
2.9 -0.32173
2.91 -0.319308
2.92 -0.316546
2.93 -0.313384
2.94 -0.309782
2.95 -0.305691
2.96 -0.301089
2.97 -0.296023
2.98 -0.290517
2.99 -0.284608
3 -0.278337
3.01 -0.271752
3.02 -0.264875
3.03 -0.257769
3.04 -0.250464
3.05 -0.242971
3.06 -0.235282
3.07 -0.227369
3.08 -0.21917
3.09 -0.210583
3.1 -0.201533
3.11 -0.191902
3.12 -0.181558
3.13 -0.17036
3.14 -0.158158
3.15 -0.144695
3.16 -0.129876
3.17 -0.113615
3.18 -0.0958108
3.19 -0.0763876
3.2 -0.0553029
3.21 -0.0325161
3.22 -0.00794669
3.23 0.0181587
3.24 0.0456717
3.25 0.0744228
3.26 0.104204
3.27 0.134773
3.28 0.165872
3.29 0.197145
3.3 0.228253
3.31 0.258873
3.32 0.288681
3.33 0.31736
3.34 0.344596
3.35 0.369913
3.36 0.393235
3.37 0.41436
3.38 0.433127
3.39 0.449419
3.4 0.463162
3.41 0.474169
3.42 0.482485
3.43 0.488317
3.44 0.491771
3.45 0.49298
3.46 0.492106
3.47 0.489332
3.48 0.484678
3.49 0.478563
3.5 0.471193
3.51 0.462766
3.52 0.453469
3.53 0.443476
3.54 0.432922
3.55 0.421953
3.56 0.410712
3.57 0.399287
3.58 0.387743
3.59 0.376132
3.6 0.364485
3.61 0.352825
3.62 0.341166
3.63 0.329516
3.64 0.317881
3.65 0.306274
3.66 0.294713
3.67 0.283229
3.68 0.271876
3.69 0.260704
3.7 0.249783
3.71 0.2392
3.72 0.22905
3.73 0.219442
3.74 0.210564
3.75 0.202508
3.76 0.195379
3.77 0.1893
3.78 0.184382
3.79 0.180731
3.8 0.178479
3.81 0.177791
3.82 0.178596
3.83 0.180923
3.84 0.184777
3.85 0.190141
3.86 0.196976
3.87 0.205329
3.88 0.215038
3.89 0.225948
3.9 0.237942
3.91 0.250886
3.92 0.26464
3.93 0.279067
3.94 0.294038
3.95 0.309342
3.96 0.324833
3.97 0.340372
3.98 0.355826
3.99 0.371073
4 0.385968
4.01 0.400405
4.02 0.41431
4.03 0.427606
4.04 0.440222
4.05 0.452098
4.06 0.463177
4.07 0.47332
4.08 0.482577
4.09 0.49091
4.1 0.498289
4.11 0.504681
4.12 0.510057
4.13 0.514327
4.14 0.517464
4.15 0.519503
4.16 0.520423
4.17 0.520205
4.18 0.518833
4.19 0.516295
4.2 0.512454
4.21 0.507436
4.22 0.501254
4.23 0.49392
4.24 0.485455
4.25 0.475883
4.26 0.465186
4.27 0.453388
4.28 0.440602
4.29 0.426874
4.3 0.412252
4.31 0.396781
4.32 0.380509
4.33 0.363409
4.34 0.345591
4.35 0.327105
4.36 0.307984
4.37 0.288259
4.38 0.267955
4.39 0.247073
4.4 0.225615
4.41 0.203643
4.42 0.181175
4.43 0.158235
4.44 0.134847
4.45 0.111042
4.46 0.0868296
4.47 0.0622884
4.48 0.0374886
4.49 0.0125013
4.5 -0.0125913
4.51 -0.0376957
4.52 -0.0627026
4.53 -0.0874702
4.54 -0.111886
4.55 -0.135825
4.56 -0.159157
4.57 -0.181756
4.58 -0.203497
4.59 -0.224178
4.6 -0.243724
4.61 -0.262082
4.62 -0.279183
4.63 -0.294974
4.64 -0.309423
4.65 -0.3225
4.66 -0.334109
4.67 -0.344426
4.68 -0.353515
4.69 -0.361455
4.7 -0.368344
4.71 -0.374293
4.72 -0.379376
4.73 -0.383755
4.74 -0.387601
4.75 -0.391041
4.76 -0.394197
4.77 -0.39718
4.78 -0.40009
4.79 -0.40302
4.8 -0.406036
4.81 -0.409181
4.82 -0.412478
4.83 -0.415928
4.84 -0.419518
4.85 -0.42322
4.86 -0.426978
4.87 -0.430726
4.88 -0.434397
4.89 -0.437919
4.9 -0.44122
4.91 -0.444229
4.92 -0.446837
4.93 -0.449021
4.94 -0.450741
4.95 -0.451969
4.96 -0.452688
4.97 -0.452896
4.98 -0.452583
4.99 -0.451765
5 -0.450515
5.01 -0.448876
5.02 -0.446898
5.03 -0.444632
5.04 -0.442127
5.05 -0.439414
5.06 -0.436551
5.07 -0.433567
5.08 -0.430477
5.09 -0.427282
5.1 -0.423969
5.11 -0.420505
5.12 -0.416832
5.13 -0.412907
5.14 -0.408665
5.15 -0.404035
5.16 -0.39894
5.17 -0.393304
5.18 -0.386995
5.19 -0.379979
5.2 -0.372219
5.21 -0.363681
5.22 -0.354344
5.23 -0.344206
5.24 -0.33327
5.25 -0.321532
5.26 -0.309133
5.27 -0.296158
5.28 -0.28271
5.29 -0.268908
5.3 -0.254881
5.31 -0.240769
5.32 -0.226737
5.33 -0.212925
5.34 -0.199465
5.35 -0.18648
5.36 -0.174079
5.37 -0.162361
5.38 -0.151472
5.39 -0.141385
5.4 -0.132121
5.41 -0.123679
5.42 -0.116037
5.43 -0.109152
5.44 -0.103007
5.45 -0.0975053
5.46 -0.0925255
5.47 -0.0879766
5.48 -0.083766
5.49 -0.0798041
5.5 -0.076008
5.51 -0.0723079
5.52 -0.0686311
5.53 -0.0649376
5.54 -0.0612048
5.55 -0.0574273
5.56 -0.0536171
5.57 -0.0498045
5.58 -0.0460397
5.59 -0.0423786
5.6 -0.0388833
5.61 -0.0356194
5.62 -0.032651
5.63 -0.0300373
5.64 -0.0278761
5.65 -0.0261652
5.66 -0.0249169
5.67 -0.0241283
5.68 -0.0237757
5.69 -0.0238143
5.7 -0.0241883
5.71 -0.0248039
5.72 -0.0255304
5.73 -0.0262466
5.74 -0.0268214
5.75 -0.0271189
5.76 -0.0270025
5.77 -0.0262755
5.78 -0.0248467
5.79 -0.0226254
5.8 -0.0195298
5.81 -0.0155023
5.82 -0.0105121
5.83 -0.00452632
5.84 0.00246671
5.85 0.0103206
5.86 0.018942
5.87 0.0282128
5.88 0.0379932
5.89 0.0481267
5.9 0.058445
5.91 0.0687411
5.92 0.0788365
5.93 0.088565
5.94 0.0977739
5.95 0.106329
5.96 0.114102
5.97 0.120939
5.98 0.126873
5.99 0.131889
6 0.13601
6.01 0.139288
6.02 0.141804
6.03 0.143628
6.04 0.144931
6.05 0.145893
6.06 0.146672
6.07 0.147431
6.08 0.148331
6.09 0.149526
6.1 0.151206
6.11 0.153444
6.12 0.156318
6.13 0.15988
6.14 0.164144
6.15 0.169094
6.16 0.174713
6.17 0.180893
6.18 0.187479
6.19 0.194322
6.2 0.201257
6.21 0.2081
6.22 0.214658
6.23 0.220661
6.24 0.225956
6.25 0.230368
6.26 0.233737
6.27 0.235928
6.28 0.236832
6.29 0.236293
6.3 0.234249
6.31 0.230783
6.32 0.225925
6.33 0.219737
6.34 0.212308
6.35 0.203753
6.36 0.194122
6.37 0.183678
6.38 0.172599
6.39 0.161053
6.4 0.149206
6.41 0.13722
6.42 0.125248
6.43 0.113442
6.44 0.101907
6.45 0.0907246
6.46 0.0799554
6.47 0.0696341
6.48 0.0597722
6.49 0.0503986
6.5 0.0414436
6.51 0.0328463
6.52 0.024544
6.53 0.0164658
6.54 0.0085378
6.55 0.000686305
6.56 -0.00716551
6.57 -0.0150808
6.58 -0.023105
6.59 -0.0312689
6.6 -0.0395872
6.61 -0.0480577
6.62 -0.056669
6.63 -0.0653715
6.64 -0.0741068
6.65 -0.0828086
6.66 -0.0914015
6.67 -0.0998039
6.68 -0.107924
6.69 -0.11564
6.7 -0.122901
6.71 -0.129635
6.72 -0.135783
6.73 -0.141295
6.74 -0.146135
6.75 -0.15023
6.76 -0.153595
6.77 -0.15627
6.78 -0.158276
6.79 -0.159644
6.8 -0.160414
6.81 -0.160623
6.82 -0.16027
6.83 -0.159458
6.84 -0.158224
6.85 -0.156596
6.86 -0.154596
6.87 -0.15223
6.88 -0.14947
6.89 -0.146294
6.9 -0.14269
6.91 -0.138609
6.92 -0.133995
6.93 -0.128784
6.94 -0.122905
6.95 -0.116193
6.96 -0.108654
6.97 -0.100226
6.98 -0.0908517
6.99 -0.080489
7 -0.0691086
7.01 -0.0566475
7.02 -0.0430993
7.03 -0.028565
7.04 -0.0130963
7.05 0.00323574
7.06 0.0203424
7.07 0.0381189
7.08 0.056491
7.09 0.0752661
7.1 0.0943008
7.11 0.113457
7.12 0.132599
7.13 0.151595
7.14 0.170308
7.15 0.188599
7.16 0.206397
7.17 0.223627
7.18 0.240229
7.19 0.25616
7.2 0.271397
7.21 0.285865
7.22 0.299617
7.23 0.31269
7.24 0.325107
7.25 0.3369
7.26 0.348096
7.27 0.358708
7.28 0.368725
7.29 0.378205
7.3 0.387145
7.31 0.395528
7.32 0.403319
7.33 0.41047
7.34 0.416853
7.35 0.422409
7.36 0.427069
7.37 0.430731
7.38 0.433283
7.39 0.434616
7.4 0.434593
7.41 0.432979
7.42 0.429817
7.43 0.425031
7.44 0.41856
7.45 0.410366
7.46 0.400435
7.47 0.388657
7.48 0.375117
7.49 0.359966
7.5 0.343296
7.51 0.325226
7.52 0.305892
7.53 0.285444
7.54 0.263977
7.55 0.241792
7.56 0.219078
7.57 0.196024
7.58 0.172818
7.59 0.149638
7.6 0.126676
7.61 0.10411
7.62 0.082064
7.63 0.0606552
7.64 0.0399835
7.65 0.020129
7.66 0.00115345
7.67 -0.0167932
7.68 -0.0337823
7.69 -0.0498091
7.7 -0.0648756
7.71 -0.0789926
7.72 -0.0921775
7.73 -0.104409
7.74 -0.115694
7.75 -0.126116
7.76 -0.135695
7.77 -0.144445
7.78 -0.152377
7.79 -0.159495
7.8 -0.165719
7.81 -0.171113
7.82 -0.175683
7.83 -0.179423
7.84 -0.182325
7.85 -0.184386
7.86 -0.185576
7.87 -0.185865
7.88 -0.185337
7.89 -0.184019
7.9 -0.181945
7.91 -0.17916
7.92 -0.175719
7.93 -0.171641
7.94 -0.167047
7.95 -0.162033
7.96 -0.156687
7.97 -0.151098
7.98 -0.145354
7.99 -0.139543
8 -0.133759
8.01 -0.128078
8.02 -0.122566
8.03 -0.117274
8.04 -0.112244
8.05 -0.107503
8.06 -0.10309
8.07 -0.0989927
8.08 -0.0951873
8.09 -0.0916506
8.1 -0.0883512
8.11 -0.0852518
8.12 -0.0823128
8.13 -0.0794963
8.14 -0.076746
8.15 -0.0740252
8.16 -0.0713032
8.17 -0.0685573
8.18 -0.0657737
8.19 -0.0629466
8.2 -0.0600861
8.21 -0.0572136
8.22 -0.0543575
8.23 -0.0515536
8.24 -0.0488434
8.25 -0.0462725
8.26 -0.0439124
8.27 -0.0417895
8.28 -0.0399421
8.29 -0.0384006
8.3 -0.0371857
8.31 -0.0363063
8.32 -0.0357759
8.33 -0.0355722
8.34 -0.0356386
8.35 -0.0359244
8.36 -0.0363664
8.37 -0.0368906
8.38 -0.037414
8.39 -0.0378284
8.4 -0.0380422
8.41 -0.0379666
8.42 -0.0375173
8.43 -0.0366188
8.44 -0.0352076
8.45 -0.0332082
8.46 -0.0305722
8.47 -0.0273344
8.48 -0.0235097
8.49 -0.019134
8.5 -0.0142636
8.51 -0.00897437
8.52 -0.0033383
8.53 0.00249649
8.54 0.00840234
8.55 0.014251
8.56 0.0199117
8.57 0.0252555
8.58 0.0301405
8.59 0.0344131
8.6 0.0380174
8.61 0.0408768
8.62 0.0429354
8.63 0.0441594
8.64 0.0445381
8.65 0.0440145
8.66 0.0426792
8.67 0.0406184
8.68 0.0379108
8.69 0.0346498
8.7 0.0309397
8.71 0.0268867
8.72 0.0226032
8.73 0.0182297
8.74 0.0138695
8.75 0.00961489
8.76 0.00554381
8.77 0.00171706
8.78 -0.0018003
8.79 -0.004998
8.8 -0.00789362
8.81 -0.010513
8.82 -0.0129009
8.83 -0.0151185
8.84 -0.0172408
8.85 -0.0193639
8.86 -0.021589
8.87 -0.0240104
8.88 -0.0267195
8.89 -0.0298007
8.9 -0.0333279
8.91 -0.037397
8.92 -0.0420483
8.93 -0.0472745
8.94 -0.0530748
8.95 -0.0594281
8.96 -0.0662937
8.97 -0.0736129
8.98 -0.0813434
8.99 -0.0893422
9 -0.0975085
9.01 -0.105736
9.02 -0.113918
9.03 -0.12195
9.04 -0.129715
9.05 -0.137112
9.06 -0.144088
9.07 -0.15059
9.08 -0.156584
9.09 -0.162055
9.1 -0.16701
9.11 -0.171423
9.12 -0.175392
9.13 -0.178984
9.14 -0.18227
9.15 -0.185331
9.16 -0.188254
9.17 -0.191125
9.18 -0.194038
9.19 -0.197068
9.2 -0.200275
9.21 -0.203702
9.22 -0.207376
9.23 -0.211305
9.24 -0.215496
9.25 -0.219891
9.26 -0.224427
9.27 -0.229028
9.28 -0.233606
9.29 -0.238059
9.3 -0.242266
9.31 -0.246079
9.32 -0.249408
9.33 -0.252144
9.34 -0.254193
9.35 -0.255468
9.36 -0.255905
9.37 -0.255376
9.38 -0.253903
9.39 -0.251516
9.4 -0.24824
9.41 -0.244119
9.42 -0.23922
9.43 -0.233613
9.44 -0.227364
9.45 -0.220648
9.46 -0.213581
9.47 -0.206279
9.48 -0.198853
9.49 -0.19141
9.5 -0.184053
9.51 -0.176865
9.52 -0.169897
9.53 -0.163181
9.54 -0.156726
9.55 -0.150521
9.56 -0.144532
9.57 -0.138711
9.58 -0.132954
9.59 -0.127167
9.6 -0.121245
9.61 -0.115073
9.62 -0.108534
9.63 -0.101475
9.64 -0.0937738
9.65 -0.0853598
9.66 -0.07615
9.67 -0.0660791
9.68 -0.0551017
9.69 -0.0431947
9.7 -0.030253
9.71 -0.0164123
9.72 -0.0017262
9.73 0.0137326
9.74 0.0298727
9.75 0.0465865
9.76 0.0637704
9.77 0.0812791
9.78 0.0989491
9.79 0.116645
9.8 0.134234
9.81 0.151592
9.82 0.168602
9.83 0.185106
9.84 0.20105
9.85 0.216372
9.86 0.23102
9.87 0.24496
9.88 0.258173
9.89 0.270625
9.9 0.282301
9.91 0.293279
9.92 0.303588
9.93 0.313263
9.94 0.322338
9.95 0.33085
9.96 0.338786
9.97 0.346212
9.98 0.35316
9.99 0.359644
10 0.365666
10.01 0.371224
10.02 0.376289
10.03 0.380811
10.04 0.384806
10.05 0.388246
10.06 0.391102
10.07 0.393345
10.08 0.39495
10.09 0.395842
10.1 0.396041
10.11 0.39557
10.12 0.394437
10.13 0.392667
10.14 0.390291
10.15 0.387346
10.16 0.383855
10.17 0.379941
10.18 0.375679
10.19 0.371149
10.2 0.366436
10.21 0.361624
10.22 0.3568
10.23 0.352054
10.24 0.347455
10.25 0.343062
10.26 0.338925
10.27 0.33508
10.28 0.331552
10.29 0.328382
10.3 0.325526
10.31 0.322963
10.32 0.320658
10.33 0.318568
10.34 0.316638
10.35 0.314812
10.36 0.313014
10.37 0.311172
10.38 0.309221
10.39 0.307095
10.4 0.304737
10.41 0.302092
10.42 0.299074
10.43 0.295678
10.44 0.291879
10.45 0.287656
10.46 0.283
10.47 0.277905
10.48 0.272353
10.49 0.266342
10.5 0.259912
10.51 0.253073
10.52 0.245837
10.53 0.238211
10.54 0.230202
10.55 0.221773
10.56 0.212953
10.57 0.203739
10.58 0.194121
10.59 0.184081
10.6 0.173601
10.61 0.162642
10.62 0.151162
10.63 0.13918
10.64 0.126683
10.65 0.113661
10.66 0.100116
10.67 0.0860539
10.68 0.0714515
10.69 0.0563749
10.7 0.0408801
10.71 0.0250213
10.72 0.00886274
10.73 -0.00752169
10.74 -0.0240519
10.75 -0.0406319
10.76 -0.0571586
10.77 -0.0735402
10.78 -0.0896873
10.79 -0.105516
10.8 -0.120949
10.81 -0.135879
10.82 -0.150268
10.83 -0.164097
10.84 -0.177347
10.85 -0.190014
10.86 -0.202114
10.87 -0.213666
10.88 -0.224682
10.89 -0.235276
10.9 -0.24552
10.91 -0.255492
10.92 -0.265277
10.93 -0.274958
10.94 -0.284623
10.95 -0.294358
10.96 -0.304228
10.97 -0.314284
10.98 -0.324563
10.99 -0.335085
11 -0.345851
11.01 -0.356862
11.02 -0.368047
11.03 -0.379344
11.04 -0.390673
11.05 -0.40194
11.06 -0.413038
11.07 -0.423828
11.08 -0.434167
11.09 -0.443947
11.1 -0.453048
11.11 -0.461354
11.12 -0.468757
11.13 -0.475166
11.14 -0.480377
11.15 -0.484438
11.16 -0.487322
11.17 -0.489013
11.18 -0.489516
11.19 -0.488857
11.2 -0.48703
11.21 -0.48408
11.22 -0.480164
11.23 -0.475369
11.24 -0.46979
11.25 -0.463527
11.26 -0.456677
11.27 -0.449298
11.28 -0.441527
11.29 -0.433451
11.3 -0.425133
11.31 -0.416626
11.32 -0.407965
11.33 -0.399165
11.34 -0.390222
11.35 -0.381133
11.36 -0.371869
11.37 -0.362389
11.38 -0.352645
11.39 -0.342579
11.4 -0.332094
11.41 -0.321144
11.42 -0.309685
11.43 -0.297665
11.44 -0.285042
11.45 -0.271787
11.46 -0.257866
11.47 -0.243232
11.48 -0.227962
11.49 -0.212089
11.5 -0.19566
11.51 -0.178736
11.52 -0.161393
11.53 -0.143697
11.54 -0.12577
11.55 -0.107729
11.56 -0.0896777
11.57 -0.0717238
11.58 -0.053971
11.59 -0.0365239
11.6 -0.0195206
11.61 -0.00300815
11.62 0.0129446
11.63 0.0282812
11.64 0.0429583
11.65 0.056946
11.66 0.0701807
11.67 0.0826706
11.68 0.0944626
11.69 0.105578
11.7 0.116045
11.71 0.125902
11.72 0.135186
11.73 0.143889
11.74 0.152119
11.75 0.15992
11.76 0.167333
11.77 0.174395
11.78 0.181136
11.79 0.187567
11.8 0.193707
11.81 0.199585
11.82 0.205204
11.83 0.210562
11.84 0.215651
11.85 0.220457
11.86 0.224929
11.87 0.229074
11.88 0.232871
11.89 0.236294
11.9 0.239321
11.91 0.241925
11.92 0.244062
11.93 0.245692
11.94 0.246827
11.95 0.247447
11.96 0.247533
11.97 0.247068
11.98 0.246033
11.99 0.244355
12 0.242059
12.01 0.239139
12.02 0.235576
12.03 0.231352
12.04 0.226446
12.05 0.220813
12.06 0.21439
12.07 0.207215
12.08 0.199267
12.09 0.190526
12.1 0.180975
12.11 0.170601
12.12 0.159322
12.13 0.147183
12.14 0.134214
12.15 0.120431
12.16 0.105856
