# xPDFsuite Configuration #
[PDF]
wavelength = 0.1
dataformat = QA
inputfile = BiMsol6_insitu_700 C-00006.xy
backgroundfile = Quartz2mm-dist500-00000.xy
mode = xray
bgscale = 0.0042
composition = Bi2Fe4O9
outputtype = gr
qmaxinst = 24.998449118
qmin = 0.1
qmax = 21.4986662415
rmax = 80.0
rmin = 0.0
rstep = 0.01
rpoly = 0.9

[Misc]
inputdir = C:/Data/Seafile/CPH/Beamtime/Desy Oct 20/In situ data/Processed/BiMsol6/PDF
savedir = C:/Data/Seafile/CPH/Beamtime/Desy Oct 20/In situ data/PDF/BiMsol6
backgroundfilefull = C:/Data/Seafile/CPH/Beamtime/Desy Oct 20/In situ data/Processed/Standard_Empty_Cap/Quartz2mm-dist500-00000.xy

#### start data
#S 1
#L r($\AA$)  G($\AA^{-2}$)
0 0
0.01 0.00692182
0.02 0.0134576
0.03 0.0192768
0.04 0.0240829
0.05 0.0276267
0.06 0.0297181
0.07 0.0301489
0.08 0.0288576
0.09 0.0259962
0.1 0.0216894
0.11 0.016131
0.12 0.00957561
0.13 0.00232739
0.14 -0.0052726
0.15 -0.0127924
0.16 -0.0198678
0.17 -0.0261568
0.18 -0.0313525
0.19 -0.0351979
0.2 -0.0374285
0.21 -0.0378624
0.22 -0.0366012
0.23 -0.0337122
0.24 -0.0293463
0.25 -0.0237319
0.26 -0.0171672
0.27 -0.0099896
0.28 -0.00269107
0.29 0.00429112
0.3 0.0105324
0.31 0.0156288
0.32 0.0192165
0.33 0.0209274
0.34 0.0204011
0.35 0.0176881
0.36 0.0127823
0.37 0.00578721
0.38 -0.00308223
0.39 -0.0135031
0.4 -0.0251021
0.41 -0.0372315
0.42 -0.0492554
0.43 -0.0605281
0.44 -0.0703819
0.45 -0.078152
0.46 -0.0831366
0.47 -0.0844345
0.48 -0.0818493
0.49 -0.0750184
0.5 -0.0637082
0.51 -0.0478291
0.52 -0.0274453
0.53 -0.00249838
0.54 0.0264273
0.55 0.0585668
0.56 0.0932069
0.57 0.129516
0.58 0.166566
0.59 0.20335
0.6 0.238574
0.61 0.271249
0.62 0.300372
0.63 0.325006
0.64 0.344314
0.65 0.357584
0.66 0.363821
0.67 0.362642
0.68 0.354264
0.69 0.338726
0.7 0.316263
0.71 0.287295
0.72 0.252424
0.73 0.211923
0.74 0.167374
0.75 0.119819
0.76 0.0703619
0.77 0.0201388
0.78 -0.0297094
0.79 -0.0779427
0.8 -0.123333
0.81 -0.165072
0.82 -0.202374
0.83 -0.234598
0.84 -0.261275
0.85 -0.282108
0.86 -0.296374
0.87 -0.304715
0.88 -0.307496
0.89 -0.305155
0.9 -0.298265
0.91 -0.287511
0.92 -0.273575
0.93 -0.257324
0.94 -0.239842
0.95 -0.221976
0.96 -0.204534
0.97 -0.188257
0.98 -0.173801
0.99 -0.161973
1 -0.153067
1.01 -0.147283
1.02 -0.144745
1.03 -0.145444
1.04 -0.149246
1.05 -0.155971
1.06 -0.165361
1.07 -0.176717
1.08 -0.189534
1.09 -0.203277
1.1 -0.217399
1.11 -0.231369
1.12 -0.244599
1.13 -0.256627
1.14 -0.267125
1.15 -0.275824
1.16 -0.282546
1.17 -0.28721
1.18 -0.289793
1.19 -0.290263
1.2 -0.289028
1.21 -0.286358
1.22 -0.282577
1.23 -0.278041
1.24 -0.273126
1.25 -0.268231
1.26 -0.263757
1.27 -0.26001
1.28 -0.257245
1.29 -0.255655
1.3 -0.25536
1.31 -0.256413
1.32 -0.258902
1.33 -0.262551
1.34 -0.267165
1.35 -0.27249
1.36 -0.27823
1.37 -0.284056
1.38 -0.289589
1.39 -0.294434
1.4 -0.298292
1.41 -0.300882
1.42 -0.301976
1.43 -0.301404
1.44 -0.29907
1.45 -0.294759
1.46 -0.288743
1.47 -0.281186
1.48 -0.272317
1.49 -0.262429
1.5 -0.251866
1.51 -0.241017
1.52 -0.230352
1.53 -0.220299
1.54 -0.211254
1.55 -0.203582
1.56 -0.197599
1.57 -0.193562
1.58 -0.191879
1.59 -0.192467
1.6 -0.195279
1.61 -0.200216
1.62 -0.207091
1.63 -0.215634
1.64 -0.225537
1.65 -0.236372
1.66 -0.247576
1.67 -0.258664
1.68 -0.269139
1.69 -0.278517
1.7 -0.286339
1.71 -0.291981
1.72 -0.29518
1.73 -0.295733
1.74 -0.293463
1.75 -0.288288
1.76 -0.280219
1.77 -0.269295
1.78 -0.25558
1.79 -0.239625
1.8 -0.221801
1.81 -0.202531
1.82 -0.18228
1.83 -0.161537
1.84 -0.140833
1.85 -0.12071
1.86 -0.101608
1.87 -0.0839186
1.88 -0.0679722
1.89 -0.0540269
1.9 -0.0422939
1.91 -0.033065
1.92 -0.0260963
1.93 -0.0212866
1.94 -0.0184579
1.95 -0.0173643
1.96 -0.0177033
1.97 -0.0191769
1.98 -0.021335
1.99 -0.0237417
2 -0.0260218
2.01 -0.0278252
2.02 -0.0288415
2.03 -0.0288082
2.04 -0.0273796
2.05 -0.0245777
2.06 -0.020378
2.07 -0.0148348
2.08 -0.00807927
2.09 -0.000314401
2.1 0.00821505
2.11 0.0171321
2.12 0.0260222
2.13 0.0344901
2.14 0.0421322
2.15 0.0485528
2.16 0.0533786
2.17 0.0560306
2.18 0.0564038
2.19 0.0543085
2.2 0.0496131
2.21 0.0422643
2.22 0.0322897
2.23 0.0196924
2.24 0.00463639
2.25 -0.0124231
2.26 -0.031149
2.27 -0.0511552
2.28 -0.072019
2.29 -0.0932951
2.3 -0.114482
2.31 -0.135089
2.32 -0.154703
2.33 -0.172944
2.34 -0.189485
2.35 -0.204056
2.36 -0.216374
2.37 -0.226189
2.38 -0.233646
2.39 -0.238781
2.4 -0.241699
2.41 -0.242568
2.42 -0.241613
2.43 -0.238995
2.44 -0.235154
2.45 -0.230468
2.46 -0.225277
2.47 -0.219918
2.48 -0.214712
2.49 -0.209972
2.5 -0.206033
2.51 -0.203051
2.52 -0.20118
2.53 -0.200519
2.54 -0.201112
2.55 -0.202953
2.56 -0.206065
2.57 -0.21028
2.58 -0.215399
2.59 -0.221238
2.6 -0.227593
2.61 -0.234247
2.62 -0.240976
2.63 -0.247528
2.64 -0.2537
2.65 -0.259314
2.66 -0.264221
2.67 -0.268302
2.68 -0.271473
2.69 -0.273622
2.7 -0.27475
2.71 -0.274935
2.72 -0.274235
2.73 -0.272733
2.74 -0.27053
2.75 -0.267743
2.76 -0.264459
2.77 -0.260871
2.78 -0.257102
2.79 -0.253263
2.8 -0.249452
2.81 -0.245752
2.82 -0.242234
2.83 -0.238941
2.84 -0.235875
2.85 -0.233025
2.86 -0.230366
2.87 -0.227853
2.88 -0.225432
2.89 -0.223031
2.9 -0.220574
2.91 -0.21799
2.92 -0.215215
2.93 -0.212193
2.94 -0.208879
2.95 -0.205226
2.96 -0.201205
2.97 -0.196843
2.98 -0.192155
2.99 -0.187173
3 -0.181938
3.01 -0.176501
3.02 -0.170911
3.03 -0.165245
3.04 -0.159563
3.05 -0.153918
3.06 -0.148353
3.07 -0.1429
3.08 -0.137583
3.09 -0.132411
3.1 -0.127354
3.11 -0.12238
3.12 -0.117439
3.13 -0.112472
3.14 -0.107403
3.15 -0.102128
3.16 -0.096559
3.17 -0.0906134
3.18 -0.0842062
3.19 -0.077259
3.2 -0.0697035
3.21 -0.0614692
3.22 -0.0524599
3.23 -0.0427221
3.24 -0.0322556
3.25 -0.0210783
3.26 -0.00922538
3.27 0.00325206
3.28 0.016325
3.29 0.0298889
3.3 0.0438357
3.31 0.0580781
3.32 0.0725296
3.33 0.087108
3.34 0.101739
3.35 0.116352
3.36 0.130897
3.37 0.145343
3.38 0.159677
3.39 0.173901
3.4 0.188033
3.41 0.202105
3.42 0.216171
3.43 0.230288
3.44 0.244516
3.45 0.258915
3.46 0.273542
3.47 0.288443
3.48 0.303695
3.49 0.319281
3.5 0.335197
3.51 0.351418
3.52 0.367894
3.53 0.384554
3.54 0.401299
3.55 0.41799
3.56 0.434477
3.57 0.4506
3.58 0.466186
3.59 0.481054
3.6 0.495019
3.61 0.507767
3.62 0.519205
3.63 0.529186
3.64 0.53757
3.65 0.544236
3.66 0.549089
3.67 0.551985
3.68 0.552818
3.69 0.551735
3.7 0.54877
3.71 0.543986
3.72 0.537472
3.73 0.529344
3.74 0.519615
3.75 0.50856
3.76 0.496385
3.77 0.483263
3.78 0.469374
3.79 0.454892
3.8 0.439981
3.81 0.424805
3.82 0.40954
3.83 0.394314
3.84 0.379233
3.85 0.364389
3.86 0.349851
3.87 0.335703
3.88 0.321965
3.89 0.308637
3.9 0.29572
3.91 0.283203
3.92 0.271067
3.93 0.259293
3.94 0.247875
3.95 0.236747
3.96 0.22588
3.97 0.21525
3.98 0.204833
3.99 0.194613
4 0.184589
4.01 0.174751
4.02 0.165087
4.03 0.1556
4.04 0.146294
4.05 0.137174
4.06 0.128247
4.07 0.119537
4.08 0.111025
4.09 0.102707
4.1 0.0945762
4.11 0.0866227
4.12 0.078831
4.13 0.0711898
4.14 0.063673
4.15 0.056249
4.16 0.0488936
4.17 0.0415839
4.18 0.0342999
4.19 0.0270258
4.2 0.0197509
4.21 0.0124732
4.22 0.0051996
4.23 -0.00205452
4.24 -0.00926517
4.25 -0.0164
4.26 -0.0234112
4.27 -0.0302417
4.28 -0.0368476
4.29 -0.0431747
4.3 -0.0491684
4.31 -0.0547763
4.32 -0.0599506
4.33 -0.0645988
4.34 -0.068729
4.35 -0.072331
4.36 -0.0754004
4.37 -0.0779463
4.38 -0.0799925
4.39 -0.081561
4.4 -0.0826954
4.41 -0.083498
4.42 -0.0840449
4.43 -0.0844195
4.44 -0.0847099
4.45 -0.0850055
4.46 -0.0854104
4.47 -0.08601
4.48 -0.0868736
4.49 -0.0880612
4.5 -0.0896189
4.51 -0.0915763
4.52 -0.0939566
4.53 -0.0967758
4.54 -0.0999667
4.55 -0.103482
4.56 -0.107259
4.57 -0.11122
4.58 -0.115276
4.59 -0.119322
4.6 -0.123243
4.61 -0.126938
4.62 -0.130309
4.63 -0.133265
4.64 -0.135727
4.65 -0.137619
4.66 -0.138836
4.67 -0.139411
4.68 -0.139338
4.69 -0.138634
4.7 -0.137333
4.71 -0.135489
4.72 -0.133147
4.73 -0.130416
4.74 -0.127419
4.75 -0.124262
4.76 -0.121058
4.77 -0.117915
4.78 -0.114943
4.79 -0.112278
4.8 -0.109986
4.81 -0.108135
4.82 -0.106781
4.83 -0.105958
4.84 -0.105684
4.85 -0.105989
4.86 -0.106848
4.87 -0.108188
4.88 -0.109953
4.89 -0.112077
4.9 -0.114486
4.91 -0.117096
4.92 -0.11983
4.93 -0.122583
4.94 -0.125279
4.95 -0.127848
4.96 -0.13023
4.97 -0.132379
4.98 -0.134245
4.99 -0.135801
5 -0.137062
5.01 -0.13804
5.02 -0.138756
5.03 -0.139243
5.04 -0.139542
5.05 -0.13969
5.06 -0.139754
5.07 -0.139786
5.08 -0.139833
5.09 -0.139938
5.1 -0.140135
5.11 -0.140456
5.12 -0.140922
5.13 -0.141528
5.14 -0.142264
5.15 -0.143113
5.16 -0.144048
5.17 -0.145034
5.18 -0.146028
5.19 -0.146978
5.2 -0.14784
5.21 -0.148571
5.22 -0.14913
5.23 -0.149485
5.24 -0.149604
5.25 -0.149453
5.26 -0.14905
5.27 -0.148404
5.28 -0.147533
5.29 -0.146463
5.3 -0.14523
5.31 -0.143873
5.32 -0.14245
5.33 -0.141015
5.34 -0.139617
5.35 -0.138301
5.36 -0.137108
5.37 -0.13607
5.38 -0.135227
5.39 -0.134567
5.4 -0.134084
5.41 -0.13376
5.42 -0.133561
5.43 -0.133444
5.44 -0.133352
5.45 -0.133212
5.46 -0.132954
5.47 -0.132505
5.48 -0.131795
5.49 -0.130758
5.5 -0.129333
5.51 -0.127418
5.52 -0.125023
5.53 -0.122133
5.54 -0.118745
5.55 -0.114876
5.56 -0.11056
5.57 -0.105828
5.58 -0.100756
5.59 -0.0954526
5.6 -0.0900086
5.61 -0.0845239
5.62 -0.0791008
5.63 -0.0738415
5.64 -0.0688814
5.65 -0.0642907
5.66 -0.0601406
5.67 -0.0564888
5.68 -0.0533749
5.69 -0.0508184
5.7 -0.0488411
5.71 -0.047429
5.72 -0.0464921
5.73 -0.0459621
5.74 -0.045754
5.75 -0.0457694
5.76 -0.0458996
5.77 -0.0460184
5.78 -0.0459966
5.79 -0.0457224
5.8 -0.0450917
5.81 -0.0440131
5.82 -0.0424106
5.83 -0.0402069
5.84 -0.0373332
5.85 -0.0338327
5.86 -0.0297226
5.87 -0.0250431
5.88 -0.0198563
5.89 -0.0142434
5.9 -0.0082843
5.91 -0.00212374
5.92 0.00410697
5.93 0.0102833
5.94 0.0162824
5.95 0.0219877
5.96 0.0272827
5.97 0.032031
5.98 0.0362057
5.99 0.0397619
6 0.0426786
6.01 0.044959
6.02 0.0466312
6.03 0.0477106
6.04 0.0483023
6.05 0.0485264
6.06 0.0484942
6.07 0.0483272
6.08 0.0481525
6.09 0.0481007
6.1 0.0483334
6.11 0.0489467
6.12 0.0500376
6.13 0.0516848
6.14 0.0539456
6.15 0.0568537
6.16 0.060458
6.17 0.0647275
6.18 0.0695776
6.19 0.0749355
6.2 0.0807075
6.21 0.0867825
6.22 0.0930354
6.23 0.0993208
6.24 0.105482
6.25 0.111381
6.26 0.116887
6.27 0.121882
6.28 0.126259
6.29 0.129894
6.3 0.132707
6.31 0.134711
6.32 0.135897
6.33 0.136282
6.34 0.135908
6.35 0.134836
6.36 0.133095
6.37 0.130857
6.38 0.128241
6.39 0.12537
6.4 0.122369
6.41 0.11936
6.42 0.116468
6.43 0.113821
6.44 0.111495
6.45 0.109562
6.46 0.10807
6.47 0.107049
6.48 0.106504
6.49 0.106463
6.5 0.106848
6.51 0.107592
6.52 0.108621
6.53 0.109849
6.54 0.111183
6.55 0.112521
6.56 0.113747
6.57 0.114768
6.58 0.115497
6.59 0.11586
6.6 0.115796
6.61 0.115261
6.62 0.114185
6.63 0.112587
6.64 0.110497
6.65 0.107947
6.66 0.104985
6.67 0.101671
6.68 0.0980748
6.69 0.0942706
6.7 0.0903707
6.71 0.0864613
6.72 0.0826261
6.73 0.078943
6.74 0.0754812
6.75 0.0723228
6.76 0.0695095
6.77 0.0670553
6.78 0.0649725
6.79 0.0632579
6.8 0.0618941
6.81 0.0608529
6.82 0.0601135
6.83 0.0595881
6.84 0.0592166
6.85 0.0589353
6.86 0.0586797
6.87 0.0583871
6.88 0.0579899
6.89 0.0574303
6.9 0.0566736
6.91 0.05569
6.92 0.0544607
6.93 0.0529788
6.94 0.0512492
6.95 0.0492641
6.96 0.0470792
6.97 0.0447313
6.98 0.0422627
6.99 0.0397194
7 0.0371492
7.01 0.0346025
7.02 0.0321308
7.03 0.0297698
7.04 0.02755
7.05 0.0254934
7.06 0.0236123
7.07 0.0219092
7.08 0.0203924
7.09 0.0190254
7.1 0.0177776
7.11 0.0166133
7.12 0.0154913
7.13 0.0143668
7.14 0.0131897
7.15 0.0119046
7.16 0.0104744
7.17 0.00886316
7.18 0.00704232
7.19 0.00499222
7.2 0.00270333
7.21 0.000156397
7.22 -0.00261626
7.23 -0.00558168
7.24 -0.00870235
7.25 -0.0119314
7.26 -0.0152139
7.27 -0.0184866
7.28 -0.0216708
7.29 -0.0247008
7.3 -0.0275107
7.31 -0.0300375
7.32 -0.0322241
7.33 -0.034021
7.34 -0.0353507
7.35 -0.0362017
7.36 -0.0365758
7.37 -0.036472
7.38 -0.0359024
7.39 -0.0348915
7.4 -0.0334698
7.41 -0.0316625
7.42 -0.0295682
7.43 -0.0272533
7.44 -0.024789
7.45 -0.0222498
7.46 -0.0197106
7.47 -0.0172556
7.48 -0.0149624
7.49 -0.0128901
7.5 -0.0110939
7.51 -0.0096201
7.52 -0.00850516
7.53 -0.00777702
7.54 -0.00749264
7.55 -0.00760919
7.56 -0.00811655
7.57 -0.00899477
7.58 -0.0102151
7.59 -0.0117412
7.6 -0.0135432
7.61 -0.0155659
7.62 -0.0177437
7.63 -0.0200251
7.64 -0.022359
7.65 -0.0246965
7.66 -0.0269922
7.67 -0.0291916
7.68 -0.0312656
7.69 -0.0331871
7.7 -0.0349349
7.71 -0.036495
7.72 -0.03786
7.73 -0.0390201
7.74 -0.0399784
7.75 -0.0407608
7.76 -0.0413844
7.77 -0.0418701
7.78 -0.0422417
7.79 -0.042525
7.8 -0.0427432
7.81 -0.0429315
7.82 -0.0431166
7.83 -0.0433226
7.84 -0.0435712
7.85 -0.043881
7.86 -0.0442703
7.87 -0.0447549
7.88 -0.0453341
7.89 -0.046009
7.9 -0.0467762
7.91 -0.0476278
7.92 -0.0485516
7.93 -0.0495343
7.94 -0.0505494
7.95 -0.0515709
7.96 -0.0525718
7.97 -0.0535231
7.98 -0.0543943
7.99 -0.0551502
8 -0.0557464
8.01 -0.0561637
8.02 -0.0563741
8.03 -0.0563528
8.04 -0.0560784
8.05 -0.0555342
8.06 -0.0546863
8.07 -0.0535411
8.08 -0.0521126
8.09 -0.0504111
8.1 -0.0484543
8.11 -0.0462677
8.12 -0.0438814
8.13 -0.0413269
8.14 -0.0386717
8.15 -0.0359686
8.16 -0.0332749
8.17 -0.030651
8.18 -0.0281587
8.19 -0.0258769
8.2 -0.0238705
8.21 -0.0221845
8.22 -0.0208682
8.23 -0.0199634
8.24 -0.0195026
8.25 -0.0195098
8.26 -0.0200476
8.27 -0.0210571
8.28 -0.0225194
8.29 -0.0244023
8.3 -0.026661
8.31 -0.0292381
8.32 -0.0320748
8.33 -0.0350806
8.34 -0.0381535
8.35 -0.0412011
8.36 -0.0441287
8.37 -0.0468417
8.38 -0.0492483
8.39 -0.0512106
8.4 -0.0526846
8.41 -0.0536092
8.42 -0.0539334
8.43 -0.0536215
8.44 -0.0526539
8.45 -0.0509988
8.46 -0.0486591
8.47 -0.0457188
8.48 -0.0422308
8.49 -0.0382627
8.5 -0.033895
8.51 -0.0292186
8.52 -0.0243219
8.53 -0.0193375
8.54 -0.0143745
8.55 -0.00953605
8.56 -0.00491982
8.57 -0.000615361
8.58 0.00328299
8.59 0.00668076
8.6 0.00956568
8.61 0.0119088
8.62 0.0136986
8.63 0.014941
8.64 0.0156588
8.65 0.0158533
8.66 0.0156143
8.67 0.0150243
8.68 0.0141607
8.69 0.0131065
8.7 0.0119483
8.71 0.0107742
8.72 0.00968238
8.73 0.00874829
8.74 0.00803787
8.75 0.00760554
8.76 0.00749253
8.77 0.00772557
8.78 0.00834318
8.79 0.00932592
8.8 0.0106365
8.81 0.012239
8.82 0.0140855
8.83 0.0161182
8.84 0.0182726
8.85 0.0204745
8.86 0.0226406
8.87 0.0247005
8.88 0.0265881
8.89 0.0282443
8.9 0.029619
8.91 0.0306502
8.92 0.0313132
8.93 0.0316151
8.94 0.0315595
8.95 0.0311635
8.96 0.0304563
8.97 0.0294786
8.98 0.0282616
8.99 0.0268952
9 0.0254428
9.01 0.0239697
9.02 0.0225406
9.03 0.0212168
9.04 0.0200654
9.05 0.0191422
9.06 0.0184719
9.07 0.0180787
9.08 0.0179746
9.09 0.0181593
9.1 0.0186205
9.11 0.0193575
9.12 0.020306
9.13 0.0214183
9.14 0.0226427
9.15 0.0239232
9.16 0.0252023
9.17 0.0264176
9.18 0.0275044
9.19 0.0284203
9.2 0.0291258
9.21 0.0295902
9.22 0.0297935
9.23 0.0297268
9.24 0.0293679
9.25 0.028754
9.26 0.0279176
9.27 0.0268945
9.28 0.0257279
9.29 0.0244666
9.3 0.0231633
9.31 0.0218793
9.32 0.020669
9.33 0.0195798
9.34 0.0186534
9.35 0.0179234
9.36 0.0174143
9.37 0.0171604
9.38 0.0171509
9.39 0.0173669
9.4 0.0177868
9.41 0.0183788
9.42 0.0191029
9.43 0.0199127
9.44 0.0207515
9.45 0.0215572
9.46 0.0222749
9.47 0.0228526
9.48 0.0232429
9.49 0.0234055
9.5 0.0232878
9.51 0.022875
9.52 0.0221716
9.53 0.0211825
9.54 0.0199245
9.55 0.018426
9.56 0.0167244
9.57 0.0148595
9.58 0.0129094
9.59 0.010936
9.6 0.00900338
9.61 0.0071757
9.62 0.00551448
9.63 0.00409342
9.64 0.00296607
9.65 0.00215698
9.66 0.001692
9.67 0.00158465
9.68 0.00183544
9.69 0.00243176
9.7 0.00338081
9.71 0.00460299
9.72 0.00604713
9.73 0.00765426
9.74 0.0093592
9.75 0.011093
9.76 0.0127797
9.77 0.0143389
9.78 0.015711
9.79 0.01684
9.8 0.0176789
9.81 0.0181922
9.82 0.0183563
9.83 0.0181243
9.84 0.017536
9.85 0.0166175
9.86 0.0154029
9.87 0.0139384
9.88 0.0122801
9.89 0.0104901
9.9 0.00864694
9.91 0.00683367
9.92 0.00512406
9.93 0.00358921
9.94 0.00229496
9.95 0.00129957
9.96 0.000687626
9.97 0.000474158
9.98 0.000671487
9.99 0.00128657
10 0.00231241
10.01 0.00372824
10.02 0.00550927
10.03 0.0076204
10.04 0.00997247
10.05 0.0124992
10.06 0.015129
10.07 0.0177868
10.08 0.020397
10.09 0.0228699
10.1 0.0251336
10.11 0.0271311
10.12 0.0288101
10.13 0.0301279
10.14 0.0310536
10.15 0.0315604
10.16 0.0316085
10.17 0.0312475
10.18 0.0304977
10.19 0.0293894
10.2 0.0279623
10.21 0.0262633
10.22 0.024334
10.23 0.0222447
10.24 0.0200637
10.25 0.0178488
10.26 0.0156555
10.27 0.0135349
10.28 0.0115341
10.29 0.00971224
10.3 0.00808462
10.31 0.00667239
10.32 0.00548834
10.33 0.00453708
10.34 0.00381545
10.35 0.00332533
10.36 0.00304617
10.37 0.00294274
10.38 0.00298854
10.39 0.00315469
10.4 0.00341104
10.41 0.00372738
10.42 0.00407477
10.43 0.00442034
10.44 0.00474002
10.45 0.00501315
10.46 0.00522266
10.47 0.00535514
10.48 0.00539625
10.49 0.00533731
10.5 0.00518173
10.51 0.00492929
10.52 0.00458163
10.53 0.00414166
10.54 0.00361306
10.55 0.00299156
10.56 0.00228864
10.57 0.00150878
10.58 0.000654578
10.59 -0.000272036
10.6 -0.00126961
10.61 -0.00233953
10.62 -0.00348305
10.63 -0.00469252
10.64 -0.00596459
10.65 -0.00729417
10.66 -0.00867396
10.67 -0.010094
10.68 -0.0115425
10.69 -0.0129989
10.7 -0.0144425
10.71 -0.0158501
10.72 -0.0171959
10.73 -0.0184519
10.74 -0.0195848
10.75 -0.0205515
10.76 -0.0213342
10.77 -0.0219058
10.78 -0.0222426
10.79 -0.0223248
10.8 -0.022138
10.81 -0.0216519
10.82 -0.0208786
10.83 -0.0198373
10.84 -0.0185452
10.85 -0.0170277
10.86 -0.015318
10.87 -0.0134552
10.88 -0.0114842
10.89 -0.00947337
10.9 -0.0074802
10.91 -0.00556404
10.92 -0.00378444
10.93 -0.00219928
10.94 -0.000883416
10.95 0.000113366
10.96 0.000764132
10.97 0.00103869
10.98 0.000917266
10.99 0.000391436
11 -0.000536989
11.01 -0.00189044
11.02 -0.00359282
11.03 -0.00560167
11.04 -0.00786427
11.05 -0.0103191
11.06 -0.0128973
11.07 -0.0155232
11.08 -0.0181075
11.09 -0.0205703
11.1 -0.0228365
11.11 -0.0248354
11.12 -0.0265029
11.13 -0.027784
11.14 -0.0285823
11.15 -0.0289092
11.16 -0.0287511
11.17 -0.0281052
11.18 -0.0269823
11.19 -0.0254067
11.2 -0.023398
11.21 -0.0210039
11.22 -0.0183135
11.23 -0.0153944
11.24 -0.0123194
11.25 -0.00916433
11.26 -0.00600564
11.27 -0.00293244
11.28 -1.66227e-05
11.29 0.00268035
11.3 0.0051039
11.31 0.00720925
11.32 0.00896249
11.33 0.0103277
11.34 0.011277
11.35 0.0118461
11.36 0.0120509
11.37 0.0119179
11.38 0.0114823
11.39 0.0107869
11.4 0.00986633
11.41 0.00879238
11.42 0.00762535
11.43 0.00641897
11.44 0.00522443
11.45 0.00408871
11.46 0.00305635
11.47 0.00217425
11.48 0.00145634
11.49 0.000917806
11.5 0.000564968
11.51 0.000395413
11.52 0.000398478
11.53 0.000565969
11.54 0.000863242
11.55 0.00125332
11.56 0.00170195
11.57 0.00217315
11.58 0.00263072
11.59 0.00303869
11.6 0.00335414
11.61 0.00355617
11.62 0.00362362
11.63 0.0035416
11.64 0.003302
11.65 0.00290376
11.66 0.0023436
11.67 0.00163939
11.68 0.000819168
11.69 -9.17475e-05
11.7 -0.00106407
11.71 -0.00206574
11.72 -0.00306312
11.73 -0.0040143
11.74 -0.00488852
11.75 -0.00565646
11.76 -0.00629258
11.77 -0.00677607
11.78 -0.00709151
11.79 -0.00721942
11.8 -0.00715565
11.81 -0.00691578
11.82 -0.00651009
11.83 -0.00595414
11.84 -0.00526801
