# xPDFsuite Configuration #
[PDF]
wavelength = 0.1
dataformat = QA
inputfile = BiMsol6_insitu_700 C-00371.xy
backgroundfile = Quartz2mm-dist500-00000.xy
mode = xray
bgscale = 0.0042
composition = Bi2Fe4O9
outputtype = gr
qmaxinst = 24.998449118
qmin = 0.1
qmax = 21.4986662415
rmax = 80.0
rmin = 0.0
rstep = 0.01
rpoly = 0.9

[Misc]
inputdir = C:/Data/Seafile/CPH/Beamtime/Desy Oct 20/In situ data/Processed/BiMsol6/PDF
savedir = C:/Data/Seafile/CPH/Beamtime/Desy Oct 20/In situ data/PDF/BiMsol6
backgroundfilefull = C:/Data/Seafile/CPH/Beamtime/Desy Oct 20/In situ data/Processed/Standard_Empty_Cap/Quartz2mm-dist500-00000.xy

#### start data
#S 1
#L r($\AA$)  G($\AA^{-2}$)
0 0
0.01 0.00640238
0.02 0.012441
0.03 0.0178047
0.04 0.0222143
0.05 0.0254358
0.06 0.0272912
0.07 0.0275859
0.08 0.0262646
0.09 0.0234725
0.1 0.0193297
0.11 0.0140216
0.12 0.00779093
0.13 0.000926767
0.14 -0.00624485
0.15 -0.0133173
0.16 -0.0199471
0.17 -0.0258125
0.18 -0.0306258
0.19 -0.0341477
0.2 -0.0361331
0.21 -0.0364166
0.22 -0.0351022
0.23 -0.0322618
0.24 -0.0280465
0.25 -0.0226817
0.26 -0.0164585
0.27 -0.00971028
0.28 -0.00290792
0.29 0.00352922
0.3 0.0091942
0.31 0.0137014
0.32 0.0167054
0.33 0.0178571
0.34 0.0168167
0.35 0.0136464
0.36 0.00835122
0.37 0.00104333
0.38 -0.00805701
0.39 -0.0186245
0.4 -0.0302798
0.41 -0.0423835
0.42 -0.0543088
0.43 -0.065418
0.44 -0.0750525
0.45 -0.082557
0.46 -0.0872386
0.47 -0.0882034
0.48 -0.085265
0.49 -0.0780656
0.5 -0.0663737
0.51 -0.0500991
0.52 -0.0293026
0.53 -0.00391752
0.54 0.0254814
0.55 0.0581394
0.56 0.0933559
0.57 0.130313
0.58 0.168096
0.59 0.205712
0.6 0.241891
0.61 0.27564
0.62 0.305962
0.63 0.33192
0.64 0.352673
0.65 0.367499
0.66 0.375396
0.67 0.375958
0.68 0.36937
0.69 0.355643
0.7 0.334976
0.71 0.307758
0.72 0.274549
0.73 0.235567
0.74 0.192366
0.75 0.145955
0.76 0.0974031
0.77 0.0478198
0.78 -0.00167685
0.79 -0.0498791
0.8 -0.0955731
0.81 -0.137932
0.82 -0.17616
0.83 -0.209604
0.84 -0.23777
0.85 -0.260336
0.86 -0.276561
0.87 -0.287025
0.88 -0.292049
0.89 -0.292025
0.9 -0.287483
0.91 -0.279063
0.92 -0.267406
0.93 -0.253331
0.94 -0.237898
0.95 -0.22193
0.96 -0.206216
0.97 -0.191488
0.98 -0.178399
0.99 -0.167745
1 -0.159846
1.01 -0.154925
1.02 -0.153131
1.03 -0.154484
1.04 -0.158879
1.05 -0.166169
1.06 -0.176133
1.07 -0.188103
1.08 -0.201604
1.09 -0.21612
1.1 -0.231124
1.11 -0.246095
1.12 -0.260461
1.13 -0.27375
1.14 -0.285621
1.15 -0.295785
1.16 -0.304045
1.17 -0.310288
1.18 -0.314464
1.19 -0.316498
1.2 -0.316762
1.21 -0.315494
1.22 -0.312984
1.23 -0.309559
1.24 -0.30557
1.25 -0.301383
1.26 -0.29739
1.27 -0.293904
1.28 -0.291186
1.29 -0.289438
1.3 -0.288801
1.31 -0.289351
1.32 -0.291201
1.33 -0.294128
1.34 -0.297977
1.35 -0.302536
1.36 -0.30755
1.37 -0.312731
1.38 -0.317746
1.39 -0.322237
1.4 -0.325925
1.41 -0.328546
1.42 -0.329884
1.43 -0.329774
1.44 -0.328113
1.45 -0.324694
1.46 -0.319743
1.47 -0.313396
1.48 -0.305848
1.49 -0.297352
1.5 -0.28821
1.51 -0.278767
1.52 -0.269442
1.53 -0.260626
1.54 -0.252679
1.55 -0.245933
1.56 -0.24068
1.57 -0.23716
1.58 -0.235749
1.59 -0.236381
1.6 -0.239023
1.61 -0.243592
1.62 -0.249926
1.63 -0.257786
1.64 -0.266897
1.65 -0.276876
1.66 -0.287214
1.67 -0.297468
1.68 -0.307188
1.69 -0.315932
1.7 -0.323281
1.71 -0.328665
1.72 -0.331844
1.73 -0.332628
1.74 -0.330857
1.75 -0.326454
1.76 -0.319432
1.77 -0.30983
1.78 -0.297713
1.79 -0.28359
1.8 -0.267806
1.81 -0.250759
1.82 -0.232885
1.83 -0.214644
1.84 -0.196545
1.85 -0.179095
1.86 -0.162707
1.87 -0.147755
1.88 -0.134552
1.89 -0.123346
1.9 -0.114341
1.91 -0.107827
1.92 -0.103563
1.93 -0.101454
1.94 -0.101331
1.95 -0.102956
1.96 -0.106035
1.97 -0.110281
1.98 -0.115248
1.99 -0.120501
2 -0.125658
2.01 -0.13036
2.02 -0.13428
2.03 -0.137134
2.04 -0.138536
2.05 -0.138473
2.06 -0.136879
2.07 -0.13376
2.08 -0.129195
2.09 -0.123334
2.1 -0.116344
2.11 -0.10854
2.12 -0.100309
2.13 -0.0919996
2.14 -0.0839789
2.15 -0.0766126
2.16 -0.070254
2.17 -0.0654079
2.18 -0.0622452
2.19 -0.0609783
2.2 -0.0617696
2.21 -0.0647153
2.22 -0.0698423
2.23 -0.077199
2.24 -0.0867005
2.25 -0.0980022
2.26 -0.110857
2.27 -0.124972
2.28 -0.140019
2.29 -0.155648
2.3 -0.17148
2.31 -0.1871
2.32 -0.202164
2.33 -0.216361
2.34 -0.229418
2.35 -0.241111
2.36 -0.251211
2.37 -0.259517
2.38 -0.266125
2.39 -0.271058
2.4 -0.274398
2.41 -0.276279
2.42 -0.276882
2.43 -0.276355
2.44 -0.275039
2.45 -0.273234
2.46 -0.271213
2.47 -0.269245
2.48 -0.267585
2.49 -0.26648
2.5 -0.266204
2.51 -0.266851
2.52 -0.268529
2.53 -0.271299
2.54 -0.275176
2.55 -0.280131
2.56 -0.286157
2.57 -0.293088
2.58 -0.300731
2.59 -0.308911
2.6 -0.317435
2.61 -0.3261
2.62 -0.334699
2.63 -0.342987
2.64 -0.350792
2.65 -0.357953
2.66 -0.364331
2.67 -0.369815
2.68 -0.374323
2.69 -0.377735
2.7 -0.380044
2.71 -0.381313
2.72 -0.381579
2.73 -0.380896
2.74 -0.379331
2.75 -0.376962
2.76 -0.3738
2.77 -0.370015
2.78 -0.365682
2.79 -0.360865
2.8 -0.355612
2.81 -0.349957
2.82 -0.343893
2.83 -0.337413
2.84 -0.330516
2.85 -0.323162
2.86 -0.3153
2.87 -0.306871
2.88 -0.297808
2.89 -0.287964
2.9 -0.277341
2.91 -0.265894
2.92 -0.253585
2.93 -0.240393
2.94 -0.226315
2.95 -0.211335
2.96 -0.195475
2.97 -0.178869
2.98 -0.161604
2.99 -0.143787
3 -0.125541
3.01 -0.107001
3.02 -0.0883074
3.03 -0.0696344
3.04 -0.0511274
3.05 -0.0329218
3.06 -0.0151415
3.07 0.00210541
3.08 0.0187076
3.09 0.0345546
3.1 0.0496632
3.11 0.0640203
3.12 0.0776367
3.13 0.0905462
3.14 0.102803
3.15 0.114439
3.16 0.125585
3.17 0.136358
3.18 0.146864
3.19 0.157209
3.2 0.167494
3.21 0.177816
3.22 0.188274
3.23 0.198926
3.24 0.209816
3.25 0.220968
3.26 0.232386
3.27 0.244053
3.28 0.255944
3.29 0.267985
3.3 0.280094
3.31 0.292181
3.32 0.304152
3.33 0.315902
3.34 0.327325
3.35 0.338267
3.36 0.348669
3.37 0.358448
3.38 0.367533
3.39 0.375867
3.4 0.38341
3.41 0.390087
3.42 0.3959
3.43 0.400911
3.44 0.405151
3.45 0.408664
3.46 0.411511
3.47 0.413757
3.48 0.415427
3.49 0.416669
3.5 0.417565
3.51 0.418198
3.52 0.418644
3.53 0.418979
3.54 0.41927
3.55 0.419584
3.56 0.419976
3.57 0.420486
3.58 0.421149
3.59 0.421993
3.6 0.42304
3.61 0.424329
3.62 0.425856
3.63 0.427625
3.64 0.429647
3.65 0.431929
3.66 0.434479
3.67 0.437318
3.68 0.440468
3.69 0.443917
3.7 0.447674
3.71 0.451747
3.72 0.456143
3.73 0.460861
3.74 0.465926
3.75 0.471301
3.76 0.476954
3.77 0.482852
3.78 0.48895
3.79 0.49519
3.8 0.501502
3.81 0.50779
3.82 0.51395
3.83 0.519877
3.84 0.525452
3.85 0.530552
3.86 0.53505
3.87 0.538744
3.88 0.541523
3.89 0.543291
3.9 0.543929
3.91 0.543332
3.92 0.541405
3.93 0.538042
3.94 0.533056
3.95 0.526545
3.96 0.518489
3.97 0.508883
3.98 0.497742
3.99 0.485098
4 0.470899
4.01 0.455255
4.02 0.438311
4.03 0.420153
4.04 0.400874
4.05 0.380572
4.06 0.359343
4.07 0.337215
4.08 0.314386
4.09 0.290951
4.1 0.267001
4.11 0.242621
4.12 0.217894
4.13 0.192882
4.14 0.167668
4.15 0.142333
4.16 0.116941
4.17 0.0915566
4.18 0.0662416
4.19 0.0410609
4.2 0.0161121
4.21 -0.00854929
4.22 -0.0328492
4.23 -0.0567088
4.24 -0.0800456
4.25 -0.102774
4.26 -0.124768
4.27 -0.145911
4.28 -0.166166
4.29 -0.185451
4.3 -0.20369
4.31 -0.220815
4.32 -0.236768
4.33 -0.251379
4.34 -0.264722
4.35 -0.276808
4.36 -0.287643
4.37 -0.297255
4.38 -0.305684
4.39 -0.312954
4.4 -0.319109
4.41 -0.32433
4.42 -0.328722
4.43 -0.332396
4.44 -0.33547
4.45 -0.338062
4.46 -0.340266
4.47 -0.342231
4.48 -0.344065
4.49 -0.345857
4.5 -0.347682
4.51 -0.349597
4.52 -0.351646
4.53 -0.353863
4.54 -0.356232
4.55 -0.358738
4.56 -0.361345
4.57 -0.364007
4.58 -0.366664
4.59 -0.36924
4.6 -0.371657
4.61 -0.373844
4.62 -0.375732
4.63 -0.37726
4.64 -0.378372
4.65 -0.379018
4.66 -0.379129
4.67 -0.378742
4.68 -0.377866
4.69 -0.376525
4.7 -0.37476
4.71 -0.372628
4.72 -0.370181
4.73 -0.367517
4.74 -0.36474
4.75 -0.361942
4.76 -0.359216
4.77 -0.356654
4.78 -0.354343
4.79 -0.352404
4.8 -0.35087
4.81 -0.349791
4.82 -0.349201
4.83 -0.349121
4.84 -0.349555
4.85 -0.350517
4.86 -0.351977
4.87 -0.353864
4.88 -0.356124
4.89 -0.358697
4.9 -0.361518
4.91 -0.364518
4.92 -0.367634
4.93 -0.370781
4.94 -0.373901
4.95 -0.376939
4.96 -0.379852
4.97 -0.382603
4.98 -0.385158
4.99 -0.387492
5 -0.389614
5.01 -0.391523
5.02 -0.393224
5.03 -0.394723
5.04 -0.396028
5.05 -0.397125
5.06 -0.398029
5.07 -0.398733
5.08 -0.399219
5.09 -0.399455
5.1 -0.3994
5.11 -0.398982
5.12 -0.398102
5.13 -0.396704
5.14 -0.394693
5.15 -0.391965
5.16 -0.388408
5.17 -0.383907
5.18 -0.378243
5.19 -0.371353
5.2 -0.363163
5.21 -0.353577
5.22 -0.342513
5.23 -0.329906
5.24 -0.315666
5.25 -0.299655
5.26 -0.282019
5.27 -0.262777
5.28 -0.241972
5.29 -0.219664
5.3 -0.195934
5.31 -0.170786
5.32 -0.1444
5.33 -0.116954
5.34 -0.0885844
5.35 -0.0594298
5.36 -0.0296328
5.37 0.000669738
5.38 0.0313553
5.39 0.0622435
5.4 0.0932097
5.41 0.124138
5.42 0.15492
5.43 0.185457
5.44 0.215628
5.45 0.245342
5.46 0.274538
5.47 0.303138
5.48 0.331068
5.49 0.358248
5.5 0.384597
5.51 0.409914
5.52 0.434201
5.53 0.457354
5.54 0.479263
5.55 0.499808
5.56 0.518861
5.57 0.536191
5.58 0.55163
5.59 0.565139
5.6 0.576584
5.61 0.585834
5.62 0.592769
5.63 0.597282
5.64 0.599004
5.65 0.598112
5.66 0.594588
5.67 0.588421
5.68 0.579626
5.69 0.568248
5.7 0.554257
5.71 0.537708
5.72 0.518922
5.73 0.498065
5.74 0.475323
5.75 0.450902
5.76 0.425023
5.77 0.397818
5.78 0.369645
5.79 0.340763
5.8 0.311399
5.81 0.281773
5.82 0.252091
5.83 0.222552
5.84 0.193359
5.85 0.16464
5.86 0.136514
5.87 0.109077
5.88 0.0824034
5.89 0.0565485
5.9 0.0316242
5.91 0.00760583
5.92 -0.0155259
5.93 -0.0377705
5.94 -0.0591313
5.95 -0.0796112
5.96 -0.0991906
5.97 -0.117796
5.98 -0.135493
5.99 -0.152253
6 -0.168035
6.01 -0.182786
6.02 -0.196441
6.03 -0.208833
6.04 -0.219904
6.05 -0.229616
6.06 -0.237879
6.07 -0.244606
6.08 -0.249717
6.09 -0.253121
6.1 -0.254591
6.11 -0.254275
6.12 -0.252158
6.13 -0.248254
6.14 -0.242596
6.15 -0.235248
6.16 -0.226202
6.17 -0.215608
6.18 -0.203693
6.19 -0.190617
6.2 -0.176559
6.21 -0.161707
6.22 -0.14626
6.23 -0.130396
6.24 -0.114376
6.25 -0.0983904
6.26 -0.0826167
6.27 -0.0672151
6.28 -0.0523259
6.29 -0.0381045
6.3 -0.0246605
6.31 -0.0120094
6.32 -0.000180913
6.33 0.0108223
6.34 0.021023
6.35 0.0304676
6.36 0.0391596
6.37 0.0472604
6.38 0.0548795
6.39 0.0621272
6.4 0.0691186
6.41 0.0759693
6.42 0.0827954
6.43 0.0897192
6.44 0.0968343
6.45 0.104221
6.46 0.111944
6.47 0.120055
6.48 0.128588
6.49 0.137603
6.5 0.147071
6.51 0.156969
6.52 0.167276
6.53 0.177958
6.54 0.18898
6.55 0.200308
6.56 0.21191
6.57 0.223721
6.58 0.235707
6.59 0.247839
6.6 0.260094
6.61 0.272457
6.62 0.284929
6.63 0.297506
6.64 0.31019
6.65 0.322992
6.66 0.335924
6.67 0.349
6.68 0.362232
6.69 0.375637
6.7 0.389195
6.71 0.402889
6.72 0.416691
6.73 0.430559
6.74 0.444436
6.75 0.458236
6.76 0.471858
6.77 0.485197
6.78 0.498131
6.79 0.510525
6.8 0.522237
6.81 0.533106
6.82 0.542861
6.83 0.551438
6.84 0.558686
6.85 0.56446
6.86 0.568623
6.87 0.571052
6.88 0.57152
6.89 0.569938
6.9 0.566341
6.91 0.560686
6.92 0.552948
6.93 0.543125
6.94 0.531236
6.95 0.517091
6.96 0.500984
6.97 0.482997
6.98 0.46322
6.99 0.441757
7 0.41872
7.01 0.394161
7.02 0.3682
7.03 0.341061
7.04 0.31287
7.05 0.283751
7.06 0.253828
7.07 0.223218
7.08 0.191989
7.09 0.160313
7.1 0.1283
7.11 0.096051
7.12 0.0636607
7.13 0.0312217
7.14 -0.00117074
7.15 -0.0334115
7.16 -0.0654184
7.17 -0.0971058
7.18 -0.128388
7.19 -0.159179
7.2 -0.189394
7.21 -0.218878
7.22 -0.247582
7.23 -0.27544
7.24 -0.302371
7.25 -0.328299
7.26 -0.353152
7.27 -0.376829
7.28 -0.39919
7.29 -0.420289
7.3 -0.440084
7.31 -0.458543
7.32 -0.475646
7.33 -0.491381
7.34 -0.505638
7.35 -0.518491
7.36 -0.530011
7.37 -0.54023
7.38 -0.549185
7.39 -0.556922
7.4 -0.563475
7.41 -0.568812
7.42 -0.57311
7.43 -0.576428
7.44 -0.578827
7.45 -0.580366
7.46 -0.581103
7.47 -0.581043
7.48 -0.58026
7.49 -0.578835
7.5 -0.576809
7.51 -0.574219
7.52 -0.571097
7.53 -0.567468
7.54 -0.563308
7.55 -0.558693
7.56 -0.553639
7.57 -0.548161
7.58 -0.542271
7.59 -0.535979
7.6 -0.529273
7.61 -0.522161
7.62 -0.514672
7.63 -0.506811
7.64 -0.498584
7.65 -0.489993
7.66 -0.481042
7.67 -0.471691
7.68 -0.461978
7.69 -0.451905
7.7 -0.44147
7.71 -0.43067
7.72 -0.419505
7.73 -0.407955
7.74 -0.396013
7.75 -0.383707
7.76 -0.371044
7.77 -0.358035
7.78 -0.344697
7.79 -0.331053
7.8 -0.317109
7.81 -0.302933
7.82 -0.288579
7.83 -0.274106
7.84 -0.259582
7.85 -0.245082
7.86 -0.2307
7.87 -0.21655
7.88 -0.202719
7.89 -0.189311
7.9 -0.176429
7.91 -0.164176
7.92 -0.152652
7.93 -0.142032
7.94 -0.132361
7.95 -0.123689
7.96 -0.116074
7.97 -0.109563
7.98 -0.104184
7.99 -0.0999763
8 -0.0970065
8.01 -0.0951405
8.02 -0.0943322
8.03 -0.0945197
8.04 -0.0956273
8.05 -0.0975669
8.06 -0.100291
8.07 -0.103651
8.08 -0.107512
8.09 -0.111767
8.1 -0.116312
8.11 -0.121051
8.12 -0.125896
8.13 -0.130765
8.14 -0.135591
8.15 -0.140329
8.16 -0.144949
8.17 -0.149438
8.18 -0.153794
8.19 -0.158024
8.2 -0.162155
8.21 -0.166227
8.22 -0.170273
8.23 -0.174331
8.24 -0.178433
8.25 -0.182605
8.26 -0.186875
8.27 -0.191232
8.28 -0.195661
8.29 -0.200125
8.3 -0.204571
8.31 -0.208924
8.32 -0.213072
8.33 -0.216881
8.34 -0.220229
8.35 -0.22297
8.36 -0.224945
8.37 -0.225992
8.38 -0.225946
8.39 -0.224492
8.4 -0.22159
8.41 -0.217113
8.42 -0.210942
8.43 -0.202979
8.44 -0.193153
8.45 -0.181333
8.46 -0.167456
8.47 -0.151683
8.48 -0.134069
8.49 -0.114698
8.5 -0.0936788
8.51 -0.071147
8.52 -0.0471399
8.53 -0.0219569
8.54 0.00419332
8.55 0.0311229
8.56 0.0586445
8.57 0.0865762
8.58 0.114748
8.59 0.142988
8.6 0.171144
8.61 0.199104
8.62 0.226779
8.63 0.254102
8.64 0.281031
8.65 0.30751
8.66 0.333568
8.67 0.359237
8.68 0.384554
8.69 0.409561
8.7 0.434304
8.71 0.458826
8.72 0.483156
8.73 0.507339
8.74 0.531385
8.75 0.555282
8.76 0.578998
8.77 0.602475
8.78 0.625598
8.79 0.648251
8.8 0.670309
8.81 0.69161
8.82 0.711975
8.83 0.731209
8.84 0.749088
8.85 0.765231
8.86 0.779571
8.87 0.791904
8.88 0.802038
8.89 0.809797
8.9 0.815027
8.91 0.817419
8.92 0.816897
8.93 0.813539
8.94 0.807317
8.95 0.798236
8.96 0.786333
8.97 0.771672
8.98 0.75406
8.99 0.733942
9 0.711466
9.01 0.686799
9.02 0.660119
9.03 0.63161
9.04 0.601387
9.05 0.569651
9.06 0.536689
9.07 0.502676
9.08 0.467775
9.09 0.432141
9.1 0.395914
9.11 0.359183
9.12 0.322119
9.13 0.284826
9.14 0.247397
9.15 0.209917
9.16 0.172469
9.17 0.13514
9.18 0.0980307
9.19 0.0612197
9.2 0.0248011
9.21 -0.011122
9.22 -0.0464365
9.23 -0.0810186
9.24 -0.114637
9.25 -0.147192
9.26 -0.178548
9.27 -0.208543
9.28 -0.237011
9.29 -0.263786
9.3 -0.288639
9.31 -0.311284
9.32 -0.331738
9.33 -0.34987
9.34 -0.365567
9.35 -0.378734
9.36 -0.389302
9.37 -0.396996
9.38 -0.401937
9.39 -0.40422
9.4 -0.403883
9.41 -0.400985
9.42 -0.395608
9.43 -0.38781
9.44 -0.377557
9.45 -0.365212
9.46 -0.350922
9.47 -0.334841
9.48 -0.317125
9.49 -0.297929
9.5 -0.27732
9.51 -0.255505
9.52 -0.232677
9.53 -0.208965
9.54 -0.184488
9.55 -0.159353
9.56 -0.133657
9.57 -0.107455
9.58 -0.0808882
9.59 -0.0540348
9.6 -0.0269718
9.61 0.000224281
9.62 0.0274743
9.63 0.0546871
9.64 0.0817587
9.65 0.108592
9.66 0.135079
9.67 0.161102
9.68 0.186537
9.69 0.211249
9.7 0.234983
9.71 0.25768
9.72 0.279196
9.73 0.299387
9.74 0.318116
9.75 0.335254
9.76 0.35059
9.77 0.363984
9.78 0.375471
9.79 0.384995
9.8 0.39252
9.81 0.398039
9.82 0.401566
9.83 0.402945
9.84 0.402431
9.85 0.400141
9.86 0.396187
9.87 0.390697
9.88 0.383811
9.89 0.375638
9.9 0.366315
9.91 0.356092
9.92 0.345119
9.93 0.333542
9.94 0.321493
9.95 0.30909
9.96 0.29642
9.97 0.283592
9.98 0.270671
9.99 0.257698
10 0.244696
10.01 0.231673
10.02 0.218618
10.03 0.205504
10.04 0.192303
10.05 0.178979
10.06 0.165494
10.07 0.151813
10.08 0.137906
10.09 0.123729
10.1 0.109281
10.11 0.0945775
10.12 0.0796355
10.13 0.0644884
10.14 0.0491836
10.15 0.0337821
10.16 0.018366
10.17 0.0030298
10.18 -0.0121337
10.19 -0.0270276
10.2 -0.0415543
10.21 -0.0556186
10.22 -0.0690857
10.23 -0.0818794
10.24 -0.0939602
10.25 -0.105277
10.26 -0.115796
10.27 -0.1255
10.28 -0.134385
10.29 -0.14239
10.3 -0.149648
10.31 -0.156213
10.32 -0.162153
10.33 -0.16755
10.34 -0.172489
10.35 -0.177047
10.36 -0.181333
10.37 -0.185457
10.38 -0.189505
10.39 -0.193552
10.4 -0.197666
10.41 -0.201899
10.42 -0.206313
10.43 -0.210916
10.44 -0.215713
10.45 -0.220697
10.46 -0.225849
10.47 -0.231137
10.48 -0.236524
10.49 -0.241956
10.5 -0.247376
10.51 -0.252732
10.52 -0.257973
10.53 -0.263054
10.54 -0.267936
10.55 -0.272563
10.56 -0.276934
10.57 -0.281045
10.58 -0.2849
10.59 -0.288515
10.6 -0.291914
10.61 -0.295127
10.62 -0.298193
10.63 -0.301175
10.64 -0.30412
10.65 -0.307077
10.66 -0.310091
10.67 -0.313203
10.68 -0.31646
10.69 -0.319878
10.7 -0.323464
10.71 -0.327219
10.72 -0.331129
10.73 -0.335171
10.74 -0.339312
10.75 -0.343504
10.76 -0.347686
10.77 -0.351801
10.78 -0.355789
10.79 -0.359589
10.8 -0.363146
10.81 -0.36638
10.82 -0.369256
10.83 -0.371756
10.84 -0.373861
10.85 -0.375565
10.86 -0.376878
10.87 -0.377815
10.88 -0.378389
10.89 -0.378686
10.9 -0.378765
10.91 -0.378692
10.92 -0.378535
10.93 -0.378366
10.94 -0.378262
10.95 -0.378293
10.96 -0.378508
10.97 -0.378948
10.98 -0.379637
10.99 -0.380585
11 -0.381786
11.01 -0.383232
11.02 -0.384844
11.03 -0.386555
11.04 -0.388282
11.05 -0.389927
11.06 -0.391384
11.07 -0.392511
11.08 -0.393168
11.09 -0.393255
11.1 -0.392656
11.11 -0.391267
11.12 -0.388992
11.13 -0.385752
11.14 -0.38137
11.15 -0.375912
11.16 -0.369375
11.17 -0.36177
11.18 -0.353133
11.19 -0.343521
11.2 -0.332975
11.21 -0.321589
11.22 -0.309541
11.23 -0.296959
11.24 -0.283975
11.25 -0.270727
11.26 -0.257351
11.27 -0.24399
11.28 -0.230777
11.29 -0.217815
11.3 -0.205193
11.31 -0.19298
11.32 -0.181223
11.33 -0.169968
11.34 -0.159237
11.35 -0.148969
11.36 -0.139121
11.37 -0.129633
11.38 -0.120428
11.39 -0.111418
11.4 -0.102507
11.41 -0.0935734
11.42 -0.0845114
11.43 -0.0752211
11.44 -0.0656089
11.45 -0.0555908
11.46 -0.0450822
11.47 -0.0339836
11.48 -0.0223038
11.49 -0.010023
11.5 0.0028614
11.51 0.0163355
11.52 0.0303699
11.53 0.044957
11.54 0.0600133
11.55 0.0754523
11.56 0.0912019
11.57 0.107187
11.58 0.123334
11.59 0.139569
11.6 0.155821
11.61 0.172025
11.62 0.188133
11.63 0.204109
11.64 0.219927
11.65 0.235573
11.66 0.251034
11.67 0.266323
11.68 0.281466
11.69 0.296487
11.7 0.311414
11.71 0.326278
11.72 0.341104
11.73 0.35592
11.74 0.370743
11.75 0.385581
11.76 0.400428
11.77 0.415267
11.78 0.430065
11.79 0.444768
11.8 0.459303
11.81 0.473597
11.82 0.487557
11.83 0.501082
11.84 0.514058
11.85 0.526367
11.86 0.537786
11.87 0.548256
11.88 0.557661
11.89 0.565884
11.9 0.572816
11.91 0.578357
11.92 0.582353
11.93 0.584678
11.94 0.585391
11.95 0.584457
11.96 0.581861
11.97 0.577606
11.98 0.571709
11.99 0.564058
12 0.554834
12.01 0.544138
12.02 0.53205
12.03 0.518659
12.04 0.504062
12.05 0.488329
12.06 0.471527
12.07 0.453854
12.08 0.435417
12.09 0.416319
12.1 0.396662
12.11 0.376541
12.12 0.356026
12.13 0.335236
12.14 0.314263
12.15 0.293188
12.16 0.272085
12.17 0.251028
12.18 0.230092
12.19 0.209371
12.2 0.188923
12.21 0.168818
12.22 0.14913
12.23 0.129932
12.24 0.1113
12.25 0.0933631
12.26 0.0761896
