# xPDFsuite Configuration #
[PDF]
wavelength = 0.1
dataformat = QA
inputfile = BiMsol6_insitu_700 C-00451.xy
backgroundfile = Quartz2mm-dist500-00000.xy
mode = xray
bgscale = 0.0042
composition = Bi2Fe4O9
outputtype = gr
qmaxinst = 24.998449118
qmin = 0.1
qmax = 21.4986662415
rmax = 80.0
rmin = 0.0
rstep = 0.01
rpoly = 0.9

[Misc]
inputdir = C:/Data/Seafile/CPH/Beamtime/Desy Oct 20/In situ data/Processed/BiMsol6/PDF
savedir = C:/Data/Seafile/CPH/Beamtime/Desy Oct 20/In situ data/PDF/BiMsol6
backgroundfilefull = C:/Data/Seafile/CPH/Beamtime/Desy Oct 20/In situ data/Processed/Standard_Empty_Cap/Quartz2mm-dist500-00000.xy

#### start data
#S 1
#L r($\AA$)  G($\AA^{-2}$)
0 0
0.01 0.00628314
0.02 0.0122121
0.03 0.0174836
0.04 0.0218256
0.05 0.0250095
0.06 0.0268609
0.07 0.0271889
0.08 0.0259371
0.09 0.0232452
0.1 0.0192275
0.11 0.0140622
0.12 0.0079831
0.13 0.00126928
0.14 -0.00576597
0.15 -0.0127262
0.16 -0.0192773
0.17 -0.0251055
0.18 -0.0299291
0.19 -0.0335126
0.2 -0.0356138
0.21 -0.0360665
0.22 -0.0349646
0.23 -0.0323713
0.24 -0.0284261
0.25 -0.0233404
0.26 -0.0173897
0.27 -0.0108868
0.28 -0.00428495
0.29 0.00201227
0.3 0.00761282
0.31 0.0121436
0.32 0.0152685
0.33 0.0166472
0.34 0.0159459
0.35 0.0132125
0.36 0.00844174
0.37 0.00172987
0.38 -0.0067235
0.39 -0.0166183
0.4 -0.0276072
0.41 -0.0390873
0.42 -0.050466
0.43 -0.0611407
0.44 -0.0704866
0.45 -0.0778806
0.46 -0.0826629
0.47 -0.0839835
0.48 -0.0816515
0.49 -0.0753176
0.5 -0.0647512
0.51 -0.0498542
0.52 -0.0306708
0.53 -0.0071215
0.54 0.0202648
0.55 0.0507862
0.56 0.0837925
0.57 0.118521
0.58 0.154117
0.59 0.189649
0.6 0.223934
0.61 0.256025
0.62 0.28498
0.63 0.309911
0.64 0.330019
0.65 0.344614
0.66 0.352742
0.67 0.354006
0.68 0.348561
0.69 0.336399
0.7 0.317692
0.71 0.292785
0.72 0.262188
0.73 0.226077
0.74 0.185903
0.75 0.142598
0.76 0.0971536
0.77 0.0505995
0.78 0.00397673
0.79 -0.0415959
0.8 -0.0849855
0.81 -0.125405
0.82 -0.162106
0.83 -0.194468
0.84 -0.222018
0.85 -0.244442
0.86 -0.261038
0.87 -0.272319
0.88 -0.278563
0.89 -0.280113
0.9 -0.277441
0.91 -0.271119
0.92 -0.261717
0.93 -0.249968
0.94 -0.236843
0.95 -0.223086
0.96 -0.209412
0.97 -0.196485
0.98 -0.184899
0.99 -0.175364
1 -0.168183
1.01 -0.163565
1.02 -0.161651
1.03 -0.162462
1.04 -0.165913
1.05 -0.171877
1.06 -0.180159
1.07 -0.190178
1.08 -0.201517
1.09 -0.213727
1.1 -0.226351
1.11 -0.238937
1.12 -0.250991
1.13 -0.262112
1.14 -0.272014
1.15 -0.280458
1.16 -0.287287
1.17 -0.292419
1.18 -0.295828
1.19 -0.297474
1.2 -0.297689
1.21 -0.296691
1.22 -0.294743
1.23 -0.292134
1.24 -0.28917
1.25 -0.286174
1.26 -0.283472
1.27 -0.281313
1.28 -0.279902
1.29 -0.279389
1.3 -0.279866
1.31 -0.281364
1.32 -0.283937
1.33 -0.287356
1.34 -0.291451
1.35 -0.296006
1.36 -0.300769
1.37 -0.305465
1.38 -0.309772
1.39 -0.313368
1.4 -0.316022
1.41 -0.317514
1.42 -0.317669
1.43 -0.316368
1.44 -0.313552
1.45 -0.309069
1.46 -0.303177
1.47 -0.296042
1.48 -0.287882
1.49 -0.278965
1.5 -0.269603
1.51 -0.260147
1.52 -0.251011
1.53 -0.24255
1.54 -0.235098
1.55 -0.228956
1.56 -0.224381
1.57 -0.22157
1.58 -0.220854
1.59 -0.222121
1.6 -0.225299
1.61 -0.230271
1.62 -0.236841
1.63 -0.244747
1.64 -0.253688
1.65 -0.263259
1.66 -0.272968
1.67 -0.28238
1.68 -0.29106
1.69 -0.298588
1.7 -0.304574
1.71 -0.308475
1.72 -0.310098
1.73 -0.309297
1.74 -0.305951
1.75 -0.300024
1.76 -0.291563
1.77 -0.280641
1.78 -0.267363
1.79 -0.252242
1.8 -0.235635
1.81 -0.21794
1.82 -0.199589
1.83 -0.181025
1.84 -0.162746
1.85 -0.145221
1.86 -0.128822
1.87 -0.113883
1.88 -0.10068
1.89 -0.0894176
1.9 -0.0802584
1.91 -0.0734387
1.92 -0.068698
1.93 -0.0659165
1.94 -0.0649073
1.95 -0.0654254
1.96 -0.0671787
1.97 -0.0698777
1.98 -0.073107
1.99 -0.0764732
2 -0.0796386
2.01 -0.0822926
2.02 -0.0841643
2.03 -0.0850289
2.04 -0.0845863
2.05 -0.0828791
2.06 -0.0799015
2.07 -0.0757179
2.08 -0.0704599
2.09 -0.0643215
2.1 -0.0575324
2.11 -0.0504352
2.12 -0.0433976
2.13 -0.0367677
2.14 -0.0308953
2.15 -0.0261189
2.16 -0.022752
2.17 -0.021281
2.18 -0.0217735
2.19 -0.0243698
2.2 -0.0291576
2.21 -0.036155
2.22 -0.04531
2.23 -0.0565852
2.24 -0.0698067
2.25 -0.0845713
2.26 -0.100574
2.27 -0.117471
2.28 -0.134899
2.29 -0.152479
2.3 -0.169777
2.31 -0.186414
2.32 -0.202069
2.33 -0.216458
2.34 -0.229345
2.35 -0.240551
2.36 -0.249894
2.37 -0.257232
2.38 -0.262743
2.39 -0.266516
2.4 -0.268694
2.41 -0.26947
2.42 -0.269079
2.43 -0.267731
2.44 -0.265801
2.45 -0.263608
2.46 -0.261441
2.47 -0.259573
2.48 -0.258251
2.49 -0.257711
2.5 -0.258209
2.51 -0.259783
2.52 -0.262497
2.53 -0.266363
2.54 -0.271346
2.55 -0.277362
2.56 -0.284345
2.57 -0.292076
2.58 -0.300324
2.59 -0.308876
2.6 -0.317513
2.61 -0.326012
2.62 -0.334154
2.63 -0.341668
2.64 -0.348426
2.65 -0.354292
2.66 -0.35916
2.67 -0.362961
2.68 -0.365663
2.69 -0.367199
2.7 -0.367631
2.71 -0.367093
2.72 -0.365682
2.73 -0.363516
2.74 -0.360726
2.75 -0.357448
2.76 -0.353793
2.77 -0.349941
2.78 -0.346006
2.79 -0.342084
2.8 -0.338248
2.81 -0.334551
2.82 -0.331027
2.83 -0.327674
2.84 -0.324454
2.85 -0.321317
2.86 -0.318197
2.87 -0.315014
2.88 -0.31168
2.89 -0.308066
2.9 -0.304096
2.91 -0.299692
2.92 -0.29478
2.93 -0.289303
2.94 -0.283221
2.95 -0.276484
2.96 -0.269073
2.97 -0.261054
2.98 -0.252465
2.99 -0.243357
3 -0.233792
3.01 -0.22384
3.02 -0.213549
3.03 -0.203019
3.04 -0.192318
3.05 -0.181496
3.06 -0.170586
3.07 -0.159606
3.08 -0.14855
3.09 -0.137382
3.1 -0.126058
3.11 -0.11451
3.12 -0.102652
3.13 -0.0903851
3.14 -0.0776019
3.15 -0.064128
3.16 -0.0498735
3.17 -0.0347591
3.18 -0.0186992
3.19 -0.00162757
3.2 0.0164975
3.21 0.0357113
3.22 0.0560677
3.23 0.0774027
3.24 0.0996198
3.25 0.122589
3.26 0.146148
3.27 0.170105
3.28 0.194239
3.29 0.218274
3.3 0.241951
3.31 0.265013
3.32 0.287203
3.33 0.308276
3.34 0.327985
3.35 0.345947
3.36 0.362138
3.37 0.376421
3.38 0.388695
3.39 0.398897
3.4 0.407008
3.41 0.412923
3.42 0.416733
3.43 0.418658
3.44 0.418836
3.45 0.417432
3.46 0.414632
3.47 0.410638
3.48 0.405575
3.49 0.399788
3.5 0.393489
3.51 0.386876
3.52 0.380135
3.53 0.37343
3.54 0.36692
3.55 0.360742
3.56 0.354967
3.57 0.349654
3.58 0.34484
3.59 0.340537
3.6 0.336736
3.61 0.333462
3.62 0.330627
3.63 0.328179
3.64 0.326068
3.65 0.324245
3.66 0.322665
3.67 0.321297
3.68 0.320117
3.69 0.319099
3.7 0.318243
3.71 0.317563
3.72 0.317086
3.73 0.31685
3.74 0.316935
3.75 0.317381
3.76 0.318242
3.77 0.319575
3.78 0.321436
3.79 0.323875
3.8 0.32695
3.81 0.33073
3.82 0.335168
3.83 0.340259
3.84 0.34598
3.85 0.352292
3.86 0.359138
3.87 0.36648
3.88 0.374199
3.89 0.38218
3.9 0.390319
3.91 0.398504
3.92 0.406626
3.93 0.414566
3.94 0.422182
3.95 0.429396
3.96 0.43612
3.97 0.442274
3.98 0.447793
3.99 0.452625
4 0.456674
4.01 0.459928
4.02 0.462408
4.03 0.464107
4.04 0.46503
4.05 0.465183
4.06 0.464574
4.07 0.463141
4.08 0.46098
4.09 0.4581
4.1 0.454509
4.11 0.450206
4.12 0.445188
4.13 0.439402
4.14 0.432833
4.15 0.425504
4.16 0.417393
4.17 0.408479
4.18 0.398741
4.19 0.388162
4.2 0.376632
4.21 0.36424
4.22 0.350997
4.23 0.336919
4.24 0.322032
4.25 0.306378
4.26 0.289974
4.27 0.272881
4.28 0.255222
4.29 0.23708
4.3 0.218541
4.31 0.199699
4.32 0.180644
4.33 0.161465
4.34 0.142265
4.35 0.123123
4.36 0.104105
4.37 0.0852657
4.38 0.066645
4.39 0.0482802
4.4 0.0301937
4.41 0.0123601
4.42 -0.00523886
4.43 -0.0226328
4.44 -0.0398599
4.45 -0.0569649
4.46 -0.0739934
4.47 -0.0910034
4.48 -0.10804
4.49 -0.125139
4.5 -0.142327
4.51 -0.159615
4.52 -0.177006
4.53 -0.19448
4.54 -0.211988
4.55 -0.229474
4.56 -0.246861
4.57 -0.264061
4.58 -0.280972
4.59 -0.297437
4.6 -0.31334
4.61 -0.328571
4.62 -0.34301
4.63 -0.356543
4.64 -0.369062
4.65 -0.380459
4.66 -0.390552
4.67 -0.399406
4.68 -0.406995
4.69 -0.41332
4.7 -0.418403
4.71 -0.422295
4.72 -0.424997
4.73 -0.426644
4.74 -0.427409
4.75 -0.427426
4.76 -0.42684
4.77 -0.425803
4.78 -0.424471
4.79 -0.423001
4.8 -0.421568
4.81 -0.420305
4.82 -0.419333
4.83 -0.418753
4.84 -0.418646
4.85 -0.419104
4.86 -0.420165
4.87 -0.421804
4.88 -0.424003
4.89 -0.426723
4.9 -0.429908
4.91 -0.433483
4.92 -0.437383
4.93 -0.441466
4.94 -0.445624
4.95 -0.449746
4.96 -0.453726
4.97 -0.457459
4.98 -0.460827
4.99 -0.463719
5 -0.466088
5.01 -0.467872
5.02 -0.469022
5.03 -0.469505
5.04 -0.469298
5.05 -0.46832
5.06 -0.466631
5.07 -0.464255
5.08 -0.461207
5.09 -0.457509
5.1 -0.453184
5.11 -0.448235
5.12 -0.442659
5.13 -0.436522
5.14 -0.429838
5.15 -0.422613
5.16 -0.414849
5.17 -0.406543
5.18 -0.397638
5.19 -0.388151
5.2 -0.378081
5.21 -0.367413
5.22 -0.356128
5.23 -0.344213
5.24 -0.33164
5.25 -0.318358
5.26 -0.304428
5.27 -0.28986
5.28 -0.274671
5.29 -0.258887
5.3 -0.242543
5.31 -0.225644
5.32 -0.208268
5.33 -0.190493
5.34 -0.172382
5.35 -0.154003
5.36 -0.135422
5.37 -0.11671
5.38 -0.0979378
5.39 -0.0791835
5.4 -0.0605099
5.41 -0.0419757
5.42 -0.0236349
5.43 -0.00553701
5.44 0.0122514
5.45 0.0296887
5.46 0.0467537
5.47 0.0634125
5.48 0.0796323
5.49 0.0953806
5.5 0.110623
5.51 0.125258
5.52 0.139305
5.53 0.152721
5.54 0.165458
5.55 0.177466
5.56 0.188688
5.57 0.199017
5.58 0.208377
5.59 0.216762
5.6 0.224114
5.61 0.230378
5.62 0.235507
5.63 0.239461
5.64 0.242079
5.65 0.243466
5.66 0.243633
5.67 0.242599
5.68 0.240397
5.69 0.237077
5.7 0.232665
5.71 0.227231
5.72 0.220952
5.73 0.213939
5.74 0.206315
5.75 0.198209
5.76 0.189752
5.77 0.181067
5.78 0.17231
5.79 0.163604
5.8 0.155055
5.81 0.146755
5.82 0.13878
5.83 0.131202
5.84 0.124083
5.85 0.117405
5.86 0.111161
5.87 0.105329
5.88 0.0998697
5.89 0.0947301
5.9 0.0898637
5.91 0.0851772
5.92 0.0805903
5.93 0.0760323
5.94 0.0714387
5.95 0.0667542
5.96 0.0619332
5.97 0.0569365
5.98 0.0517747
5.99 0.0464645
6 0.0410433
6.01 0.0355683
6.02 0.0301157
6.03 0.0247954
6.04 0.0197277
6.05 0.0150273
6.06 0.0108199
6.07 0.00723202
6.08 0.00438692
6.09 0.00240993
6.1 0.00150489
6.11 0.00165761
6.12 0.00292524
6.13 0.00533992
6.14 0.00890658
6.15 0.0136016
6.16 0.0194357
6.17 0.0262996
6.18 0.0340211
6.19 0.0424615
6.2 0.0514615
6.21 0.0608458
6.22 0.0704277
6.23 0.079992
6.24 0.0893269
6.25 0.0982455
6.26 0.106572
6.27 0.114147
6.28 0.120831
6.29 0.126451
6.3 0.130899
6.31 0.13419
6.32 0.136303
6.33 0.13725
6.34 0.137069
6.35 0.135828
6.36 0.133526
6.37 0.130383
6.38 0.126541
6.39 0.122143
6.4 0.117339
6.41 0.112281
6.42 0.107117
6.43 0.102006
6.44 0.097079
6.45 0.0924441
6.46 0.0881908
6.47 0.0843884
6.48 0.0810852
6.49 0.0783584
6.5 0.0761731
6.51 0.074499
6.52 0.0733013
6.53 0.072531
6.54 0.0721284
6.55 0.0720333
6.56 0.0721774
6.57 0.0724646
6.58 0.0728277
6.59 0.0732057
6.6 0.0735473
6.61 0.0738118
6.62 0.0739613
6.63 0.073987
6.64 0.073895
6.65 0.0737005
6.66 0.0734304
6.67 0.0731212
6.68 0.0728185
6.69 0.0725832
6.7 0.0724665
6.71 0.0725202
6.72 0.072793
6.73 0.0733274
6.74 0.074158
6.75 0.075334
6.76 0.0768602
6.77 0.0787202
6.78 0.0809
6.79 0.0833736
6.8 0.0861038
6.81 0.0890449
6.82 0.0921497
6.83 0.0953338
6.84 0.0985315
6.85 0.101676
6.86 0.104704
6.87 0.107552
6.88 0.11015
6.89 0.112446
6.9 0.114419
6.91 0.116045
6.92 0.117312
6.93 0.118218
6.94 0.118775
6.95 0.118967
6.96 0.118865
6.97 0.118509
6.98 0.117941
6.99 0.117209
7 0.116359
7.01 0.115439
7.02 0.114497
7.03 0.113574
7.04 0.112704
7.05 0.111908
7.06 0.111203
7.07 0.110596
7.08 0.110096
7.09 0.109681
7.1 0.109333
7.11 0.109028
7.12 0.108738
7.13 0.108434
7.14 0.108082
7.15 0.107643
7.16 0.107094
7.17 0.106412
7.18 0.105578
7.19 0.104581
7.2 0.103413
7.21 0.10206
7.22 0.100542
7.23 0.0988757
7.24 0.0970796
7.25 0.0951741
7.26 0.0931817
7.27 0.0911235
7.28 0.0890198
7.29 0.0868918
7.3 0.0847499
7.31 0.0825978
7.32 0.0804309
7.33 0.0782364
7.34 0.075985
7.35 0.0736417
7.36 0.0711655
7.37 0.0685056
7.38 0.0656047
7.39 0.0624002
7.4 0.0588188
7.41 0.054749
7.42 0.0501639
7.43 0.0450025
7.44 0.0392102
7.45 0.0327408
7.46 0.0255586
7.47 0.0175877
7.48 0.00883598
7.49 -0.000653269
7.5 -0.0108562
7.51 -0.021734
7.52 -0.0332331
7.53 -0.0452886
7.54 -0.0578593
7.55 -0.0707914
7.56 -0.0839823
7.57 -0.0973233
7.58 -0.110701
7.59 -0.124002
7.6 -0.137093
7.61 -0.149847
7.62 -0.162171
7.63 -0.173969
7.64 -0.185154
7.65 -0.195646
7.66 -0.205381
7.67 -0.214208
7.68 -0.222169
7.69 -0.229242
7.7 -0.235412
7.71 -0.240672
7.72 -0.24503
7.73 -0.248457
7.74 -0.250963
7.75 -0.25264
7.76 -0.253523
7.77 -0.253653
7.78 -0.253074
7.79 -0.251833
7.8 -0.24992
7.81 -0.247441
7.82 -0.244457
7.83 -0.241016
7.84 -0.237169
7.85 -0.232967
7.86 -0.228448
7.87 -0.22366
7.88 -0.218675
7.89 -0.213545
7.9 -0.208318
7.91 -0.203044
7.92 -0.197771
7.93 -0.192558
7.94 -0.187451
7.95 -0.182495
7.96 -0.177729
7.97 -0.173193
7.98 -0.16892
7.99 -0.164947
8 -0.16132
8.01 -0.15803
8.02 -0.155085
8.03 -0.152488
8.04 -0.150237
8.05 -0.14832
8.06 -0.146746
8.07 -0.145475
8.08 -0.144469
8.09 -0.143696
8.1 -0.143122
8.11 -0.142711
8.12 -0.142431
8.13 -0.142249
8.14 -0.142121
8.15 -0.142018
8.16 -0.141915
8.17 -0.141791
8.18 -0.141629
8.19 -0.141415
8.2 -0.14114
8.21 -0.140806
8.22 -0.140413
8.23 -0.139965
8.24 -0.139463
8.25 -0.138912
8.26 -0.138307
8.27 -0.13765
8.28 -0.136934
8.29 -0.136145
8.3 -0.135262
8.31 -0.134257
8.32 -0.133085
8.33 -0.131693
8.34 -0.130038
8.35 -0.128063
8.36 -0.125705
8.37 -0.122897
8.38 -0.119572
8.39 -0.115589
8.4 -0.110939
8.41 -0.105568
8.42 -0.0994259
8.43 -0.0924717
8.44 -0.0846771
8.45 -0.075988
8.46 -0.0663833
8.47 -0.0559438
8.48 -0.0447048
8.49 -0.0327167
8.5 -0.0200451
8.51 -0.00676912
8.52 0.00706081
8.53 0.0212904
8.54 0.0358009
8.55 0.050479
8.56 0.065211
8.57 0.0798849
8.58 0.0943848
8.59 0.108587
8.6 0.12242
8.61 0.135813
8.62 0.148706
8.63 0.161058
8.64 0.172842
8.65 0.183997
8.66 0.194564
8.67 0.204581
8.68 0.214081
8.69 0.223109
8.7 0.231712
8.71 0.239937
8.72 0.247821
8.73 0.255448
8.74 0.262862
8.75 0.270098
8.76 0.27718
8.77 0.284117
8.78 0.290892
8.79 0.297485
8.8 0.303863
8.81 0.309967
8.82 0.31573
8.83 0.321067
8.84 0.325878
8.85 0.32999
8.86 0.333351
8.87 0.335852
8.88 0.337387
8.89 0.337854
8.9 0.337161
8.91 0.33514
8.92 0.331732
8.93 0.326957
8.94 0.320785
8.95 0.313207
8.96 0.304233
8.97 0.29389
8.98 0.282083
8.99 0.269037
9 0.254837
9.01 0.239578
9.02 0.223366
9.03 0.206316
9.04 0.188512
9.05 0.170086
9.06 0.1512
9.07 0.131968
9.08 0.112496
9.09 0.0928835
9.1 0.0732212
9.11 0.0535998
9.12 0.0340916
9.13 0.0147533
9.14 -0.00436712
9.15 -0.02323
9.16 -0.0418027
9.17 -0.060043
9.18 -0.0779133
9.19 -0.0954156
9.2 -0.112528
9.21 -0.129225
9.22 -0.14548
9.23 -0.16126
9.24 -0.176475
9.25 -0.191111
9.26 -0.20513
9.27 -0.218474
9.28 -0.231083
9.29 -0.242891
9.3 -0.253801
9.31 -0.263687
9.32 -0.272558
9.33 -0.280352
9.34 -0.287013
9.35 -0.29249
9.36 -0.296744
9.37 -0.299635
9.38 -0.301209
9.39 -0.301503
9.4 -0.300524
9.41 -0.298291
9.42 -0.294835
9.43 -0.290174
9.44 -0.284279
9.45 -0.277324
9.46 -0.269375
9.47 -0.2605
9.48 -0.250771
9.49 -0.240258
9.5 -0.228984
9.51 -0.217043
9.52 -0.204528
9.53 -0.191491
9.54 -0.17798
9.55 -0.164036
9.56 -0.14969
9.57 -0.134936
9.58 -0.119836
9.59 -0.104408
9.6 -0.0886648
9.61 -0.072619
9.62 -0.0562825
9.63 -0.0396525
9.64 -0.0227508
9.65 -0.0056142
9.66 0.0117298
9.67 0.0292473
9.68 0.0468977
9.69 0.0646332
9.7 0.0823957
9.71 0.100114
9.72 0.117719
9.73 0.135139
9.74 0.152298
9.75 0.169121
9.76 0.185504
9.77 0.201356
9.78 0.216634
9.79 0.231273
9.8 0.245217
9.81 0.258414
9.82 0.270823
9.83 0.282324
9.84 0.292968
9.85 0.302756
9.86 0.311683
9.87 0.319756
9.88 0.326987
9.89 0.333361
9.9 0.338875
9.91 0.343619
9.92 0.347618
9.93 0.3509
9.94 0.353489
9.95 0.355408
9.96 0.356617
9.97 0.357178
9.98 0.357117
9.99 0.356439
10 0.355148
10.01 0.353243
10.02 0.350705
10.03 0.347494
10.04 0.343663
10.05 0.33921
10.06 0.334141
10.07 0.328463
10.08 0.32219
10.09 0.315299
10.1 0.307851
10.11 0.299903
10.12 0.291501
10.13 0.282701
10.14 0.273561
10.15 0.264146
10.16 0.25452
10.17 0.244784
10.18 0.235014
10.19 0.225286
10.2 0.215673
10.21 0.206244
10.22 0.197083
10.23 0.188247
10.24 0.179767
10.25 0.171678
10.26 0.164004
10.27 0.156756
10.28 0.149939
10.29 0.143587
10.3 0.137631
10.31 0.132042
10.32 0.126784
10.33 0.121817
10.34 0.117095
10.35 0.112581
10.36 0.108218
10.37 0.10395
10.38 0.0997343
10.39 0.0955308
10.4 0.0913049
10.41 0.0870271
10.42 0.0826625
10.43 0.0781994
10.44 0.0736256
10.45 0.0689319
10.46 0.0641127
10.47 0.0591639
10.48 0.0540757
10.49 0.0488409
10.5 0.0434625
10.51 0.0379313
10.52 0.0322342
10.53 0.0263537
10.54 0.0202674
10.55 0.0139211
10.56 0.00729934
10.57 0.000369348
10.58 -0.00690744
10.59 -0.0145707
10.6 -0.0226594
10.61 -0.0312293
10.62 -0.0403371
10.63 -0.0499703
10.64 -0.060145
10.65 -0.0708674
10.66 -0.0821324
10.67 -0.0939228
10.68 -0.106249
10.69 -0.119029
10.7 -0.13219
10.71 -0.14566
10.72 -0.159359
10.73 -0.173196
10.74 -0.187074
10.75 -0.200876
10.76 -0.214497
10.77 -0.227841
10.78 -0.240816
10.79 -0.253336
10.8 -0.265331
10.81 -0.27669
10.82 -0.287391
10.83 -0.297436
10.84 -0.306821
10.85 -0.315559
10.86 -0.323683
10.87 -0.331233
10.88 -0.338239
10.89 -0.344836
10.9 -0.351111
10.91 -0.357158
10.92 -0.363073
10.93 -0.368948
10.94 -0.374883
10.95 -0.380966
10.96 -0.38726
10.97 -0.393813
10.98 -0.400656
10.99 -0.407802
11 -0.415244
11.01 -0.422973
11.02 -0.430902
11.03 -0.438956
11.04 -0.447043
11.05 -0.455057
11.06 -0.46288
11.07 -0.470358
11.08 -0.477341
11.09 -0.483718
11.1 -0.489363
11.11 -0.494159
11.12 -0.498001
11.13 -0.500798
11.14 -0.50235
11.15 -0.502718
11.16 -0.501885
11.17 -0.499846
11.18 -0.496619
11.19 -0.492245
11.2 -0.486732
11.21 -0.480144
11.22 -0.47265
11.23 -0.46435
11.24 -0.455353
11.25 -0.445768
11.26 -0.435705
11.27 -0.425241
11.28 -0.414511
11.29 -0.403603
11.3 -0.392585
11.31 -0.381507
11.32 -0.370406
11.33 -0.359296
11.34 -0.348175
11.35 -0.337021
11.36 -0.325798
11.37 -0.314458
11.38 -0.302943
11.39 -0.291185
11.4 -0.279083
11.41 -0.266575
11.42 -0.253605
11.43 -0.240113
11.44 -0.226047
11.45 -0.211368
11.46 -0.196035
11.47 -0.179992
11.48 -0.163307
11.49 -0.146004
11.5 -0.128124
11.51 -0.10972
11.52 -0.0908575
11.53 -0.0715916
11.54 -0.0520339
11.55 -0.0322911
11.56 -0.0124569
11.57 0.00737541
11.58 0.0271159
11.59 0.046677
11.6 0.0659513
11.61 0.0848954
11.62 0.103457
11.63 0.121597
11.64 0.139288
11.65 0.156514
11.66 0.173242
11.67 0.189489
11.68 0.205295
11.69 0.220686
11.7 0.235688
11.71 0.250333
11.72 0.26465
11.73 0.278635
11.74 0.292345
11.75 0.305795
11.76 0.318989
11.77 0.331923
11.78 0.344584
11.79 0.356927
11.8 0.36891
11.81 0.380503
11.82 0.391653
11.83 0.402298
11.84 0.412372
11.85 0.421806
11.86 0.430446
11.87 0.438287
11.88 0.445272
11.89 0.451343
11.9 0.456448
11.91 0.460544
11.92 0.463551
11.93 0.465412
11.94 0.466193
11.95 0.465894
11.96 0.464522
11.97 0.462094
11.98 0.458633
11.99 0.454075
12 0.448531
12.01 0.442058
12.02 0.43469
12.03 0.426459
12.04 0.417396
12.05 0.407501
12.06 0.396756
12.07 0.385242
12.08 0.372968
12.09 0.359936
12.1 0.346146
12.11 0.331594
12.12 0.316205
12.13 0.300015
12.14 0.283045
12.15 0.265295
12.16 0.246773
12.17 0.227493
12.18 0.207467
12.19 0.186687
12.2 0.165276
12.21 0.143302
12.22 0.12085
12.23 0.0980146
