# xPDFsuite Configuration #
[PDF]
wavelength = 0.1
dataformat = QA
inputfile = BiMsol6_insitu_700 C-00343.xy
backgroundfile = Quartz2mm-dist500-00000.xy
mode = xray
bgscale = 0.0042
composition = Bi2Fe4O9
outputtype = gr
qmaxinst = 24.998449118
qmin = 0.1
qmax = 21.4986662415
rmax = 80.0
rmin = 0.0
rstep = 0.01
rpoly = 0.9

[Misc]
inputdir = C:/Data/Seafile/CPH/Beamtime/Desy Oct 20/In situ data/Processed/BiMsol6/PDF
savedir = C:/Data/Seafile/CPH/Beamtime/Desy Oct 20/In situ data/PDF/BiMsol6
backgroundfilefull = C:/Data/Seafile/CPH/Beamtime/Desy Oct 20/In situ data/Processed/Standard_Empty_Cap/Quartz2mm-dist500-00000.xy

#### start data
#S 1
#L r($\AA$)  G($\AA^{-2}$)
0 0
0.01 0.00696187
0.02 0.0135337
0.03 0.0193815
0.04 0.0242058
0.05 0.0277547
0.06 0.0298361
0.07 0.0302395
0.08 0.0289031
0.09 0.0259802
0.1 0.0215967
0.11 0.0159485
0.12 0.00929284
0.13 0.00193679
0.14 -0.00577513
0.15 -0.0134065
0.16 -0.0205894
0.17 -0.0269784
0.18 -0.0322635
0.19 -0.036185
0.2 -0.0384759
0.21 -0.0389526
0.22 -0.0377174
0.23 -0.0348387
0.24 -0.0304688
0.25 -0.0248387
0.26 -0.0182499
0.27 -0.0110436
0.28 -0.00371705
0.29 0.00328747
0.3 0.00954048
0.31 0.0146331
0.32 0.0181969
0.33 0.0198588
0.34 0.0192528
0.35 0.016429
0.36 0.0113798
0.37 0.00420815
0.38 -0.00487048
0.39 -0.0155314
0.4 -0.0274004
0.41 -0.0398236
0.42 -0.0521585
0.43 -0.0637533
0.44 -0.0739325
0.45 -0.0820233
0.46 -0.0873145
0.47 -0.0888925
0.48 -0.0865522
0.49 -0.0799211
0.5 -0.0687552
0.51 -0.0529547
0.52 -0.0325738
0.53 -0.00753724
0.54 0.0215786
0.55 0.0540136
0.56 0.0890624
0.57 0.1259
0.58 0.163606
0.59 0.201176
0.6 0.237337
0.61 0.271085
0.62 0.301418
0.63 0.327396
0.64 0.348178
0.65 0.363045
0.66 0.370999
0.67 0.371645
0.68 0.365177
0.69 0.351617
0.7 0.331178
0.71 0.304259
0.72 0.271436
0.73 0.232947
0.74 0.190344
0.75 0.144641
0.76 0.0969044
0.77 0.0482411
0.78 -0.000241568
0.79 -0.047348
0.8 -0.0918877
0.81 -0.133065
0.82 -0.170114
0.83 -0.202417
0.84 -0.229515
0.85 -0.251122
0.86 -0.266554
0.87 -0.276416
0.88 -0.281056
0.89 -0.280895
0.9 -0.276479
0.91 -0.268464
0.92 -0.257503
0.93 -0.24442
0.94 -0.230239
0.95 -0.215754
0.96 -0.201722
0.97 -0.188834
0.98 -0.17769
0.99 -0.169035
1 -0.163117
1.01 -0.160098
1.02 -0.160064
1.03 -0.162979
1.04 -0.168683
1.05 -0.176971
1.06 -0.187559
1.07 -0.199779
1.08 -0.213137
1.09 -0.227115
1.1 -0.241193
1.11 -0.25487
1.12 -0.267582
1.13 -0.278923
1.14 -0.288616
1.15 -0.296437
1.16 -0.302254
1.17 -0.306029
1.18 -0.307783
1.19 -0.307531
1.2 -0.305707
1.21 -0.302607
1.22 -0.298572
1.23 -0.293971
1.24 -0.289183
1.25 -0.28462
1.26 -0.280667
1.27 -0.277606
1.28 -0.275672
1.29 -0.275031
1.3 -0.275776
1.31 -0.27793
1.32 -0.281552
1.33 -0.286329
1.34 -0.292037
1.35 -0.298399
1.36 -0.305095
1.37 -0.311782
1.38 -0.318058
1.39 -0.323524
1.4 -0.327886
1.41 -0.330868
1.42 -0.332249
1.43 -0.331876
1.44 -0.329668
1.45 -0.325427
1.46 -0.319451
1.47 -0.31193
1.48 -0.303114
1.49 -0.293312
1.5 -0.282888
1.51 -0.272247
1.52 -0.261873
1.53 -0.252192
1.54 -0.243601
1.55 -0.236458
1.56 -0.231071
1.57 -0.227681
1.58 -0.226684
1.59 -0.227966
1.6 -0.231462
1.61 -0.237047
1.62 -0.244511
1.63 -0.253564
1.64 -0.263874
1.65 -0.27499
1.66 -0.286349
1.67 -0.29746
1.68 -0.307828
1.69 -0.316976
1.7 -0.324456
1.71 -0.329659
1.72 -0.332358
1.73 -0.332379
1.74 -0.329585
1.75 -0.32393
1.76 -0.315465
1.77 -0.304275
1.78 -0.290482
1.79 -0.274663
1.8 -0.257223
1.81 -0.238619
1.82 -0.21934
1.83 -0.199896
1.84 -0.180858
1.85 -0.162762
1.86 -0.146028
1.87 -0.131039
1.88 -0.118107
1.89 -0.107465
1.9 -0.099296
1.91 -0.0938704
1.92 -0.0908759
1.93 -0.0901662
1.94 -0.091516
1.95 -0.0946308
1.96 -0.0991598
1.97 -0.10475
1.98 -0.1109
1.99 -0.117137
2 -0.123046
2.01 -0.128245
2.02 -0.132392
2.03 -0.135199
2.04 -0.136265
2.05 -0.135629
2.06 -0.133258
2.07 -0.129199
2.08 -0.123581
2.09 -0.116605
2.1 -0.108502
2.11 -0.0996508
2.12 -0.0904947
2.13 -0.0814365
2.14 -0.0728882
2.15 -0.0652552
2.16 -0.0589205
2.17 -0.0544441
2.18 -0.0519725
2.19 -0.0517106
2.2 -0.0538039
2.21 -0.0583215
2.22 -0.0652536
2.23 -0.0746097
2.24 -0.0862482
2.25 -0.0997541
2.26 -0.11482
2.27 -0.131094
2.28 -0.148189
2.29 -0.165699
2.3 -0.183174
2.31 -0.20017
2.32 -0.216317
2.33 -0.231285
2.34 -0.24479
2.35 -0.256608
2.36 -0.266513
2.37 -0.274316
2.38 -0.280168
2.39 -0.284133
2.4 -0.286339
2.41 -0.286969
2.42 -0.286255
2.43 -0.2844
2.44 -0.281803
2.45 -0.27881
2.46 -0.275735
2.47 -0.272882
2.48 -0.270531
2.49 -0.268953
2.5 -0.268448
2.51 -0.269089
2.52 -0.270973
2.53 -0.274143
2.54 -0.27859
2.55 -0.284252
2.56 -0.291095
2.57 -0.298903
2.58 -0.30744
2.59 -0.316491
2.6 -0.325826
2.61 -0.335208
2.62 -0.344399
2.63 -0.353112
2.64 -0.361173
2.65 -0.368411
2.66 -0.374686
2.67 -0.379891
2.68 -0.383955
2.69 -0.386766
2.7 -0.388344
2.71 -0.388788
2.72 -0.388163
2.73 -0.386553
2.74 -0.384057
2.75 -0.380782
2.76 -0.376775
2.77 -0.372227
2.78 -0.367231
2.79 -0.361865
2.8 -0.356187
2.81 -0.350233
2.82 -0.344004
2.83 -0.337484
2.84 -0.330651
2.85 -0.323453
2.86 -0.315819
2.87 -0.307669
2.88 -0.298917
2.89 -0.289395
2.9 -0.279082
2.91 -0.267916
2.92 -0.255849
2.93 -0.242848
2.94 -0.228906
2.95 -0.214003
2.96 -0.198167
2.97 -0.181544
2.98 -0.164235
2.99 -0.146365
3 -0.128077
3.01 -0.109525
3.02 -0.0908833
3.03 -0.0723454
3.04 -0.0540773
3.05 -0.0362335
3.06 -0.0189537
3.07 -0.00235813
3.08 0.0134294
3.09 0.0282883
3.1 0.0422538
3.11 0.0553235
3.12 0.0675244
3.13 0.0789122
3.14 0.089568
3.15 0.0995527
3.16 0.109039
3.17 0.118186
3.18 0.127136
3.19 0.136036
3.2 0.145027
3.21 0.154247
3.22 0.163852
3.23 0.173911
3.24 0.184495
3.25 0.195648
3.26 0.207389
3.27 0.21971
3.28 0.232612
3.29 0.246007
3.3 0.259787
3.31 0.273846
3.32 0.288065
3.33 0.302315
3.34 0.316459
3.35 0.330322
3.36 0.343785
3.37 0.356728
3.38 0.369038
3.39 0.38062
3.4 0.391395
3.41 0.401246
3.42 0.410138
3.43 0.418102
3.44 0.425144
3.45 0.431284
3.46 0.436562
3.47 0.441028
3.48 0.444669
3.49 0.447649
3.5 0.450047
3.51 0.451947
3.52 0.453428
3.53 0.454569
3.54 0.455437
3.55 0.456108
3.56 0.456659
3.57 0.457145
3.58 0.457611
3.59 0.458098
3.6 0.458639
3.61 0.45927
3.62 0.460008
3.63 0.460868
3.64 0.461864
3.65 0.463006
3.66 0.464305
3.67 0.465775
3.68 0.467429
3.69 0.469261
3.7 0.471274
3.71 0.473467
3.72 0.475838
3.73 0.47838
3.74 0.481091
3.75 0.483939
3.76 0.486889
3.77 0.489904
3.78 0.492935
3.79 0.495927
3.8 0.498807
3.81 0.501479
3.82 0.503868
3.83 0.505883
3.84 0.507429
3.85 0.508407
3.86 0.508718
3.87 0.508196
3.88 0.506772
3.89 0.504391
3.9 0.500979
3.91 0.496474
3.92 0.490827
3.93 0.483982
3.94 0.475823
3.95 0.466469
3.96 0.455937
3.97 0.444258
3.98 0.431478
3.99 0.417652
4 0.402785
4.01 0.386988
4.02 0.370386
4.03 0.353063
4.04 0.335102
4.05 0.316584
4.06 0.297583
4.07 0.278136
4.08 0.258356
4.09 0.238298
4.1 0.218006
4.11 0.197519
4.12 0.176869
4.13 0.156075
4.14 0.135162
4.15 0.114157
4.16 0.0930789
4.17 0.0719506
4.18 0.0507982
4.19 0.0296542
4.2 0.00856981
4.21 -0.0124048
4.22 -0.0332089
4.23 -0.0537718
4.24 -0.074014
4.25 -0.0938479
4.26 -0.11315
4.27 -0.131795
4.28 -0.149718
4.29 -0.16682
4.3 -0.183008
4.31 -0.198196
4.32 -0.212308
4.33 -0.22516
4.34 -0.236805
4.35 -0.247238
4.36 -0.256455
4.37 -0.264474
4.38 -0.271335
4.39 -0.277056
4.4 -0.281686
4.41 -0.28541
4.42 -0.288338
4.43 -0.290592
4.44 -0.2923
4.45 -0.293592
4.46 -0.294583
4.47 -0.295428
4.48 -0.296246
4.49 -0.297135
4.5 -0.298179
4.51 -0.29944
4.52 -0.300971
4.53 -0.302814
4.54 -0.304941
4.55 -0.307329
4.56 -0.309938
4.57 -0.31271
4.58 -0.315576
4.59 -0.318449
4.6 -0.321232
4.61 -0.323834
4.62 -0.326172
4.63 -0.328164
4.64 -0.32974
4.65 -0.330835
4.66 -0.33136
4.67 -0.331341
4.68 -0.330777
4.69 -0.329685
4.7 -0.328098
4.71 -0.326067
4.72 -0.32364
4.73 -0.320917
4.74 -0.318008
4.75 -0.315011
4.76 -0.312026
4.77 -0.309154
4.78 -0.306493
4.79 -0.304174
4.8 -0.302246
4.81 -0.300774
4.82 -0.299806
4.83 -0.299376
4.84 -0.2995
4.85 -0.300212
4.86 -0.301494
4.87 -0.303282
4.88 -0.305531
4.89 -0.30819
4.9 -0.311197
4.91 -0.314488
4.92 -0.318011
4.93 -0.32167
4.94 -0.3254
4.95 -0.329139
4.96 -0.332836
4.97 -0.336441
4.98 -0.339909
4.99 -0.343199
5 -0.346296
5.01 -0.349183
5.02 -0.351845
5.03 -0.354271
5.04 -0.356449
5.05 -0.358342
5.06 -0.359952
5.07 -0.361265
5.08 -0.362253
5.09 -0.362883
5.1 -0.363111
5.11 -0.36287
5.12 -0.362068
5.13 -0.360678
5.14 -0.358626
5.15 -0.355837
5.16 -0.352235
5.17 -0.347741
5.18 -0.342193
5.19 -0.335572
5.2 -0.327851
5.21 -0.318982
5.22 -0.308932
5.23 -0.297683
5.24 -0.285199
5.25 -0.271415
5.26 -0.256473
5.27 -0.240417
5.28 -0.223307
5.29 -0.205212
5.3 -0.186212
5.31 -0.166336
5.32 -0.145719
5.33 -0.124486
5.34 -0.102729
5.35 -0.0805353
5.36 -0.0579864
5.37 -0.0351547
5.38 -0.0120946
5.39 0.011111
5.4 0.0344157
5.41 0.0577807
5.42 0.0811734
5.43 0.104566
5.44 0.127929
5.45 0.151233
5.46 0.174448
5.47 0.197537
5.48 0.220451
5.49 0.24313
5.5 0.265501
5.51 0.287414
5.52 0.308796
5.53 0.329519
5.54 0.349438
5.55 0.368394
5.56 0.386217
5.57 0.402644
5.58 0.417453
5.59 0.430541
5.6 0.441732
5.61 0.450858
5.62 0.457768
5.63 0.462331
5.64 0.464169
5.65 0.46345
5.66 0.460164
5.67 0.454314
5.68 0.445942
5.69 0.435128
5.7 0.421894
5.71 0.406355
5.72 0.388873
5.73 0.369667
5.74 0.348977
5.75 0.327063
5.76 0.304191
5.77 0.280594
5.78 0.256623
5.79 0.232546
5.8 0.208605
5.81 0.185015
5.82 0.161969
5.83 0.139655
5.84 0.118259
5.85 0.0978048
5.86 0.0783449
5.87 0.0598996
5.88 0.0424592
5.89 0.0259874
5.9 0.0104973
5.91 -0.00414859
5.92 -0.0180682
5.93 -0.0313559
5.94 -0.0441046
5.95 -0.0564006
5.96 -0.0683116
5.97 -0.0798772
5.98 -0.0911641
5.99 -0.102181
6 -0.112911
6.01 -0.123313
6.02 -0.13332
6.03 -0.142801
6.04 -0.151645
6.05 -0.159745
6.06 -0.166963
6.07 -0.173158
6.08 -0.178186
6.09 -0.181899
6.1 -0.184023
6.11 -0.184598
6.12 -0.183548
6.13 -0.180823
6.14 -0.176402
6.15 -0.170297
6.16 -0.162454
6.17 -0.152984
6.18 -0.142092
6.19 -0.129922
6.2 -0.116646
6.21 -0.102454
6.22 -0.0875526
6.23 -0.0721267
6.24 -0.0564749
6.25 -0.0408148
6.26 -0.0253552
6.27 -0.0102904
6.28 0.00420404
6.29 0.0179308
6.3 0.0307397
6.31 0.0425905
6.32 0.0534255
6.33 0.0632184
6.34 0.0719728
6.35 0.0797213
6.36 0.0864315
6.37 0.0922873
6.38 0.0974058
6.39 0.101907
6.4 0.105922
6.41 0.109585
6.42 0.113031
6.43 0.116407
6.44 0.119852
6.45 0.123479
6.46 0.127386
6.47 0.131657
6.48 0.13636
6.49 0.141594
6.5 0.147358
6.51 0.153653
6.52 0.16048
6.53 0.167825
6.54 0.175664
6.55 0.183977
6.56 0.192746
6.57 0.201891
6.58 0.211368
6.59 0.221138
6.6 0.231162
6.61 0.241407
6.62 0.251855
6.63 0.262469
6.64 0.273222
6.65 0.284098
6.66 0.29508
6.67 0.306154
6.68 0.317306
6.69 0.32852
6.7 0.339764
6.71 0.351009
6.72 0.362217
6.73 0.373343
6.74 0.384331
6.75 0.395096
6.76 0.405558
6.77 0.415639
6.78 0.425246
6.79 0.43428
6.8 0.442636
6.81 0.450198
6.82 0.456755
6.83 0.462291
6.84 0.466703
6.85 0.469897
6.86 0.471788
6.87 0.472301
6.88 0.47128
6.89 0.46868
6.9 0.464547
6.91 0.458865
6.92 0.45163
6.93 0.442853
6.94 0.432555
6.95 0.420608
6.96 0.407229
6.97 0.392478
6.98 0.376418
6.99 0.359119
7 0.340652
7.01 0.321042
7.02 0.300359
7.03 0.278753
7.04 0.256297
7.05 0.233067
7.06 0.209136
7.07 0.184574
7.08 0.159403
7.09 0.133752
7.1 0.107698
7.11 0.0813136
7.12 0.0546742
7.13 0.0278563
7.14 0.000939829
7.15 -0.0259793
7.16 -0.052806
7.17 -0.0794479
7.18 -0.105809
7.19 -0.131792
7.2 -0.157297
7.21 -0.18216
7.22 -0.20631
7.23 -0.229665
7.24 -0.252134
7.25 -0.273632
7.26 -0.294079
7.27 -0.313376
7.28 -0.331385
7.29 -0.348166
7.3 -0.363688
7.31 -0.377934
7.32 -0.390901
7.33 -0.4026
7.34 -0.412953
7.35 -0.422059
7.36 -0.430007
7.37 -0.436856
7.38 -0.442666
7.39 -0.447507
7.4 -0.451434
7.41 -0.454462
7.42 -0.45675
7.43 -0.458367
7.44 -0.45938
7.45 -0.459847
7.46 -0.459823
7.47 -0.459326
7.48 -0.458413
7.49 -0.457134
7.5 -0.455513
7.51 -0.453568
7.52 -0.451311
7.53 -0.448747
7.54 -0.445846
7.55 -0.442642
7.56 -0.43913
7.57 -0.435306
7.58 -0.431166
7.59 -0.426705
7.6 -0.421899
7.61 -0.416746
7.62 -0.411263
7.63 -0.405449
7.64 -0.399305
7.65 -0.392832
7.66 -0.386032
7.67 -0.37887
7.68 -0.371383
7.69 -0.363573
7.7 -0.35544
7.71 -0.346985
7.72 -0.338207
7.73 -0.32909
7.74 -0.319628
7.75 -0.309845
7.76 -0.299748
7.77 -0.289343
7.78 -0.278645
7.79 -0.267671
7.8 -0.256426
7.81 -0.244968
7.82 -0.233345
7.83 -0.221608
7.84 -0.209819
7.85 -0.198044
7.86 -0.18637
7.87 -0.174898
7.88 -0.163711
7.89 -0.152902
7.9 -0.142566
7.91 -0.132796
7.92 -0.123684
7.93 -0.115386
7.94 -0.107942
7.95 -0.101391
7.96 -0.0957837
7.97 -0.0911537
7.98 -0.087519
7.99 -0.0849054
8 -0.0833561
8.01 -0.0827416
8.02 -0.0830075
8.03 -0.0840845
8.04 -0.0858909
8.05 -0.0883349
8.06 -0.0913508
8.07 -0.0947994
8.08 -0.0985559
8.09 -0.102519
8.1 -0.106594
8.11 -0.110694
8.12 -0.114744
8.13 -0.118666
8.14 -0.122428
8.15 -0.126003
8.16 -0.129383
8.17 -0.132575
8.18 -0.1356
8.19 -0.138486
8.2 -0.141285
8.21 -0.144056
8.22 -0.146851
8.23 -0.149722
8.24 -0.152715
8.25 -0.155868
8.26 -0.159229
8.27 -0.162783
8.28 -0.166517
8.29 -0.170398
8.3 -0.174371
8.31 -0.178361
8.32 -0.182262
8.33 -0.185936
8.34 -0.189256
8.35 -0.192074
8.36 -0.194235
8.37 -0.195581
8.38 -0.195952
8.39 -0.195057
8.4 -0.192857
8.41 -0.189239
8.42 -0.184101
8.43 -0.177366
8.44 -0.168983
8.45 -0.158855
8.46 -0.146953
8.47 -0.133442
8.48 -0.118398
8.49 -0.101922
8.5 -0.0841408
8.51 -0.0651986
8.52 -0.0451754
8.53 -0.0243426
8.54 -0.00289574
8.55 0.0189896
8.56 0.0411445
8.57 0.0634117
8.58 0.0856443
8.59 0.1077
8.6 0.12949
8.61 0.150948
8.62 0.172032
8.63 0.192726
8.64 0.213039
8.65 0.232971
8.66 0.252602
8.67 0.272006
8.68 0.291257
8.69 0.310432
8.7 0.329606
8.71 0.348848
8.72 0.368228
8.73 0.387769
8.74 0.407481
8.75 0.427348
8.76 0.447325
8.77 0.467341
8.78 0.487279
8.79 0.50699
8.8 0.526317
8.81 0.545077
8.82 0.563071
8.83 0.580089
8.84 0.595893
8.85 0.610109
8.86 0.622654
8.87 0.633331
8.88 0.641961
8.89 0.648386
8.9 0.652479
8.91 0.653978
8.92 0.652848
8.93 0.649196
8.94 0.643038
8.95 0.634424
8.96 0.623436
8.97 0.610183
8.98 0.594576
8.99 0.577037
9 0.557743
9.01 0.536882
9.02 0.514642
9.03 0.491214
9.04 0.466736
9.05 0.441399
9.06 0.41542
9.07 0.388935
9.08 0.362065
9.09 0.334907
9.1 0.30754
9.11 0.280016
9.12 0.252393
9.13 0.2247
9.14 0.196953
9.15 0.169163
9.16 0.141341
9.17 0.113495
9.18 0.0856478
9.19 0.0578299
9.2 0.0300851
9.21 0.00247318
9.22 -0.0249286
9.23 -0.0520244
9.24 -0.0786471
9.25 -0.104678
9.26 -0.129975
9.27 -0.154374
9.28 -0.177702
9.29 -0.199782
9.3 -0.220383
9.31 -0.239222
9.32 -0.256261
9.33 -0.271348
9.34 -0.284354
9.35 -0.295168
9.36 -0.303706
9.37 -0.309708
9.38 -0.313269
9.39 -0.314471
9.4 -0.31335
9.41 -0.309969
9.42 -0.304416
9.43 -0.296762
9.44 -0.28701
9.45 -0.275504
9.46 -0.262405
9.47 -0.247877
9.48 -0.232087
9.49 -0.215202
9.5 -0.197324
9.51 -0.178654
9.52 -0.15937
9.53 -0.139596
9.54 -0.119444
9.55 -0.0990117
9.56 -0.0783812
9.57 -0.0576191
9.58 -0.0368023
9.59 -0.0159804
9.6 0.00480296
9.61 0.0255069
9.62 0.0460913
9.63 0.0665003
9.64 0.0866803
9.65 0.106585
9.66 0.126151
9.67 0.145304
9.68 0.163964
9.69 0.182039
9.7 0.199338
9.71 0.215824
9.72 0.231387
9.73 0.245917
9.74 0.259304
9.75 0.271445
9.76 0.282171
9.77 0.291367
9.78 0.299056
9.79 0.305192
9.8 0.309745
9.81 0.312709
9.82 0.314098
9.83 0.313792
9.84 0.311999
9.85 0.308821
9.86 0.304354
9.87 0.298713
9.88 0.292021
9.89 0.284379
9.9 0.275915
9.91 0.266834
9.92 0.257268
9.93 0.247342
9.94 0.23717
9.95 0.226852
9.96 0.216477
9.97 0.206122
9.98 0.195834
9.99 0.185644
10 0.175565
10.01 0.165593
10.02 0.155714
10.03 0.1459
10.04 0.136107
10.05 0.126292
10.06 0.116412
10.07 0.106425
10.08 0.096296
10.09 0.0859772
10.1 0.0754559
10.11 0.0647318
10.12 0.0538111
10.13 0.0427127
10.14 0.0314682
10.15 0.0201205
10.16 0.00872793
10.17 -0.00263477
10.18 -0.0138963
10.19 -0.0249817
10.2 -0.0358155
10.21 -0.046324
10.22 -0.0564054
10.23 -0.0660006
10.24 -0.0750789
10.25 -0.0836027
10.26 -0.0915476
10.27 -0.098903
10.28 -0.105668
10.29 -0.111806
10.3 -0.117414
10.31 -0.122537
10.32 -0.127229
10.33 -0.13155
10.34 -0.135567
10.35 -0.139336
10.36 -0.142936
10.37 -0.146441
10.38 -0.149907
10.39 -0.153383
10.4 -0.156906
10.41 -0.160505
10.42 -0.164207
10.43 -0.168003
10.44 -0.171885
10.45 -0.175832
10.46 -0.179817
10.47 -0.183804
10.48 -0.187749
10.49 -0.191602
10.5 -0.195323
10.51 -0.198875
10.52 -0.202222
10.53 -0.205336
10.54 -0.2082
10.55 -0.210776
10.56 -0.213091
10.57 -0.215164
10.58 -0.21702
10.59 -0.218693
10.6 -0.220226
10.61 -0.221666
10.62 -0.223074
10.63 -0.224513
10.64 -0.226038
10.65 -0.227702
10.66 -0.22955
10.67 -0.231623
10.68 -0.233975
10.69 -0.236607
10.7 -0.239518
10.71 -0.242698
10.72 -0.246125
10.73 -0.249766
10.74 -0.253579
10.75 -0.257511
10.76 -0.261485
10.77 -0.265434
10.78 -0.26929
10.79 -0.272986
10.8 -0.276457
10.81 -0.27962
10.82 -0.282433
10.83 -0.284871
10.84 -0.286911
10.85 -0.288542
10.86 -0.289768
10.87 -0.290603
10.88 -0.291051
10.89 -0.291198
10.9 -0.291098
10.91 -0.290817
10.92 -0.29042
10.93 -0.28998
10.94 -0.289572
10.95 -0.289269
10.96 -0.289129
10.97 -0.289197
10.98 -0.28951
10.99 -0.290087
11 -0.290936
11.01 -0.292071
11.02 -0.293431
11.03 -0.294966
11.04 -0.296617
11.05 -0.298306
11.06 -0.299948
11.07 -0.301433
11.08 -0.302645
11.09 -0.303489
11.1 -0.303863
11.11 -0.303672
11.12 -0.302826
11.13 -0.301247
11.14 -0.298777
11.15 -0.295447
11.16 -0.291235
11.17 -0.286131
11.18 -0.280144
11.19 -0.273301
11.2 -0.265611
11.21 -0.257128
11.22 -0.247986
11.23 -0.238275
11.24 -0.228092
11.25 -0.217541
11.26 -0.206727
11.27 -0.195752
11.28 -0.184741
11.29 -0.17379
11.3 -0.162985
11.31 -0.1524
11.32 -0.142097
11.33 -0.132136
11.34 -0.122568
11.35 -0.113381
11.36 -0.104573
11.37 -0.0961301
11.38 -0.0880255
11.39 -0.0802211
11.4 -0.0726869
11.41 -0.0653454
11.42 -0.0581287
11.43 -0.0509731
11.44 -0.0438145
11.45 -0.0365904
11.46 -0.0292367
11.47 -0.0216798
11.48 -0.0138851
11.49 -0.00581278
11.5 0.00256943
11.51 0.0112858
11.52 0.0203527
11.53 0.0298066
11.54 0.0396347
11.55 0.049816
11.56 0.0603385
11.57 0.0711859
11.58 0.0823385
11.59 0.0937775
11.6 0.1055
11.61 0.117451
11.62 0.129609
11.63 0.141947
11.64 0.154444
11.65 0.167079
11.66 0.179835
11.67 0.192689
11.68 0.205614
11.69 0.218592
11.7 0.231601
11.71 0.244619
11.72 0.257622
11.73 0.270574
11.74 0.283448
11.75 0.296209
11.76 0.308818
11.77 0.321232
11.78 0.333405
11.79 0.345266
11.8 0.35675
11.81 0.367817
11.82 0.378407
11.83 0.388456
11.84 0.397903
11.85 0.406684
11.86 0.414651
11.87 0.421812
11.88 0.428118
11.89 0.433515
11.9 0.437957
11.91 0.441403
11.92 0.443769
11.93 0.444993
11.94 0.445131
11.95 0.444168
11.96 0.4421
11.97 0.438928
11.98 0.43466
11.99 0.429208
12 0.422681
12.01 0.415131
12.02 0.406592
12.03 0.397106
12.04 0.386718
12.05 0.375452
12.06 0.363329
12.07 0.350481
12.08 0.336967
12.09 0.322855
12.1 0.308212
12.11 0.293107
12.12 0.277586
12.13 0.261754
12.14 0.245697
12.15 0.229493
12.16 0.213217
12.17 0.196946
12.18 0.18076
12.19 0.164757
12.2 0.149001
12.21 0.133564
12.22 0.118515
12.23 0.103921
