# xPDFsuite Configuration #
[PDF]
wavelength = 0.1
dataformat = QA
inputfile = BiMsol6_insitu_700 C-00015.xy
backgroundfile = Quartz2mm-dist500-00000.xy
mode = xray
bgscale = 0.0042
composition = Bi2Fe4O9
outputtype = gr
qmaxinst = 24.998449118
qmin = 0.1
qmax = 21.4986662415
rmax = 80.0
rmin = 0.0
rstep = 0.01
rpoly = 0.9

[Misc]
inputdir = C:/Data/Seafile/CPH/Beamtime/Desy Oct 20/In situ data/Processed/BiMsol6/PDF
savedir = C:/Data/Seafile/CPH/Beamtime/Desy Oct 20/In situ data/PDF/BiMsol6
backgroundfilefull = C:/Data/Seafile/CPH/Beamtime/Desy Oct 20/In situ data/Processed/Standard_Empty_Cap/Quartz2mm-dist500-00000.xy

#### start data
#S 1
#L r($\AA$)  G($\AA^{-2}$)
0 0
0.01 0.0067437
0.02 0.0131115
0.03 0.0187816
0.04 0.0234653
0.05 0.0269197
0.06 0.0289595
0.07 0.0293818
0.08 0.0281265
0.09 0.025341
0.1 0.0211465
0.11 0.0157311
0.12 0.00934257
0.13 0.00227643
0.14 -0.00513584
0.15 -0.0124735
0.16 -0.019382
0.17 -0.0255283
0.18 -0.0306131
0.19 -0.0343857
0.2 -0.0365881
0.21 -0.0370421
0.22 -0.0358453
0.23 -0.0330622
0.24 -0.0288382
0.25 -0.0233947
0.26 -0.0170204
0.27 -0.0100422
0.28 -0.00293813
0.29 0.00386645
0.3 0.00995869
0.31 0.0149453
0.32 0.0184718
0.33 0.0201791
0.34 0.0197152
0.35 0.0171268
0.36 0.0124057
0.37 0.00564991
0.38 -0.00293434
0.39 -0.0130359
0.4 -0.0242961
0.41 -0.0360874
0.42 -0.0477939
0.43 -0.05879
0.44 -0.0684283
0.45 -0.0760635
0.46 -0.0810145
0.47 -0.0824064
0.48 -0.0800447
0.49 -0.0735749
0.5 -0.0627668
0.51 -0.0475292
0.52 -0.0279199
0.53 -0.00387593
0.54 0.0240419
0.55 0.0550971
0.56 0.0886039
0.57 0.123761
0.58 0.159676
0.59 0.195375
0.6 0.229616
0.61 0.261437
0.62 0.28987
0.63 0.314009
0.64 0.333041
0.65 0.346277
0.66 0.352754
0.67 0.352098
0.68 0.344511
0.69 0.330024
0.7 0.308858
0.71 0.281414
0.72 0.248264
0.73 0.209662
0.74 0.167129
0.75 0.121664
0.76 0.0743235
0.77 0.026197
0.78 -0.0216219
0.79 -0.067947
0.8 -0.111601
0.81 -0.151807
0.82 -0.18781
0.83 -0.218997
0.84 -0.244917
0.85 -0.265287
0.86 -0.279418
0.87 -0.287922
0.88 -0.291146
0.89 -0.289509
0.9 -0.283558
0.91 -0.273948
0.92 -0.261333
0.93 -0.246535
0.94 -0.23059
0.95 -0.214301
0.96 -0.198435
0.97 -0.183695
0.98 -0.170701
0.99 -0.160216
1 -0.152511
1.01 -0.147769
1.02 -0.146099
1.03 -0.147485
1.04 -0.151789
1.05 -0.158829
1.06 -0.168349
1.07 -0.179679
1.08 -0.192334
1.09 -0.205799
1.1 -0.219552
1.11 -0.233085
1.12 -0.245835
1.13 -0.257368
1.14 -0.267379
1.15 -0.275618
1.16 -0.281924
1.17 -0.286226
1.18 -0.288514
1.19 -0.288763
1.2 -0.287373
1.21 -0.284613
1.22 -0.280796
1.23 -0.276269
1.24 -0.271393
1.25 -0.266556
1.26 -0.262139
1.27 -0.258433
1.28 -0.255681
1.29 -0.254063
1.3 -0.253689
1.31 -0.254606
1.32 -0.256893
1.33 -0.260282
1.34 -0.264582
1.35 -0.269549
1.36 -0.274899
1.37 -0.280317
1.38 -0.285443
1.39 -0.289904
1.4 -0.293421
1.41 -0.295734
1.42 -0.296632
1.43 -0.295964
1.44 -0.293649
1.45 -0.289497
1.46 -0.283775
1.47 -0.27665
1.48 -0.268348
1.49 -0.259153
1.5 -0.249398
1.51 -0.239459
1.52 -0.229784
1.53 -0.220767
1.54 -0.212776
1.55 -0.206146
1.56 -0.201163
1.57 -0.198051
1.58 -0.197176
1.59 -0.198431
1.6 -0.201749
1.61 -0.207009
1.62 -0.214009
1.63 -0.22247
1.64 -0.232071
1.65 -0.24238
1.66 -0.252861
1.67 -0.263044
1.68 -0.272456
1.69 -0.280638
1.7 -0.287164
1.71 -0.291441
1.72 -0.293254
1.73 -0.292439
1.74 -0.28886
1.75 -0.28247
1.76 -0.273316
1.77 -0.261474
1.78 -0.247048
1.79 -0.230597
1.8 -0.212503
1.81 -0.193197
1.82 -0.173144
1.83 -0.152824
1.84 -0.132773
1.85 -0.113499
1.86 -0.0954047
1.87 -0.0788514
1.88 -0.0641333
1.89 -0.0514698
1.9 -0.0410316
1.91 -0.0330628
1.92 -0.0272804
1.93 -0.0235469
1.94 -0.0216521
1.95 -0.0213222
1.96 -0.022233
1.97 -0.0240556
1.98 -0.0263348
1.99 -0.028645
2 -0.030618
2.01 -0.0319177
2.02 -0.0322537
2.03 -0.0313888
2.04 -0.0289991
2.05 -0.0251582
2.06 -0.0198794
2.07 -0.0132555
2.08 -0.00545632
2.09 0.00327787
2.1 0.0126598
2.11 0.0222769
2.12 0.0316971
2.13 0.0405059
2.14 0.0482876
2.15 0.0546402
2.16 0.0591917
2.17 0.0613507
2.18 0.0610497
2.19 0.0581222
2.2 0.0524638
2.21 0.0440522
2.22 0.0329494
2.23 0.019195
2.24 0.00299568
2.25 -0.0151557
2.26 -0.0348881
2.27 -0.0557845
2.28 -0.0773954
2.29 -0.0992539
2.3 -0.120823
2.31 -0.141618
2.32 -0.161226
2.33 -0.179273
2.34 -0.195441
2.35 -0.209478
2.36 -0.221119
2.37 -0.230137
2.38 -0.236719
2.39 -0.240933
2.4 -0.242916
2.41 -0.24287
2.42 -0.241048
2.43 -0.237652
2.44 -0.233141
2.45 -0.227911
2.46 -0.222317
2.47 -0.216705
2.48 -0.211398
2.49 -0.206708
2.5 -0.202973
2.51 -0.20032
2.52 -0.198882
2.53 -0.198737
2.54 -0.199906
2.55 -0.202354
2.56 -0.206078
2.57 -0.210881
2.58 -0.216536
2.59 -0.222842
2.6 -0.229574
2.61 -0.236504
2.62 -0.243399
2.63 -0.249989
2.64 -0.256086
2.65 -0.261522
2.66 -0.266157
2.67 -0.269889
2.68 -0.272652
2.69 -0.274354
2.7 -0.275023
2.71 -0.274761
2.72 -0.273649
2.73 -0.271788
2.74 -0.269298
2.75 -0.266309
2.76 -0.262931
2.77 -0.25935
2.78 -0.255686
2.79 -0.252046
2.8 -0.248519
2.81 -0.24517
2.82 -0.242055
2.83 -0.239194
2.84 -0.236559
2.85 -0.234119
2.86 -0.23182
2.87 -0.229599
2.88 -0.227378
2.89 -0.225059
2.9 -0.22256
2.91 -0.219809
2.92 -0.216739
2.93 -0.213299
2.94 -0.209455
2.95 -0.205174
2.96 -0.200448
2.97 -0.195337
2.98 -0.189889
2.99 -0.184165
3 -0.178238
3.01 -0.172193
3.02 -0.166122
3.03 -0.160122
3.04 -0.154276
3.05 -0.14865
3.06 -0.143299
3.07 -0.13826
3.08 -0.133556
3.09 -0.129193
3.1 -0.125105
3.11 -0.121234
3.12 -0.117496
3.13 -0.113794
3.14 -0.110013
3.15 -0.105998
3.16 -0.101613
3.17 -0.0967342
3.18 -0.0912359
3.19 -0.0850041
3.2 -0.0779399
3.21 -0.0699441
3.22 -0.0608836
3.23 -0.0508242
3.24 -0.0397696
3.25 -0.0277507
3.26 -0.0148242
3.27 -0.00107085
3.28 0.0134523
3.29 0.0285857
3.3 0.0441656
3.31 0.0600531
3.32 0.076109
3.33 0.0921993
3.34 0.108198
3.35 0.123966
3.36 0.139431
3.37 0.154532
3.38 0.169233
3.39 0.183522
3.4 0.197414
3.41 0.21093
3.42 0.224143
3.43 0.237156
3.44 0.250062
3.45 0.262963
3.46 0.275961
3.47 0.289155
3.48 0.302676
3.49 0.316567
3.5 0.330877
3.51 0.345625
3.52 0.360806
3.53 0.376384
3.54 0.3923
3.55 0.408442
3.56 0.424651
3.57 0.440767
3.58 0.456608
3.59 0.471974
3.6 0.486656
3.61 0.500323
3.62 0.512823
3.63 0.523965
3.64 0.533565
3.65 0.541458
3.66 0.547507
3.67 0.551523
3.68 0.553355
3.69 0.553129
3.7 0.550854
3.71 0.546578
3.72 0.540384
3.73 0.532385
3.74 0.522585
3.75 0.511289
3.76 0.498727
3.77 0.485099
3.78 0.470613
3.79 0.455477
3.8 0.439887
3.81 0.424043
3.82 0.408156
3.83 0.39238
3.84 0.376846
3.85 0.361663
3.86 0.346914
3.87 0.332703
3.88 0.319042
3.89 0.305922
3.9 0.293332
3.91 0.281245
3.92 0.269622
3.93 0.258422
3.94 0.247612
3.95 0.237096
3.96 0.226819
3.97 0.216732
3.98 0.206791
3.99 0.196961
4 0.187221
4.01 0.177551
4.02 0.167944
4.03 0.158402
4.04 0.148937
4.05 0.139565
4.06 0.130307
4.07 0.1212
4.08 0.112255
4.09 0.103488
4.1 0.0949154
4.11 0.0865462
4.12 0.0783842
4.13 0.0704382
4.14 0.0626961
4.15 0.0551301
4.16 0.0477195
4.17 0.0404403
4.18 0.0332672
4.19 0.0261751
4.2 0.0191452
4.21 0.0121515
4.22 0.00518225
4.23 -0.00176645
4.24 -0.00869011
4.25 -0.0155752
4.26 -0.0223941
4.27 -0.0291075
4.28 -0.0356779
4.29 -0.0420575
4.3 -0.0481939
4.31 -0.0540324
4.32 -0.0595187
4.33 -0.0645552
4.34 -0.0691271
4.35 -0.0732048
4.36 -0.0767634
4.37 -0.0797903
4.38 -0.082287
4.39 -0.0842512
4.4 -0.085701
4.41 -0.0867263
4.42 -0.0873904
4.43 -0.0877675
4.44 -0.0879412
4.45 -0.0880017
4.46 -0.088049
4.47 -0.0881884
4.48 -0.0885079
4.49 -0.0890875
4.5 -0.0899959
4.51 -0.0912876
4.52 -0.0930129
4.53 -0.0952195
4.54 -0.0978638
4.55 -0.100921
4.56 -0.104346
4.57 -0.108077
4.58 -0.112036
4.59 -0.116132
4.6 -0.120244
4.61 -0.124256
4.62 -0.128057
4.63 -0.131538
4.64 -0.134598
4.65 -0.137135
4.66 -0.139013
4.67 -0.140232
4.68 -0.140756
4.69 -0.140573
4.7 -0.139693
4.71 -0.138147
4.72 -0.135952
4.73 -0.133209
4.74 -0.130041
4.75 -0.126559
4.76 -0.122881
4.77 -0.119132
4.78 -0.115439
4.79 -0.111962
4.8 -0.108804
4.81 -0.106069
4.82 -0.103846
4.83 -0.102204
4.84 -0.101195
4.85 -0.100886
4.86 -0.101285
4.87 -0.102332
4.88 -0.103987
4.89 -0.106193
4.9 -0.108877
4.91 -0.111953
4.92 -0.115347
4.93 -0.118917
4.94 -0.122558
4.95 -0.126173
4.96 -0.129667
4.97 -0.132958
4.98 -0.135958
4.99 -0.138598
5 -0.140859
5.01 -0.142722
5.02 -0.144183
5.03 -0.145253
5.04 -0.145958
5.05 -0.146309
5.06 -0.146388
5.07 -0.146257
5.08 -0.145976
5.09 -0.145607
5.1 -0.145209
5.11 -0.144839
5.12 -0.144552
5.13 -0.144381
5.14 -0.14435
5.15 -0.14447
5.16 -0.144744
5.17 -0.14516
5.18 -0.145704
5.19 -0.146334
5.2 -0.147006
5.21 -0.147677
5.22 -0.1483
5.23 -0.148827
5.24 -0.149212
5.25 -0.149396
5.26 -0.149365
5.27 -0.149094
5.28 -0.148573
5.29 -0.147798
5.3 -0.146778
5.31 -0.145515
5.32 -0.144049
5.33 -0.142426
5.34 -0.140687
5.35 -0.138877
5.36 -0.137041
5.37 -0.135224
5.38 -0.133478
5.39 -0.131832
5.4 -0.130311
5.41 -0.128931
5.42 -0.127698
5.43 -0.126606
5.44 -0.125645
5.45 -0.124782
5.46 -0.123972
5.47 -0.123171
5.48 -0.122328
5.49 -0.121392
5.5 -0.120308
5.51 -0.118997
5.52 -0.117434
5.53 -0.115581
5.54 -0.113411
5.55 -0.110908
5.56 -0.108067
5.57 -0.104882
5.58 -0.101376
5.59 -0.0976097
5.6 -0.0936298
5.61 -0.0894948
5.62 -0.0852693
5.63 -0.0810225
5.64 -0.0768383
5.65 -0.0727876
5.66 -0.0689334
5.67 -0.0653314
5.68 -0.0620268
5.69 -0.0590523
5.7 -0.056442
5.71 -0.0542076
5.72 -0.0523067
5.73 -0.050707
5.74 -0.049362
5.75 -0.0482126
5.76 -0.0471889
5.77 -0.0462096
5.78 -0.0451788
5.79 -0.0440118
5.8 -0.0426279
5.81 -0.0409524
5.82 -0.0389205
5.83 -0.0364646
5.84 -0.0335216
5.85 -0.0301107
5.86 -0.0262342
5.87 -0.0219132
5.88 -0.0171868
5.89 -0.0121116
5.9 -0.0067426
5.91 -0.00119214
5.92 0.00443522
5.93 0.010038
5.94 0.0155134
5.95 0.0207611
5.96 0.0256782
5.97 0.0301426
5.98 0.0341212
5.99 0.037566
6 0.0404487
6.01 0.0427622
6.02 0.0445209
6.03 0.0457264
6.04 0.0464635
6.05 0.0468341
6.06 0.0469341
6.07 0.0468711
6.08 0.0467613
6.09 0.0467271
6.1 0.0469208
6.11 0.047445
6.12 0.0484019
6.13 0.0498792
6.14 0.0519469
6.15 0.054654
6.16 0.0580692
6.17 0.0621834
6.18 0.0669307
6.19 0.0722568
6.2 0.0780848
6.21 0.0843171
6.22 0.090839
6.23 0.0975243
6.24 0.104202
6.25 0.110729
6.26 0.116963
6.27 0.122767
6.28 0.128014
6.29 0.132553
6.3 0.13627
6.31 0.139142
6.32 0.141129
6.33 0.142212
6.34 0.142401
6.35 0.141729
6.36 0.140179
6.37 0.137917
6.38 0.135055
6.39 0.13171
6.4 0.128009
6.41 0.124086
6.42 0.120078
6.43 0.116136
6.44 0.112387
6.45 0.10894
6.46 0.10589
6.47 0.103311
6.48 0.101261
6.49 0.0998255
6.5 0.0989746
6.51 0.0986791
6.52 0.0989026
6.53 0.0995898
6.54 0.100669
6.55 0.102063
6.56 0.103676
6.57 0.105379
6.58 0.10707
6.59 0.108648
6.6 0.110018
6.61 0.111093
6.62 0.111761
6.63 0.111974
6.64 0.111702
6.65 0.110923
6.66 0.109626
6.67 0.107821
6.68 0.105525
6.69 0.102747
6.7 0.0995893
6.71 0.0961161
6.72 0.0923985
6.73 0.0885123
6.74 0.0845347
6.75 0.0805464
6.76 0.0766301
6.77 0.0728509
6.78 0.0692655
6.79 0.0659211
6.8 0.062854
6.81 0.0600919
6.82 0.0576804
6.83 0.0555854
6.84 0.0537959
6.85 0.0522918
6.86 0.0510448
6.87 0.0500205
6.88 0.0491885
6.89 0.0484988
6.9 0.0478983
6.91 0.0473445
6.92 0.0467973
6.93 0.0462201
6.94 0.0455809
6.95 0.0448401
6.96 0.0439857
6.97 0.0430044
6.98 0.0418882
6.99 0.0406345
7 0.0392456
7.01 0.0377215
7.02 0.0360717
7.03 0.0343167
7.04 0.0324699
7.05 0.030545
7.06 0.028555
7.07 0.026512
7.08 0.0244231
7.09 0.022301
7.1 0.0201524
7.11 0.017981
7.12 0.0157889
7.13 0.0135768
7.14 0.0113434
7.15 0.00908673
7.16 0.00680784
7.17 0.00450686
7.18 0.00218536
7.19 -0.000153234
7.2 -0.00250327
7.21 -0.00485586
7.22 -0.00719818
7.23 -0.00951603
7.24 -0.0117928
7.25 -0.0140099
7.26 -0.016147
7.27 -0.0181793
7.28 -0.0200745
7.29 -0.0218205
7.3 -0.0233971
7.31 -0.0247859
7.32 -0.0259709
7.33 -0.0269391
7.34 -0.0276622
7.35 -0.0281448
7.36 -0.0283947
7.37 -0.0284158
7.38 -0.0282159
7.39 -0.0278071
7.4 -0.027202
7.41 -0.0264076
7.42 -0.0254655
7.43 -0.0243999
7.44 -0.0232369
7.45 -0.0220035
7.46 -0.020727
7.47 -0.0194357
7.48 -0.0181606
7.49 -0.0169277
7.5 -0.0157614
7.51 -0.0146846
7.52 -0.0137183
7.53 -0.0128828
7.54 -0.0122128
7.55 -0.0117087
7.56 -0.0113837
7.57 -0.0112492
7.58 -0.0113148
7.59 -0.0115882
7.6 -0.0120879
7.61 -0.0128179
7.62 -0.0137667
7.63 -0.0149328
7.64 -0.0163121
7.65 -0.0178979
7.66 -0.0196802
7.67 -0.0216645
7.68 -0.0238123
7.69 -0.0261018
7.7 -0.0285084
7.71 -0.0310043
7.72 -0.0335586
7.73 -0.0361372
7.74 -0.0386985
7.75 -0.0412036
7.76 -0.0436147
7.77 -0.0458941
7.78 -0.0480057
7.79 -0.049916
7.8 -0.0515686
7.81 -0.0529556
7.82 -0.0540621
7.83 -0.0548759
7.84 -0.0553916
7.85 -0.0556113
7.86 -0.0555347
7.87 -0.0551708
7.88 -0.0545683
7.89 -0.0537599
7.9 -0.0527832
7.91 -0.0516803
7.92 -0.0504962
7.93 -0.0492782
7.94 -0.04808
7.95 -0.0469459
7.96 -0.0459154
7.97 -0.0450227
7.98 -0.0442953
7.99 -0.0437578
8 -0.0434342
8.01 -0.0433063
8.02 -0.0433636
8.03 -0.0435867
8.04 -0.0439475
8.05 -0.0444105
8.06 -0.044935
8.07 -0.0454657
8.08 -0.0459511
8.09 -0.0463417
8.1 -0.0465903
8.11 -0.0466535
8.12 -0.0464905
8.13 -0.0460471
8.14 -0.0453299
8.15 -0.0443331
8.16 -0.0430621
8.17 -0.0415349
8.18 -0.0397806
8.19 -0.037831
8.2 -0.0357487
8.21 -0.0336036
8.22 -0.0314625
8.23 -0.0293956
8.24 -0.0274739
8.25 -0.0257679
8.26 -0.0243799
8.27 -0.0233392
8.28 -0.0226904
8.29 -0.0224659
8.3 -0.0226839
8.31 -0.023347
8.32 -0.0244647
8.33 -0.0260019
8.34 -0.0278831
8.35 -0.0300443
8.36 -0.0324092
8.37 -0.034891
8.38 -0.0373953
8.39 -0.0398038
8.4 -0.0420139
8.41 -0.0439295
8.42 -0.0454598
8.43 -0.0465239
8.44 -0.0470533
8.45 -0.0469662
8.46 -0.0462071
8.47 -0.0448065
8.48 -0.0427719
8.49 -0.0401301
8.5 -0.036927
8.51 -0.033226
8.52 -0.0290742
8.53 -0.0246096
8.54 -0.0199442
8.55 -0.0151883
8.56 -0.0104542
8.57 -0.00585245
8.58 -0.00150003
8.59 0.00247856
8.6 0.006024
8.61 0.00907129
8.62 0.011573
8.63 0.0135005
8.64 0.0148453
8.65 0.0155711
8.66 0.0157481
8.67 0.015446
8.68 0.0147326
8.69 0.0136882
8.7 0.0124025
8.71 0.0109704
8.72 0.00949956
8.73 0.00809785
8.74 0.00685538
8.75 0.0058532
8.76 0.00516042
8.77 0.00483184
8.78 0.00493845
8.79 0.0054871
8.8 0.00645938
8.81 0.007836
8.82 0.0095811
8.83 0.0116439
8.84 0.0139629
8.85 0.0164711
8.86 0.019061
8.87 0.0216476
8.88 0.0241466
8.89 0.0264772
8.9 0.0285659
8.91 0.0303252
8.92 0.031702
8.93 0.0326793
8.94 0.0332394
8.95 0.0333807
8.96 0.0331178
8.97 0.0324802
8.98 0.0314801
8.99 0.030219
9 0.0287645
9.01 0.0271903
9.02 0.0255731
9.03 0.0239893
9.04 0.0225222
9.05 0.0212497
9.06 0.0202197
9.07 0.0194763
9.08 0.0190498
9.09 0.0189563
9.1 0.019197
9.11 0.0197891
9.12 0.0206681
9.13 0.0217864
9.14 0.0230893
9.15 0.0245138
9.16 0.0259914
9.17 0.027447
9.18 0.0287972
9.19 0.0299784
9.2 0.0309315
9.21 0.0316071
9.22 0.0319668
9.23 0.0319856
9.24 0.0316189
9.25 0.0308995
9.26 0.0298568
9.27 0.0285258
9.28 0.0269538
9.29 0.0251979
9.3 0.0233215
9.31 0.0214019
9.32 0.0195205
9.33 0.0177479
9.34 0.0161503
9.35 0.0147866
9.36 0.0137062
9.37 0.0129763
9.38 0.0126053
9.39 0.012589
9.4 0.0129192
9.41 0.0135731
9.42 0.0145148
9.43 0.0156996
9.44 0.0170745
9.45 0.0185496
9.46 0.020053
9.47 0.0215112
9.48 0.0228523
9.49 0.024009
9.5 0.0248989
9.51 0.0254735
9.52 0.0257083
9.53 0.025581
9.54 0.0250843
9.55 0.024225
9.56 0.0230219
9.57 0.0214859
9.58 0.0197037
9.59 0.0177351
9.6 0.0156475
9.61 0.0135126
9.62 0.0114037
9.63 0.00940363
9.64 0.00758884
9.65 0.00601197
9.66 0.00472162
9.67 0.00375444
9.68 0.00313377
9.69 0.00286864
9.7 0.00299161
9.71 0.00343822
9.72 0.00417102
9.73 0.00514154
9.74 0.00629179
9.75 0.00755666
9.76 0.00886507
9.77 0.010135
9.78 0.0112958
9.79 0.0122843
9.8 0.0130451
9.81 0.0135336
9.82 0.0137172
9.83 0.013543
9.84 0.0130397
9.85 0.0122269
9.86 0.011135
9.87 0.0098081
9.88 0.00830247
9.89 0.00668307
9.9 0.00503371
9.91 0.00344148
9.92 0.00198644
9.93 0.000746207
9.94 -0.000207105
9.95 -0.000809817
9.96 -0.00096796
9.97 -0.000668524
9.98 9.83676e-05
9.99 0.00133574
10 0.00302962
10.01 0.00514922
10.02 0.00765688
10.03 0.0104997
10.04 0.013568
10.05 0.0167754
10.06 0.0200288
10.07 0.0232319
10.08 0.0262884
10.09 0.0290782
10.1 0.0315163
10.11 0.0335374
10.12 0.0350805
10.13 0.0360991
10.14 0.0365632
10.15 0.0364499
10.16 0.0357218
10.17 0.0344621
10.18 0.0327142
10.19 0.0305359
10.2 0.0279972
10.21 0.0251785
10.22 0.0221598
10.23 0.0190507
10.24 0.0159511
10.25 0.01295
10.26 0.0101298
10.27 0.00756457
10.28 0.00531998
10.29 0.00348836
10.3 0.00206506
10.31 0.00106644
10.32 0.000493523
10.33 0.000332356
10.34 0.00055498
10.35 0.00113817
10.36 0.00202011
10.37 0.00311972
10.38 0.00436971
10.39 0.00569995
10.4 0.00704007
10.41 0.00832199
10.42 0.0094621
10.43 0.0104132
10.44 0.0111305
10.45 0.011579
10.46 0.0117346
10.47 0.0115851
10.48 0.011115
10.49 0.0103319
10.5 0.00927922
10.51 0.00798815
10.52 0.00649657
10.53 0.00484732
10.54 0.00308634
10.55 0.00125889
10.56 -0.00057861
10.57 -0.00238263
10.58 -0.00411512
10.59 -0.00574382
10.6 -0.00724318
10.61 -0.00858894
10.62 -0.00976342
10.63 -0.0107772
10.64 -0.0116357
10.65 -0.0123503
10.66 -0.0129371
10.67 -0.0134156
10.68 -0.0138019
10.69 -0.0141268
10.7 -0.0144136
10.71 -0.0146812
10.72 -0.0149449
10.73 -0.0152155
10.74 -0.0154991
10.75 -0.015796
10.76 -0.0160983
10.77 -0.0163943
10.78 -0.0166675
10.79 -0.0168984
10.8 -0.0170648
10.81 -0.0171347
10.82 -0.0170861
10.83 -0.0169021
10.84 -0.016566
10.85 -0.0160661
10.86 -0.0153965
10.87 -0.0145557
10.88 -0.0135405
10.89 -0.0123863
10.9 -0.0111189
10.91 -0.00977108
10.92 -0.00838182
10.93 -0.00699508
10.94 -0.00566528
10.95 -0.00444801
10.96 -0.00338957
10.97 -0.00253658
10.98 -0.00193132
10.99 -0.00160998
11 -0.00160245
11.01 -0.00196474
11.02 -0.00266684
11.03 -0.00370315
11.04 -0.00505646
11.05 -0.00669809
11.06 -0.00858841
11.07 -0.0106857
11.08 -0.0129217
11.09 -0.0152181
11.1 -0.0175037
11.11 -0.0197051
11.12 -0.0217489
11.13 -0.0235646
11.14 -0.0250472
11.15 -0.0261647
11.16 -0.0268725
11.17 -0.0271355
11.18 -0.0269311
11.19 -0.0262503
11.2 -0.0250768
11.21 -0.0234235
11.22 -0.0213592
11.23 -0.0189318
11.24 -0.0161998
11.25 -0.0132304
11.26 -0.0100978
11.27 -0.00688009
11.28 -0.00367354
11.29 -0.000558627
11.3 0.00238925
11.31 0.00510076
11.32 0.00751473
11.33 0.00956607
11.34 0.0111931
11.35 0.0124014
11.36 0.0131804
11.37 0.0135327
11.38 0.0134739
11.39 0.0130315
11.4 0.0122179
11.41 0.0111085
11.42 0.00976999
11.43 0.00826394
11.44 0.00665452
11.45 0.00500624
11.46 0.00338383
11.47 0.00185862
11.48 0.000478152
11.49 -0.000714695
11.5 -0.00168624
11.51 -0.00241285
11.52 -0.00288147
11.53 -0.00307026
11.54 -0.00299983
11.55 -0.00270093
11.56 -0.00220236
11.57 -0.00153999
11.58 -0.000755219
11.59 0.000107139
11.6 0.000996787
11.61 0.0018598
11.62 0.00265165
11.63 0.00333178
11.64 0.00386505
11.65 0.00422305
11.66 0.00437121
11.67 0.00429975
11.68 0.00401757
11.69 0.00353213
11.7 0.00285913
11.71 0.00202182
11.72 0.00104988
11.73 -2.79749e-05
11.74 -0.00115688
11.75 -0.00229464
11.76 -0.00339859
11.77 -0.00442715
11.78 -0.00534134
11.79 -0.00609615
11.8 -0.0066569
11.81 -0.00701146
11.82 -0.00714531
11.83 -0.00705151
