# xPDFsuite Configuration #
[PDF]
wavelength = 0.1
dataformat = QA
inputfile = BiMsol6_insitu_700 C-00666.xy
backgroundfile = Quartz2mm-dist500-00000.xy
mode = xray
bgscale = 0.0042
composition = Bi2Fe4O9
outputtype = gr
qmaxinst = 24.998449118
qmin = 0.1
qmax = 21.4986662415
rmax = 80.0
rmin = 0.0
rstep = 0.01
rpoly = 0.9

[Misc]
inputdir = C:/Data/Seafile/CPH/Beamtime/Desy Oct 20/In situ data/Processed/BiMsol6/PDF
savedir = C:/Data/Seafile/CPH/Beamtime/Desy Oct 20/In situ data/PDF/BiMsol6
backgroundfilefull = C:/Data/Seafile/CPH/Beamtime/Desy Oct 20/In situ data/Processed/Standard_Empty_Cap/Quartz2mm-dist500-00000.xy

#### start data
#S 1
#L r($\AA$)  G($\AA^{-2}$)
0 0
0.01 0.00580641
0.02 0.0112793
0.03 0.0161336
0.04 0.0201133
0.05 0.0230044
0.06 0.0246439
0.07 0.0248544
0.08 0.0235859
0.09 0.0209723
0.1 0.0171249
0.11 0.0122145
0.12 0.00646477
0.13 0.000141521
0.14 -0.00645476
0.15 -0.0129516
0.16 -0.0190343
0.17 -0.0244082
0.18 -0.0288106
0.19 -0.0320233
0.2 -0.0338232
0.21 -0.0340614
0.22 -0.032836
0.23 -0.0302158
0.24 -0.0263425
0.25 -0.0214257
0.26 -0.015735
0.27 -0.00958055
0.28 -0.00339489
0.29 0.00243653
0.3 0.00754016
0.31 0.0115629
0.32 0.0141896
0.33 0.0151022
0.34 0.0139928
0.35 0.0109243
0.36 0.00590727
0.37 -0.000949116
0.38 -0.0094359
0.39 -0.0192475
0.4 -0.0300256
0.41 -0.0411773
0.42 -0.0521223
0.43 -0.0622702
0.44 -0.0710126
0.45 -0.0777455
0.46 -0.081831
0.47 -0.0824456
0.48 -0.0794272
0.49 -0.0724524
0.5 -0.0613163
0.51 -0.045945
0.52 -0.0264056
0.53 -0.00264965
0.54 0.0247793
0.55 0.0551735
0.56 0.0878748
0.57 0.122117
0.58 0.157046
0.59 0.191735
0.6 0.224994
0.61 0.255912
0.62 0.283562
0.63 0.307081
0.64 0.325691
0.65 0.33873
0.66 0.34527
0.67 0.344947
0.68 0.337946
0.69 0.324286
0.7 0.304166
0.71 0.277956
0.72 0.246188
0.73 0.209078
0.74 0.168079
0.75 0.124136
0.76 0.0782508
0.77 0.031461
0.78 -0.0151887
0.79 -0.0605681
0.8 -0.103544
0.81 -0.143351
0.82 -0.179247
0.83 -0.210625
0.84 -0.237027
0.85 -0.258153
0.86 -0.27331
0.87 -0.283045
0.88 -0.287659
0.89 -0.28752
0.9 -0.283124
0.91 -0.275068
0.92 -0.263949
0.93 -0.250531
0.94 -0.235809
0.95 -0.22055
0.96 -0.205493
0.97 -0.191324
0.98 -0.178656
0.99 -0.168233
1 -0.160363
1.01 -0.155258
1.02 -0.153064
1.03 -0.153807
1.04 -0.157395
1.05 -0.163701
1.06 -0.172525
1.07 -0.183251
1.08 -0.195439
1.09 -0.208611
1.1 -0.22228
1.11 -0.235959
1.12 -0.249114
1.13 -0.261301
1.14 -0.272191
1.15 -0.281509
1.16 -0.289057
1.17 -0.29472
1.18 -0.298433
1.19 -0.300109
1.2 -0.30008
1.21 -0.298553
1.22 -0.295783
1.23 -0.292063
1.24 -0.287708
1.25 -0.283044
1.26 -0.278433
1.27 -0.274173
1.28 -0.270511
1.29 -0.267646
1.3 -0.265721
1.31 -0.264826
1.32 -0.265087
1.33 -0.266329
1.34 -0.26844
1.35 -0.271254
1.36 -0.274568
1.37 -0.278148
1.38 -0.281726
1.39 -0.285007
1.4 -0.287746
1.41 -0.289723
1.42 -0.290751
1.43 -0.290687
1.44 -0.289438
1.45 -0.286835
1.46 -0.283043
1.47 -0.278164
1.48 -0.272347
1.49 -0.265788
1.5 -0.258723
1.51 -0.251419
1.52 -0.244202
1.53 -0.237373
1.54 -0.231205
1.55 -0.225951
1.56 -0.221824
1.57 -0.218997
1.58 -0.217732
1.59 -0.217962
1.6 -0.219635
1.61 -0.222662
1.62 -0.226889
1.63 -0.232104
1.64 -0.238062
1.65 -0.244431
1.66 -0.250819
1.67 -0.256873
1.68 -0.262243
1.69 -0.266591
1.7 -0.269607
1.71 -0.270853
1.72 -0.270191
1.73 -0.267521
1.74 -0.262764
1.75 -0.255911
1.76 -0.247023
1.77 -0.236188
1.78 -0.223523
1.79 -0.209465
1.8 -0.194325
1.81 -0.178446
1.82 -0.162192
1.83 -0.145932
1.84 -0.130085
1.85 -0.115021
1.86 -0.101021
1.87 -0.0883365
1.88 -0.0771627
1.89 -0.0676327
1.9 -0.0598392
1.91 -0.0539236
1.92 -0.0496263
1.93 -0.0468038
1.94 -0.0452599
1.95 -0.0447551
1.96 -0.0450176
1.97 -0.0457663
1.98 -0.0466506
1.99 -0.0473612
2 -0.0476336
2.01 -0.0472387
2.02 -0.0459929
2.03 -0.0437635
2.04 -0.0403669
2.05 -0.0359326
2.06 -0.0305424
2.07 -0.0243424
2.08 -0.0175381
2.09 -0.0103871
2.1 -0.00320753
2.11 0.00361157
2.12 0.0097156
2.13 0.0147481
2.14 0.0183648
2.15 0.020247
2.16 0.0201143
2.17 0.0174709
2.18 0.0123715
2.19 0.00474944
2.2 -0.00540527
2.21 -0.0180272
2.22 -0.0329763
2.23 -0.0501245
2.24 -0.0691936
2.25 -0.0896882
2.26 -0.111219
2.27 -0.133364
2.28 -0.155688
2.29 -0.17775
2.3 -0.19901
2.31 -0.219082
2.32 -0.237625
2.33 -0.254334
2.34 -0.268967
2.35 -0.28135
2.36 -0.291295
2.37 -0.298664
2.38 -0.303716
2.39 -0.30658
2.4 -0.307449
2.41 -0.306571
2.42 -0.304236
2.43 -0.300701
2.44 -0.29642
2.45 -0.291781
2.46 -0.287131
2.47 -0.282796
2.48 -0.279075
2.49 -0.276254
2.5 -0.274643
2.51 -0.274301
2.52 -0.275316
2.53 -0.277719
2.54 -0.281485
2.55 -0.286536
2.56 -0.292818
2.57 -0.300092
2.58 -0.308102
2.59 -0.316615
2.6 -0.325385
2.61 -0.334162
2.62 -0.342697
2.63 -0.350693
2.64 -0.35798
2.65 -0.36439
2.66 -0.369791
2.67 -0.374088
2.68 -0.377229
2.69 -0.379124
2.7 -0.379825
2.71 -0.379462
2.72 -0.378135
2.73 -0.37597
2.74 -0.373107
2.75 -0.369702
2.76 -0.365888
2.77 -0.36188
2.78 -0.357824
2.79 -0.35385
2.8 -0.350072
2.81 -0.346578
2.82 -0.343455
2.83 -0.340747
2.84 -0.338438
2.85 -0.336512
2.86 -0.33493
2.87 -0.333636
2.88 -0.332559
2.89 -0.331625
2.9 -0.330724
2.91 -0.32977
2.92 -0.328678
2.93 -0.327372
2.94 -0.325786
2.95 -0.323848
2.96 -0.321499
2.97 -0.31874
2.98 -0.315554
2.99 -0.311937
3 -0.30789
3.01 -0.303421
3.02 -0.298496
3.03 -0.29315
3.04 -0.287389
3.05 -0.281198
3.06 -0.274549
3.07 -0.2674
3.08 -0.259672
3.09 -0.251244
3.1 -0.242067
3.11 -0.232033
3.12 -0.221022
3.13 -0.208905
3.14 -0.195554
3.15 -0.180713
3.16 -0.16432
3.17 -0.146318
3.18 -0.126624
3.19 -0.105182
3.2 -0.0819661
3.21 -0.0569479
3.22 -0.0300545
3.23 -0.00155117
3.24 0.0284261
3.25 0.0597024
3.26 0.0920655
3.27 0.125269
3.28 0.159057
3.29 0.193067
3.3 0.226955
3.31 0.260391
3.32 0.293045
3.33 0.324589
3.34 0.354696
3.35 0.382873
3.36 0.409023
3.37 0.432921
3.38 0.454382
3.39 0.473261
3.4 0.489456
3.41 0.502736
3.42 0.513112
3.43 0.52077
3.44 0.525784
3.45 0.528262
3.46 0.528337
3.47 0.526169
3.48 0.521717
3.49 0.515422
3.5 0.507482
3.51 0.498088
3.52 0.487428
3.53 0.475678
3.54 0.462963
3.55 0.449438
3.56 0.435289
3.57 0.420624
3.58 0.405534
3.59 0.390094
3.6 0.374366
3.61 0.358382
3.62 0.342212
3.63 0.325896
3.64 0.309475
3.65 0.292993
3.66 0.276498
3.67 0.260056
3.68 0.243752
3.69 0.227668
3.7 0.211905
3.71 0.196576
3.72 0.181804
3.73 0.167723
3.74 0.154569
3.75 0.142446
3.76 0.131481
3.77 0.121819
3.78 0.113596
3.79 0.106937
3.8 0.102005
3.81 0.0990063
3.82 0.0978586
3.83 0.0986056
3.84 0.101266
3.85 0.105835
3.86 0.11228
3.87 0.120692
3.88 0.13089
3.89 0.142709
3.9 0.156028
3.91 0.170711
3.92 0.186612
3.93 0.203592
3.94 0.221544
3.95 0.240206
3.96 0.259421
3.97 0.279034
3.98 0.298901
3.99 0.318883
4 0.338842
4.01 0.358647
4.02 0.378195
4.03 0.39739
4.04 0.416146
4.05 0.434384
4.06 0.452029
4.07 0.468936
4.08 0.48511
4.09 0.500488
4.1 0.515008
4.11 0.528607
4.12 0.541221
4.13 0.552716
4.14 0.563017
4.15 0.572116
4.16 0.579942
4.17 0.586426
4.18 0.591501
4.19 0.595104
4.2 0.597
4.21 0.597301
4.22 0.595974
4.23 0.592992
4.24 0.588339
4.25 0.58201
4.26 0.573937
4.27 0.564116
4.28 0.552701
4.29 0.539746
4.3 0.525315
4.31 0.509482
4.32 0.492331
4.33 0.473835
4.34 0.454207
4.35 0.433561
4.36 0.411995
4.37 0.389604
4.38 0.366481
4.39 0.342693
4.4 0.31831
4.41 0.293456
4.42 0.2682
4.43 0.242604
4.44 0.216725
4.45 0.190616
4.46 0.164313
4.47 0.137882
4.48 0.111373
4.49 0.0848325
4.5 0.0583121
4.51 0.0318652
4.52 0.00555566
4.53 -0.0205309
4.54 -0.0463361
4.55 -0.0717832
4.56 -0.0967903
4.57 -0.121272
4.58 -0.145138
4.59 -0.168236
4.6 -0.190495
4.61 -0.211855
4.62 -0.232237
4.63 -0.251567
4.64 -0.269782
4.65 -0.286811
4.66 -0.302511
4.67 -0.31698
4.68 -0.330214
4.69 -0.342225
4.7 -0.35304
4.71 -0.362702
4.72 -0.371198
4.73 -0.37863
4.74 -0.385136
4.75 -0.390805
4.76 -0.395734
4.77 -0.400021
4.78 -0.403765
4.79 -0.407024
4.8 -0.409949
4.81 -0.41262
4.82 -0.415112
4.83 -0.417487
4.84 -0.419794
4.85 -0.42207
4.86 -0.424344
4.87 -0.426623
4.88 -0.428907
4.89 -0.431182
4.9 -0.433426
4.91 -0.43561
4.92 -0.437684
4.93 -0.439615
4.94 -0.441364
4.95 -0.44289
4.96 -0.444156
4.97 -0.445124
4.98 -0.445749
4.99 -0.445993
5 -0.445858
5.01 -0.44533
5.02 -0.4444
5.03 -0.443062
5.04 -0.441315
5.05 -0.439119
5.06 -0.43651
5.07 -0.4335
5.08 -0.430091
5.09 -0.426284
5.1 -0.422081
5.11 -0.417465
5.12 -0.412412
5.13 -0.406948
5.14 -0.401066
5.15 -0.394757
5.16 -0.388015
5.17 -0.380833
5.18 -0.373171
5.19 -0.365059
5.2 -0.356519
5.21 -0.347569
5.22 -0.338235
5.23 -0.328553
5.24 -0.318562
5.25 -0.308309
5.26 -0.297887
5.27 -0.287373
5.28 -0.27685
5.29 -0.266407
5.3 -0.256134
5.31 -0.246156
5.32 -0.236568
5.33 -0.227447
5.34 -0.218875
5.35 -0.210926
5.36 -0.203663
5.37 -0.197147
5.38 -0.191483
5.39 -0.186612
5.4 -0.182531
5.41 -0.179225
5.42 -0.17666
5.43 -0.17479
5.44 -0.173592
5.45 -0.172973
5.46 -0.172821
5.47 -0.173047
5.48 -0.173563
5.49 -0.174279
5.5 -0.175109
5.51 -0.175966
5.52 -0.176768
5.53 -0.177454
5.54 -0.177972
5.55 -0.178286
5.56 -0.178367
5.57 -0.178187
5.58 -0.177741
5.59 -0.177051
5.6 -0.176131
5.61 -0.175
5.62 -0.173679
5.63 -0.172189
5.64 -0.170532
5.65 -0.168736
5.66 -0.166804
5.67 -0.16473
5.68 -0.162496
5.69 -0.160071
5.7 -0.157403
5.71 -0.154419
5.72 -0.151073
5.73 -0.147291
5.74 -0.142993
5.75 -0.138098
5.76 -0.132523
5.77 -0.126109
5.78 -0.118837
5.79 -0.110664
5.8 -0.101547
5.81 -0.0914574
5.82 -0.0803886
5.83 -0.0683222
5.84 -0.0552534
5.85 -0.0413257
5.86 -0.0266232
5.87 -0.0112499
5.88 0.00467243
5.89 0.0210071
5.9 0.0376144
5.91 0.0543029
5.92 0.0709045
5.93 0.0872604
5.94 0.103218
5.95 0.118634
5.96 0.133363
5.97 0.147225
5.98 0.160199
5.99 0.172225
6 0.183263
6.01 0.1933
6.02 0.202344
6.03 0.210361
6.04 0.217444
6.05 0.22371
6.06 0.229245
6.07 0.234148
6.08 0.238521
6.09 0.242465
6.1 0.246061
6.11 0.249443
6.12 0.252689
6.13 0.255863
6.14 0.259011
6.15 0.262159
6.16 0.265312
6.17 0.268449
6.18 0.271528
6.19 0.274492
6.2 0.277262
6.21 0.279752
6.22 0.281861
6.23 0.283415
6.24 0.284351
6.25 0.284564
6.26 0.283953
6.27 0.282431
6.28 0.279919
6.29 0.2763
6.3 0.271514
6.31 0.265613
6.32 0.258598
6.33 0.250492
6.34 0.241338
6.35 0.231196
6.36 0.220055
6.37 0.208101
6.38 0.195446
6.39 0.182199
6.4 0.168469
6.41 0.154367
6.42 0.139992
6.43 0.125453
6.44 0.110855
6.45 0.096275
6.46 0.0817763
6.47 0.0674083
6.48 0.0532066
6.49 0.0392118
6.5 0.0254186
6.51 0.0118178
6.52 -0.00160409
6.53 -0.0148674
6.54 -0.0279967
6.55 -0.0410159
6.56 -0.0539492
6.57 -0.066827
6.58 -0.0796651
6.59 -0.0924721
6.6 -0.105248
6.61 -0.117983
6.62 -0.130651
6.63 -0.143221
6.64 -0.155654
6.65 -0.167901
6.66 -0.179909
6.67 -0.191618
6.68 -0.202957
6.69 -0.213821
6.7 -0.224186
6.71 -0.233993
6.72 -0.243189
6.73 -0.251726
6.74 -0.259565
6.75 -0.266619
6.76 -0.272883
6.77 -0.278373
6.78 -0.283084
6.79 -0.287013
6.8 -0.290164
6.81 -0.292534
6.82 -0.294055
6.83 -0.294815
6.84 -0.294816
6.85 -0.294054
6.86 -0.29252
6.87 -0.290196
6.88 -0.287007
6.89 -0.282915
6.9 -0.277924
6.91 -0.271981
6.92 -0.26503
6.93 -0.25701
6.94 -0.247855
6.95 -0.237359
6.96 -0.225589
6.97 -0.212494
6.98 -0.198028
6.99 -0.182158
7 -0.164864
7.01 -0.146069
7.02 -0.125767
7.03 -0.104091
7.04 -0.0810976
7.05 -0.0568614
7.06 -0.0314768
7.07 -0.00505547
7.08 0.0223539
7.09 0.0505116
7.1 0.07925
7.11 0.108407
7.12 0.137816
7.13 0.16731
7.14 0.196713
7.15 0.225834
7.16 0.254531
7.17 0.282668
7.18 0.310117
7.19 0.336767
7.2 0.362523
7.21 0.387209
7.22 0.410818
7.23 0.433329
7.24 0.454708
7.25 0.47493
7.26 0.493981
7.27 0.511819
7.28 0.528369
7.29 0.543733
7.3 0.557905
7.31 0.570879
7.32 0.582642
7.33 0.593172
7.34 0.602339
7.35 0.610155
7.36 0.61662
7.37 0.621681
7.38 0.625276
7.39 0.627343
7.4 0.627785
7.41 0.62639
7.42 0.623254
7.43 0.618322
7.44 0.611545
7.45 0.602886
7.46 0.592322
7.47 0.579716
7.48 0.565127
7.49 0.548681
7.5 0.530438
7.51 0.510473
7.52 0.488887
7.53 0.46579
7.54 0.441191
7.55 0.415413
7.56 0.388626
7.57 0.36101
7.58 0.332754
7.59 0.304052
7.6 0.275097
7.61 0.246111
7.62 0.217295
7.63 0.188829
7.64 0.160881
7.65 0.133609
7.66 0.107155
7.67 0.0817639
7.68 0.057453
7.69 0.0343064
7.7 0.0123961
7.71 -0.00822197
7.72 -0.027508
7.73 -0.0453713
7.74 -0.0617711
7.75 -0.0768052
7.76 -0.0904876
7.77 -0.102841
7.78 -0.113895
7.79 -0.123687
7.8 -0.132137
7.81 -0.139398
7.82 -0.145537
7.83 -0.150601
7.84 -0.154642
7.85 -0.157706
7.86 -0.159813
7.87 -0.16098
7.88 -0.16133
7.89 -0.160913
7.9 -0.159777
7.91 -0.157973
7.92 -0.15555
7.93 -0.15251
7.94 -0.148946
7.95 -0.144923
7.96 -0.14049
7.97 -0.135697
7.98 -0.130593
7.99 -0.12522
8 -0.119616
8.01 -0.113847
8.02 -0.107957
8.03 -0.101983
8.04 -0.0959615
8.05 -0.089926
8.06 -0.0839092
8.07 -0.0779402
8.08 -0.0720407
8.09 -0.0662304
8.1 -0.0605262
8.11 -0.054943
8.12 -0.0494958
8.13 -0.0442103
8.14 -0.0390831
8.15 -0.0341241
8.16 -0.0293437
8.17 -0.0247523
8.18 -0.020361
8.19 -0.0161967
8.2 -0.01227
8.21 -0.00858349
8.22 -0.00515055
8.23 -0.0019844
8.24 0.000902314
8.25 0.00349706
8.26 0.00575599
8.27 0.00770567
8.28 0.00934238
8.29 0.0106659
8.3 0.01168
8.31 0.0123926
8.32 0.0128005
8.33 0.0129224
8.34 0.0127975
8.35 0.0124511
8.36 0.0119115
8.37 0.0112092
8.38 0.0103762
8.39 0.00943727
8.4 0.00843683
8.41 0.00740449
8.42 0.0063659
8.43 0.00534241
8.44 0.00435021
8.45 0.00340157
8.46 0.00250083
8.47 0.00163964
8.48 0.000805619
8.49 -2.05182e-05
8.5 -0.000864595
8.51 -0.00175832
8.52 -0.00275101
8.53 -0.00388167
8.54 -0.00519261
8.55 -0.0067289
8.56 -0.00853525
8.57 -0.0106546
8.58 -0.0131403
8.59 -0.0160507
8.6 -0.0193845
8.61 -0.0231631
8.62 -0.0274008
8.63 -0.0321042
8.64 -0.0372717
8.65 -0.0429324
8.66 -0.0490399
8.67 -0.0555554
8.68 -0.0624476
8.69 -0.0696803
8.7 -0.0772136
8.71 -0.0850101
8.72 -0.0930352
8.73 -0.101222
8.74 -0.109527
8.75 -0.11791
8.76 -0.126334
8.77 -0.134764
8.78 -0.143167
8.79 -0.151513
8.8 -0.159783
8.81 -0.167959
8.82 -0.176025
8.83 -0.183968
8.84 -0.191776
8.85 -0.199423
8.86 -0.206913
8.87 -0.214231
8.88 -0.221366
8.89 -0.228298
8.9 -0.23501
8.91 -0.24146
8.92 -0.247622
8.93 -0.253479
8.94 -0.259
8.95 -0.264152
8.96 -0.268904
8.97 -0.273222
8.98 -0.27702
8.99 -0.280323
9 -0.283111
9.01 -0.285368
9.02 -0.287087
9.03 -0.288268
9.04 -0.28889
9.05 -0.28897
9.06 -0.288569
9.07 -0.287722
9.08 -0.286473
9.09 -0.284869
9.1 -0.282967
9.11 -0.280805
9.12 -0.278472
9.13 -0.276029
9.14 -0.273534
9.15 -0.271039
9.16 -0.268592
9.17 -0.266236
9.18 -0.264009
9.19 -0.261921
9.2 -0.25998
9.21 -0.258183
9.22 -0.256516
9.23 -0.254955
9.24 -0.253471
9.25 -0.252014
9.26 -0.250537
9.27 -0.24899
9.28 -0.247322
9.29 -0.245486
9.3 -0.243429
9.31 -0.241092
9.32 -0.238466
9.33 -0.23553
9.34 -0.232277
9.35 -0.228709
9.36 -0.22484
9.37 -0.220677
9.38 -0.21628
9.39 -0.211708
9.4 -0.207018
9.41 -0.202276
9.42 -0.19755
9.43 -0.192911
9.44 -0.188448
9.45 -0.184211
9.46 -0.180255
9.47 -0.176622
9.48 -0.173342
9.49 -0.170432
9.5 -0.167918
9.51 -0.165767
9.52 -0.163924
9.53 -0.162335
9.54 -0.16093
9.55 -0.159624
9.56 -0.158319
9.57 -0.156885
9.58 -0.155209
9.59 -0.153172
9.6 -0.150658
9.61 -0.147551
9.62 -0.143746
9.63 -0.139088
9.64 -0.13349
9.65 -0.126928
9.66 -0.119355
9.67 -0.110741
9.68 -0.101076
9.69 -0.0903674
9.7 -0.0785313
9.71 -0.0657364
9.72 -0.0520504
9.73 -0.037553
9.74 -0.0223352
9.75 -0.00649681
9.76 0.00987736
9.77 0.0266682
9.78 0.0437353
9.79 0.0609745
9.8 0.0782876
9.81 0.0955844
9.82 0.112785
9.83 0.129795
9.84 0.146571
9.85 0.163071
9.86 0.179265
9.87 0.195134
9.88 0.210669
9.89 0.225854
9.9 0.240684
9.91 0.255194
9.92 0.269398
9.93 0.283306
9.94 0.296928
9.95 0.310269
9.96 0.3233
9.97 0.336032
9.98 0.348454
9.99 0.360539
10 0.372254
10.01 0.383557
10.02 0.394384
10.03 0.404643
10.04 0.414319
10.05 0.42335
10.06 0.431679
10.07 0.439249
10.08 0.44601
10.09 0.451845
10.1 0.456759
10.11 0.460759
10.12 0.463839
10.13 0.466003
10.14 0.467271
10.15 0.467661
10.16 0.467161
10.17 0.465918
10.18 0.464007
10.19 0.461511
10.2 0.458519
10.21 0.455129
10.22 0.451424
10.23 0.447527
10.24 0.443548
10.25 0.439578
10.26 0.435703
10.27 0.431998
10.28 0.428531
10.29 0.425389
10.3 0.422581
10.31 0.42013
10.32 0.418041
10.33 0.41631
10.34 0.414915
10.35 0.413839
10.36 0.413027
10.37 0.412404
10.38 0.411902
10.39 0.411449
10.4 0.410964
10.41 0.410366
10.42 0.409539
10.43 0.408411
10.44 0.406903
10.45 0.404934
10.46 0.402431
10.47 0.399325
10.48 0.395519
10.49 0.390936
10.5 0.385578
10.51 0.379407
10.52 0.372395
10.53 0.364521
10.54 0.355772
10.55 0.346057
10.56 0.335457
10.57 0.324
10.58 0.311707
10.59 0.298607
10.6 0.284735
10.61 0.270109
10.62 0.254755
10.63 0.238785
10.64 0.222262
10.65 0.205248
10.66 0.187813
10.67 0.17003
10.68 0.151953
10.69 0.133687
10.7 0.115314
10.71 0.0969118
10.72 0.0785531
10.73 0.0603096
10.74 0.0422554
10.75 0.0244758
10.76 0.00700731
10.77 -0.0101032
10.78 -0.0268175
10.79 -0.0431058
10.8 -0.0589483
10.81 -0.0742983
10.82 -0.0891763
10.83 -0.103611
10.84 -0.117624
10.85 -0.131243
10.86 -0.144506
10.87 -0.15745
10.88 -0.170105
10.89 -0.182553
10.9 -0.194846
10.91 -0.207032
10.92 -0.219159
10.93 -0.231271
10.94 -0.243406
10.95 -0.255596
10.96 -0.267857
10.97 -0.280196
10.98 -0.292608
10.99 -0.30508
11 -0.317586
11.01 -0.330082
11.02 -0.342517
11.03 -0.354833
11.04 -0.366964
11.05 -0.37884
11.06 -0.390387
11.07 -0.401498
11.08 -0.412085
11.09 -0.422098
11.1 -0.431465
11.11 -0.440124
11.12 -0.448016
11.13 -0.455094
11.14 -0.461219
11.15 -0.466452
11.16 -0.470782
11.17 -0.474206
11.18 -0.476727
11.19 -0.478361
11.2 -0.479092
11.21 -0.478935
11.22 -0.47799
11.23 -0.476296
11.24 -0.473897
11.25 -0.470838
11.26 -0.46716
11.27 -0.462853
11.28 -0.458001
11.29 -0.452647
11.3 -0.446814
11.31 -0.440522
11.32 -0.433783
11.33 -0.426586
11.34 -0.418911
11.35 -0.410786
11.36 -0.4022
11.37 -0.393138
11.38 -0.383586
11.39 -0.373526
11.4 -0.362896
11.41 -0.351712
11.42 -0.339983
11.43 -0.327703
11.44 -0.314877
11.45 -0.301515
11.46 -0.287623
11.47 -0.273196
11.48 -0.25832
11.49 -0.243036
11.5 -0.227397
11.51 -0.21146
11.52 -0.195288
11.53 -0.178943
11.54 -0.162513
11.55 -0.146077
11.56 -0.129712
11.57 -0.113492
11.58 -0.097489
11.59 -0.0817785
11.6 -0.0664658
11.61 -0.0515792
11.62 -0.0371726
11.63 -0.0232937
11.64 -0.00998374
11.65 0.00272288
11.66 0.0147551
11.67 0.0260992
11.68 0.0367742
11.69 0.0467726
11.7 0.0560921
11.71 0.0647355
11.72 0.0727083
11.73 0.0799488
11.74 0.0865487
11.75 0.0925258
11.76 0.0979005
11.77 0.102695
11.78 0.106934
11.79 0.110616
11.8 0.113769
11.81 0.116455
11.82 0.118706
11.83 0.120552
11.84 0.122028
11.85 0.123166
11.86 0.123972
11.87 0.124514
11.88 0.124829
11.89 0.12495
11.9 0.124909
11.91 0.124736
11.92 0.124453
11.93 0.124083
11.94 0.12365
11.95 0.123165
11.96 0.122631
11.97 0.122046
11.98 0.121398
11.99 0.120657
12 0.119796
12.01 0.11878
12.02 0.11756
12.03 0.116082
12.04 0.114285
12.05 0.112086
12.06 0.109379
12.07 0.106122
12.08 0.10224
12.09 0.097656
12.1 0.0922998
12.11 0.0861042
12.12 0.0789281
12.13 0.070766
12.14 0.0616105
12.15 0.0514392
12.16 0.0402441
12.17 0.0280331
12.18 0.01481
12.19 0.000553543
