# xPDFsuite Configuration #
[PDF]
wavelength = 0.1
dataformat = QA
inputfile = BiMsol6_insitu_700 C-00444.xy
backgroundfile = Quartz2mm-dist500-00000.xy
mode = xray
bgscale = 0.0042
composition = Bi2Fe4O9
outputtype = gr
qmaxinst = 24.998449118
qmin = 0.1
qmax = 21.4986662415
rmax = 80.0
rmin = 0.0
rstep = 0.01
rpoly = 0.9

[Misc]
inputdir = C:/Data/Seafile/CPH/Beamtime/Desy Oct 20/In situ data/Processed/BiMsol6/PDF
savedir = C:/Data/Seafile/CPH/Beamtime/Desy Oct 20/In situ data/PDF/BiMsol6
backgroundfilefull = C:/Data/Seafile/CPH/Beamtime/Desy Oct 20/In situ data/Processed/Standard_Empty_Cap/Quartz2mm-dist500-00000.xy

#### start data
#S 1
#L r($\AA$)  G($\AA^{-2}$)
0 0
0.01 0.00641101
0.02 0.0124596
0.03 0.0178358
0.04 0.0222611
0.05 0.0255021
0.06 0.0273805
0.07 0.0277015
0.08 0.0264084
0.09 0.0236444
0.1 0.0195275
0.11 0.0142407
0.12 0.00802416
0.13 0.00116428
0.14 -0.00601686
0.15 -0.0131137
0.16 -0.0197839
0.17 -0.0257065
0.18 -0.0305936
0.19 -0.0342046
0.2 -0.0362926
0.21 -0.036689
0.22 -0.0354922
0.23 -0.032769
0.24 -0.0286649
0.25 -0.023399
0.26 -0.0172559
0.27 -0.0105603
0.28 -0.00377839
0.29 0.00267457
0.3 0.00839513
0.31 0.0129998
0.32 0.0161437
0.33 0.0174776
0.34 0.0166598
0.35 0.0137433
0.36 0.00872562
0.37 0.0017097
0.38 -0.00709503
0.39 -0.0173752
0.4 -0.0287673
0.41 -0.0406456
0.42 -0.052396
0.43 -0.0633931
0.44 -0.0729898
0.45 -0.0805407
0.46 -0.0853628
0.47 -0.0865756
0.48 -0.083986
0.49 -0.0772354
0.5 -0.0660887
0.51 -0.0504489
0.52 -0.0303677
0.53 -0.00576995
0.54 0.0227882
0.55 0.0545719
0.56 0.0888986
0.57 0.124969
0.58 0.161889
0.59 0.198683
0.6 0.234108
0.61 0.267183
0.62 0.296924
0.63 0.322405
0.64 0.342795
0.65 0.357379
0.66 0.365164
0.67 0.365742
0.68 0.359289
0.69 0.345808
0.7 0.325491
0.71 0.298715
0.72 0.26603
0.73 0.227644
0.74 0.18509
0.75 0.139364
0.76 0.0915203
0.77 0.0426578
0.78 -0.00611669
0.79 -0.0536054
0.8 -0.098603
0.81 -0.140287
0.82 -0.177865
0.83 -0.210687
0.84 -0.238258
0.85 -0.260255
0.86 -0.275939
0.87 -0.285886
0.88 -0.290413
0.89 -0.289912
0.9 -0.284913
0.91 -0.276058
0.92 -0.263988
0.93 -0.249529
0.94 -0.233744
0.95 -0.217464
0.96 -0.201484
0.97 -0.186548
0.98 -0.173315
0.99 -0.1626
1 -0.154728
1.01 -0.149927
1.02 -0.148352
1.03 -0.150026
1.04 -0.154845
1.05 -0.162663
1.06 -0.173256
1.07 -0.18594
1.08 -0.200221
1.09 -0.215569
1.1 -0.231435
1.11 -0.247275
1.12 -0.262485
1.13 -0.276566
1.14 -0.289147
1.15 -0.299914
1.16 -0.30864
1.17 -0.315192
1.18 -0.319494
1.19 -0.321437
1.2 -0.321401
1.21 -0.319619
1.22 -0.316383
1.23 -0.312027
1.24 -0.306916
1.25 -0.301424
1.26 -0.295979
1.27 -0.290933
1.28 -0.286581
1.29 -0.283165
1.3 -0.280866
1.31 -0.279801
1.32 -0.280137
1.33 -0.281683
1.34 -0.284316
1.35 -0.287856
1.36 -0.292071
1.37 -0.296689
1.38 -0.301402
1.39 -0.305855
1.4 -0.309745
1.41 -0.312797
1.42 -0.314769
1.43 -0.31547
1.44 -0.314763
1.45 -0.31241
1.46 -0.30858
1.47 -0.303363
1.48 -0.296912
1.49 -0.289436
1.5 -0.281198
1.51 -0.272499
1.52 -0.263719
1.53 -0.255237
1.54 -0.247397
1.55 -0.240524
1.56 -0.234911
1.57 -0.230804
1.58 -0.228575
1.59 -0.228201
1.6 -0.229685
1.61 -0.232977
1.62 -0.237952
1.63 -0.244412
1.64 -0.252125
1.65 -0.260755
1.66 -0.269829
1.67 -0.27894
1.68 -0.287666
1.69 -0.295587
1.7 -0.3023
1.71 -0.307263
1.72 -0.310223
1.73 -0.310976
1.74 -0.309348
1.75 -0.305239
1.76 -0.298634
1.77 -0.28954
1.78 -0.277983
1.79 -0.264425
1.8 -0.249172
1.81 -0.23258
1.82 -0.21505
1.83 -0.197005
1.84 -0.178909
1.85 -0.16125
1.86 -0.144431
1.87 -0.128816
1.88 -0.114718
1.89 -0.102389
1.9 -0.0920447
1.91 -0.0839794
1.92 -0.0780024
1.93 -0.0740512
1.94 -0.0719925
1.95 -0.0716291
1.96 -0.0727093
1.97 -0.0749921
1.98 -0.078079
1.99 -0.08157
2 -0.0851212
2.01 -0.0884036
2.02 -0.0911168
2.03 -0.092997
2.04 -0.0937025
2.05 -0.0932003
2.06 -0.0914233
2.07 -0.0883725
2.08 -0.0841169
2.09 -0.07879
2.1 -0.0725501
2.11 -0.0656847
2.12 -0.0585415
2.13 -0.0514441
2.14 -0.0447304
2.15 -0.0387398
2.16 -0.0338002
2.17 -0.0303931
2.18 -0.0286659
2.19 -0.0288146
2.2 -0.0309894
2.21 -0.0352781
2.22 -0.0417027
2.23 -0.0503088
2.24 -0.0610132
2.25 -0.0734804
2.26 -0.0874712
2.27 -0.102702
2.28 -0.118855
2.29 -0.13559
2.3 -0.15254
2.31 -0.169299
2.32 -0.185528
2.33 -0.20092
2.34 -0.215204
2.35 -0.228152
2.36 -0.239531
2.37 -0.249132
2.38 -0.257035
2.39 -0.26325
2.4 -0.267842
2.41 -0.270925
2.42 -0.27266
2.43 -0.273163
2.44 -0.272761
2.45 -0.271734
2.46 -0.270338
2.47 -0.268828
2.48 -0.267442
2.49 -0.266417
2.5 -0.266003
2.51 -0.266313
2.52 -0.267458
2.53 -0.269507
2.54 -0.272484
2.55 -0.276377
2.56 -0.281189
2.57 -0.286784
2.58 -0.293001
2.59 -0.299692
2.6 -0.306693
2.61 -0.313832
2.62 -0.320933
2.63 -0.327789
2.64 -0.334253
2.65 -0.340192
2.66 -0.345492
2.67 -0.350065
2.68 -0.353849
2.69 -0.356755
2.7 -0.358789
2.71 -0.360015
2.72 -0.360476
2.73 -0.360231
2.74 -0.359353
2.75 -0.35792
2.76 -0.355969
2.77 -0.353643
2.78 -0.351013
2.79 -0.34814
2.8 -0.345072
2.81 -0.341841
2.82 -0.338455
2.83 -0.334908
2.84 -0.331187
2.85 -0.327258
2.86 -0.323074
2.87 -0.31858
2.88 -0.313717
2.89 -0.308375
2.9 -0.302532
2.91 -0.296146
2.92 -0.289179
2.93 -0.281607
2.94 -0.273422
2.95 -0.264604
2.96 -0.255165
2.97 -0.245192
2.98 -0.234739
2.99 -0.223875
3 -0.212673
3.01 -0.201212
3.02 -0.189561
3.03 -0.177817
3.04 -0.166046
3.05 -0.154302
3.06 -0.14262
3.07 -0.13102
3.08 -0.119502
3.09 -0.108042
3.1 -0.0965866
3.11 -0.0850687
3.12 -0.0734064
3.13 -0.0615044
3.14 -0.0492581
3.15 -0.0365106
3.16 -0.0231641
3.17 -0.00913354
3.18 0.00566887
3.19 0.0213132
3.2 0.0378477
3.21 0.0553132
3.22 0.0737663
3.23 0.0930719
3.24 0.113151
3.25 0.133892
3.26 0.155153
3.27 0.176767
3.28 0.198535
3.29 0.22021
3.3 0.241556
3.31 0.26234
3.32 0.282328
3.33 0.301295
3.34 0.319014
3.35 0.335131
3.36 0.349625
3.37 0.362367
3.38 0.373264
3.39 0.382258
3.4 0.389333
3.41 0.394393
3.42 0.397528
3.43 0.398944
3.44 0.398776
3.45 0.397182
3.46 0.394347
3.47 0.390467
3.48 0.38568
3.49 0.380313
3.5 0.374576
3.51 0.368669
3.52 0.362777
3.53 0.357069
3.54 0.351715
3.55 0.346856
3.56 0.34256
3.57 0.338889
3.58 0.335879
3.59 0.333545
3.6 0.331876
3.61 0.330908
3.62 0.330531
3.63 0.330679
3.64 0.331287
3.65 0.332289
3.66 0.333619
3.67 0.335221
3.68 0.337042
3.69 0.339021
3.7 0.341125
3.71 0.343337
3.72 0.345651
3.73 0.348072
3.74 0.35063
3.75 0.353349
3.76 0.356257
3.77 0.359394
3.78 0.362797
3.79 0.366504
3.8 0.370558
3.81 0.375006
3.82 0.379833
3.83 0.385039
3.84 0.390616
3.85 0.396538
3.86 0.402768
3.87 0.409274
3.88 0.41597
3.89 0.422774
3.9 0.429602
3.91 0.436364
3.92 0.442969
3.93 0.449315
3.94 0.455269
3.95 0.460767
3.96 0.465727
3.97 0.47007
3.98 0.473727
3.99 0.47664
4 0.478699
4.01 0.479879
4.02 0.480188
4.03 0.479607
4.04 0.478122
4.05 0.475729
4.06 0.472418
4.07 0.468101
4.08 0.462884
4.09 0.456773
4.1 0.449777
4.11 0.441904
4.12 0.433159
4.13 0.423499
4.14 0.412933
4.15 0.401518
4.16 0.389262
4.17 0.376176
4.18 0.362276
4.19 0.34758
4.2 0.332032
4.21 0.315752
4.22 0.298787
4.23 0.281189
4.24 0.263017
4.25 0.24434
4.26 0.225219
4.27 0.205745
4.28 0.186036
4.29 0.166186
4.3 0.14629
4.31 0.126443
4.32 0.106734
4.33 0.0872812
4.34 0.0681471
4.35 0.0493919
4.36 0.0310668
4.37 0.013209
4.38 -0.00415907
4.39 -0.0210116
4.4 -0.0373395
4.41 -0.0532081
4.42 -0.068656
4.43 -0.0837327
4.44 -0.0984961
4.45 -0.11301
4.46 -0.12733
4.47 -0.141543
4.48 -0.155715
4.49 -0.169899
4.5 -0.184141
4.51 -0.198472
4.52 -0.212913
4.53 -0.227469
4.54 -0.242112
4.55 -0.256804
4.56 -0.271493
4.57 -0.28611
4.58 -0.300575
4.59 -0.314767
4.6 -0.328582
4.61 -0.341925
4.62 -0.35469
4.63 -0.366774
4.64 -0.378081
4.65 -0.388511
4.66 -0.397905
4.67 -0.406299
4.68 -0.413659
4.69 -0.419972
4.7 -0.425244
4.71 -0.429502
4.72 -0.432729
4.73 -0.435024
4.74 -0.436519
4.75 -0.437311
4.76 -0.437511
4.77 -0.437233
4.78 -0.436598
4.79 -0.435714
4.8 -0.434732
4.81 -0.433762
4.82 -0.432901
4.83 -0.432233
4.84 -0.43183
4.85 -0.431767
4.86 -0.432086
4.87 -0.432783
4.88 -0.433859
4.89 -0.435299
4.9 -0.437072
4.91 -0.439139
4.92 -0.441467
4.93 -0.443965
4.94 -0.446566
4.95 -0.449203
4.96 -0.451807
4.97 -0.454311
4.98 -0.456644
4.99 -0.458734
5 -0.460542
5.01 -0.462026
5.02 -0.463146
5.03 -0.463871
5.04 -0.464176
5.05 -0.463993
5.06 -0.463338
5.07 -0.462202
5.08 -0.46057
5.09 -0.458424
5.1 -0.455747
5.11 -0.452496
5.12 -0.448615
5.13 -0.444118
5.14 -0.438971
5.15 -0.433136
5.16 -0.426573
5.17 -0.419239
5.18 -0.411016
5.19 -0.401908
5.2 -0.391899
5.21 -0.380959
5.22 -0.369062
5.23 -0.35619
5.24 -0.342314
5.25 -0.327373
5.26 -0.311477
5.27 -0.294657
5.28 -0.276956
5.29 -0.25843
5.3 -0.239143
5.31 -0.219126
5.32 -0.198499
5.33 -0.17738
5.34 -0.155864
5.35 -0.134047
5.36 -0.112026
5.37 -0.0898926
5.38 -0.0677467
5.39 -0.0456801
5.4 -0.0237684
5.41 -0.00207975
5.42 0.0193257
5.43 0.0403955
5.44 0.0610565
5.45 0.0812709
5.46 0.101026
5.47 0.120292
5.48 0.139043
5.49 0.157249
5.5 0.174881
5.51 0.191833
5.52 0.208133
5.53 0.223736
5.54 0.23859
5.55 0.252639
5.56 0.265817
5.57 0.277999
5.58 0.289092
5.59 0.299079
5.6 0.307883
5.61 0.315429
5.62 0.32165
5.63 0.326483
5.64 0.329718
5.65 0.331461
5.66 0.331705
5.67 0.330451
5.68 0.327717
5.69 0.323541
5.7 0.317924
5.71 0.310918
5.72 0.302723
5.73 0.293455
5.74 0.283241
5.75 0.272219
5.76 0.260535
5.77 0.248301
5.78 0.23572
5.79 0.222943
5.8 0.210104
5.81 0.197321
5.82 0.184702
5.83 0.172344
5.84 0.160342
5.85 0.148716
5.86 0.137494
5.87 0.12668
5.88 0.116265
5.89 0.106223
5.9 0.0965408
5.91 0.0871463
5.92 0.0779768
5.93 0.0689795
5.94 0.0601053
5.95 0.0513121
5.96 0.0425697
5.97 0.0338626
5.98 0.0251902
5.99 0.0165743
6 0.00805559
6.01 -0.000306618
6.02 -0.00843501
6.03 -0.0162034
6.04 -0.0234991
6.05 -0.030217
6.06 -0.0362327
6.07 -0.0414207
6.08 -0.0456594
6.09 -0.0488227
6.1 -0.0506889
6.11 -0.0512956
6.12 -0.0505874
6.13 -0.0485341
6.14 -0.0451329
6.15 -0.04041
6.16 -0.0343459
6.17 -0.0270562
6.18 -0.0187275
6.19 -0.0095039
6.2 0.000449571
6.21 0.0109509
6.22 0.0218061
6.23 0.0328079
6.24 0.0437179
6.25 0.0543395
6.26 0.0644876
6.27 0.0739925
6.28 0.0827054
6.29 0.0904478
6.3 0.0971004
6.31 0.102664
6.32 0.107111
6.33 0.110443
6.34 0.112693
6.35 0.113922
6.36 0.114127
6.37 0.11352
6.38 0.112239
6.39 0.110426
6.4 0.108228
6.41 0.105792
6.42 0.103269
6.43 0.100815
6.44 0.0985579
6.45 0.0966039
6.46 0.0950398
6.47 0.0939318
6.48 0.0933243
6.49 0.093289
6.5 0.0937852
6.51 0.0947766
6.52 0.0962215
6.53 0.098064
6.54 0.100237
6.55 0.102671
6.56 0.105287
6.57 0.107987
6.58 0.110697
6.59 0.113352
6.6 0.115897
6.61 0.11829
6.62 0.120486
6.63 0.122482
6.64 0.124291
6.65 0.125932
6.66 0.12744
6.67 0.128859
6.68 0.130243
6.69 0.131662
6.7 0.133179
6.71 0.134856
6.72 0.136751
6.73 0.138913
6.74 0.141382
6.75 0.14421
6.76 0.147403
6.77 0.150938
6.78 0.154795
6.79 0.158936
6.8 0.16331
6.81 0.16785
6.82 0.172479
6.83 0.177092
6.84 0.181594
6.85 0.185887
6.86 0.189875
6.87 0.193464
6.88 0.196531
6.89 0.19899
6.9 0.200805
6.91 0.201923
6.92 0.20231
6.93 0.201943
6.94 0.200818
6.95 0.198863
6.96 0.196189
6.97 0.192839
6.98 0.188865
6.99 0.184327
7 0.179289
7.01 0.173805
7.02 0.16795
7.03 0.161821
7.04 0.155482
7.05 0.148993
7.06 0.142406
7.07 0.135764
7.08 0.129103
7.09 0.122449
7.1 0.115817
7.11 0.109212
7.12 0.102632
7.13 0.0960677
7.14 0.0895066
7.15 0.0829304
7.16 0.0763228
7.17 0.0696687
7.18 0.0629559
7.19 0.0561763
7.2 0.0493272
7.21 0.0424064
7.22 0.0354305
7.23 0.028419
7.24 0.0213959
7.25 0.0143902
7.26 0.00743513
7.27 0.000570242
7.28 -0.00615497
7.29 -0.0127129
7.3 -0.0190705
7.31 -0.0251998
7.32 -0.0310788
7.33 -0.0366937
7.34 -0.0420183
7.35 -0.0470722
7.36 -0.051884
7.37 -0.056483
7.38 -0.0609086
7.39 -0.06521
7.4 -0.0694444
7.41 -0.0736845
7.42 -0.0780059
7.43 -0.0824806
7.44 -0.0871807
7.45 -0.0921756
7.46 -0.09753
7.47 -0.103334
7.48 -0.109631
7.49 -0.116434
7.5 -0.123765
7.51 -0.131627
7.52 -0.140013
7.53 -0.148899
7.54 -0.158288
7.55 -0.168065
7.56 -0.178157
7.57 -0.188481
7.58 -0.198941
7.59 -0.209434
7.6 -0.219839
7.61 -0.230027
7.62 -0.239888
7.63 -0.249312
7.64 -0.258192
7.65 -0.266428
7.66 -0.273927
7.67 -0.280512
7.68 -0.286195
7.69 -0.290931
7.7 -0.294683
7.71 -0.297428
7.72 -0.299161
7.73 -0.299841
7.74 -0.299475
7.75 -0.298171
7.76 -0.295981
7.77 -0.292966
7.78 -0.289195
7.79 -0.284749
7.8 -0.279659
7.81 -0.274074
7.82 -0.268095
7.83 -0.261814
7.84 -0.255321
7.85 -0.248703
7.86 -0.242047
7.87 -0.235442
7.88 -0.228963
7.89 -0.222671
7.9 -0.216623
7.91 -0.210866
7.92 -0.205439
7.93 -0.200406
7.94 -0.195766
7.95 -0.19152
7.96 -0.187671
7.97 -0.184213
7.98 -0.181135
7.99 -0.178426
8 -0.176082
8.01 -0.174041
8.02 -0.172273
8.03 -0.170743
8.04 -0.169418
8.05 -0.168264
8.06 -0.167256
8.07 -0.166355
8.08 -0.16553
8.09 -0.164759
8.1 -0.164025
8.11 -0.163314
8.12 -0.16262
8.13 -0.161943
8.14 -0.161284
8.15 -0.160653
8.16 -0.160061
8.17 -0.159523
8.18 -0.159056
8.19 -0.158683
8.2 -0.158421
8.21 -0.158278
8.22 -0.158262
8.23 -0.158375
8.24 -0.158616
8.25 -0.15897
8.26 -0.159426
8.27 -0.159937
8.28 -0.160461
8.29 -0.160945
8.3 -0.161326
8.31 -0.161535
8.32 -0.161471
8.33 -0.161036
8.34 -0.160153
8.35 -0.15873
8.36 -0.156673
8.37 -0.153891
8.38 -0.150299
8.39 -0.145712
8.4 -0.140146
8.41 -0.133553
8.42 -0.125893
8.43 -0.11714
8.44 -0.107285
8.45 -0.0962875
8.46 -0.0841515
8.47 -0.0710018
8.48 -0.0569016
8.49 -0.0419281
8.5 -0.0261719
8.51 -0.00973407
8.52 0.00732055
8.53 0.0248177
8.54 0.0426284
8.55 0.060635
8.56 0.0787233
8.57 0.0967851
8.58 0.114713
8.59 0.132397
8.6 0.149774
8.61 0.166784
8.62 0.183382
8.63 0.199534
8.64 0.215222
8.65 0.2304
8.66 0.2451
8.67 0.259355
8.68 0.273185
8.69 0.286618
8.7 0.299682
8.71 0.312397
8.72 0.324765
8.73 0.336832
8.74 0.348606
8.75 0.360081
8.76 0.371241
8.77 0.382058
8.78 0.392457
8.79 0.402387
8.8 0.411796
8.81 0.420606
8.82 0.428728
8.83 0.436069
8.84 0.442519
8.85 0.447876
8.86 0.452139
8.87 0.455214
8.88 0.457018
8.89 0.457476
8.9 0.456525
8.91 0.454018
8.92 0.449936
8.93 0.44434
8.94 0.437231
8.95 0.428626
8.96 0.418556
8.97 0.407064
8.98 0.394058
8.99 0.379773
9 0.364286
9.01 0.347682
9.02 0.330048
9.03 0.311473
9.04 0.292007
9.05 0.271741
9.06 0.250813
9.07 0.229299
9.08 0.207274
9.09 0.184807
9.1 0.16196
9.11 0.138766
9.12 0.115316
9.13 0.0916663
9.14 0.0678711
9.15 0.0439842
9.16 0.0200627
9.17 -0.00382839
9.18 -0.0276093
9.19 -0.0512083
9.2 -0.0745436
9.21 -0.0975258
9.22 -0.120059
9.23 -0.142038
9.24 -0.163282
9.25 -0.183711
9.26 -0.203223
9.27 -0.221702
9.28 -0.239033
9.29 -0.255107
9.3 -0.269775
9.31 -0.282855
9.32 -0.294386
9.33 -0.304307
9.34 -0.31257
9.35 -0.319146
9.36 -0.324021
9.37 -0.32706
9.38 -0.328381
9.39 -0.328084
9.4 -0.326227
9.41 -0.322884
9.42 -0.318135
9.43 -0.312049
9.44 -0.304641
9.45 -0.296135
9.46 -0.28663
9.47 -0.276218
9.48 -0.264987
9.49 -0.253017
9.5 -0.240332
9.51 -0.227018
9.52 -0.213146
9.53 -0.198749
9.54 -0.183849
9.55 -0.168457
9.56 -0.152572
9.57 -0.136144
9.58 -0.119219
9.59 -0.10179
9.6 -0.083855
9.61 -0.0654144
9.62 -0.046478
9.63 -0.0270371
9.64 -0.00713395
9.65 0.0131574
9.66 0.0337739
9.67 0.0546384
9.68 0.0756593
9.69 0.0967319
9.7 0.117718
9.71 0.138487
9.72 0.158906
9.73 0.178837
9.74 0.198145
9.75 0.216698
9.76 0.23432
9.77 0.250868
9.78 0.266303
9.79 0.280546
9.8 0.293535
9.81 0.30523
9.82 0.315612
9.83 0.324546
9.84 0.332181
9.85 0.33858
9.86 0.343806
9.87 0.347938
9.88 0.351063
9.89 0.353246
9.9 0.354576
9.91 0.355222
9.92 0.355283
9.93 0.354852
9.94 0.354008
9.95 0.352821
9.96 0.351323
9.97 0.349573
9.98 0.347594
9.99 0.345385
10 0.34293
10.01 0.340197
10.02 0.337132
10.03 0.333649
10.04 0.329713
10.05 0.325259
10.06 0.32022
10.07 0.314534
10.08 0.308145
10.09 0.300945
10.1 0.292935
10.11 0.28413
10.12 0.274535
10.13 0.264175
10.14 0.253093
10.15 0.241339
10.16 0.228959
10.17 0.216114
10.18 0.202918
10.19 0.189491
10.2 0.175963
10.21 0.162466
10.22 0.149155
10.23 0.136169
10.24 0.123621
10.25 0.111617
10.26 0.100252
10.27 0.0896031
10.28 0.0797347
10.29 0.070773
10.3 0.0626456
10.31 0.0553465
10.32 0.0488504
10.33 0.0431141
10.34 0.0380783
10.35 0.0337018
10.36 0.0298834
10.37 0.0264926
10.38 0.0234295
10.39 0.0205919
10.4 0.0178789
10.41 0.0151928
10.42 0.0124255
10.43 0.00949405
10.44 0.00632799
10.45 0.00286753
10.46 -0.000935343
10.47 -0.00511669
10.48 -0.00972124
10.49 -0.0147706
10.5 -0.0202377
10.51 -0.0261147
10.52 -0.0323867
10.53 -0.0390338
10.54 -0.0460321
10.55 -0.0533863
10.56 -0.0610393
10.57 -0.0689612
10.58 -0.0771293
10.59 -0.0855238
10.6 -0.0941288
10.61 -0.102939
10.62 -0.111952
10.63 -0.121148
10.64 -0.130526
10.65 -0.140083
10.66 -0.149822
10.67 -0.15974
10.68 -0.169854
10.69 -0.180146
10.7 -0.190603
10.71 -0.201215
10.72 -0.211963
10.73 -0.222826
10.74 -0.233779
10.75 -0.24479
10.76 -0.255816
10.77 -0.266818
10.78 -0.277754
10.79 -0.288582
10.8 -0.29926
10.81 -0.30973
10.82 -0.319958
10.83 -0.329918
10.84 -0.339584
10.85 -0.348933
10.86 -0.357952
10.87 -0.366626
10.88 -0.374928
10.89 -0.382897
10.9 -0.390547
10.91 -0.397897
10.92 -0.404969
10.93 -0.411785
10.94 -0.41836
10.95 -0.424724
10.96 -0.430912
10.97 -0.436943
10.98 -0.442829
10.99 -0.448578
11 -0.454189
11.01 -0.459637
11.02 -0.464918
11.03 -0.470005
11.04 -0.474864
11.05 -0.479452
11.06 -0.483722
11.07 -0.487594
11.08 -0.491001
11.09 -0.493907
11.1 -0.496252
11.11 -0.497979
11.12 -0.499033
11.13 -0.499367
11.14 -0.49885
11.15 -0.497525
11.16 -0.495375
11.17 -0.492386
11.18 -0.488557
11.19 -0.483893
11.2 -0.478375
11.21 -0.472014
11.22 -0.464904
11.23 -0.457086
11.24 -0.448609
11.25 -0.439522
11.26 -0.429879
11.27 -0.419689
11.28 -0.409049
11.29 -0.398016
11.3 -0.386635
11.31 -0.374944
11.32 -0.362975
11.33 -0.350744
11.34 -0.338261
11.35 -0.325556
11.36 -0.31263
11.37 -0.29948
11.38 -0.286096
11.39 -0.272466
11.4 -0.258546
11.41 -0.244332
11.42 -0.229811
11.43 -0.214964
11.44 -0.199773
11.45 -0.184224
11.46 -0.168297
11.47 -0.151959
11.48 -0.135246
11.49 -0.118163
11.5 -0.10072
11.51 -0.0829357
11.52 -0.0648303
11.53 -0.0464101
11.54 -0.027721
11.55 -0.00880913
11.56 0.0102888
11.57 0.0295344
11.58 0.0488885
11.59 0.068312
11.6 0.0877642
11.61 0.107201
11.62 0.126588
11.63 0.145889
11.64 0.165074
11.65 0.184111
11.66 0.202959
11.67 0.22159
11.68 0.239987
11.69 0.258125
11.7 0.275979
11.71 0.293523
11.72 0.310729
11.73 0.327527
11.74 0.343925
11.75 0.359892
11.76 0.375395
11.77 0.390398
11.78 0.404864
11.79 0.418721
11.8 0.431919
11.81 0.444452
11.82 0.45628
11.83 0.467365
11.84 0.477666
11.85 0.487147
11.86 0.495677
11.87 0.503306
11.88 0.510014
11.89 0.515776
11.9 0.520572
11.91 0.524384
11.92 0.527155
11.93 0.528844
11.94 0.529519
11.95 0.529176
11.96 0.527815
11.97 0.525436
11.98 0.522041
11.99 0.517537
12 0.512004
12.01 0.505468
12.02 0.497931
12.03 0.489399
12.04 0.479875
12.05 0.46933
12.06 0.457718
12.07 0.44513
12.08 0.431572
12.09 0.417053
12.1 0.401588
12.11 0.385192
12.12 0.367813
12.13 0.349531
12.14 0.330411
12.15 0.310496
12.16 0.289837
12.17 0.268491
12.18 0.246516
12.19 0.223956
12.2 0.200956
12.21 0.177609
12.22 0.154015
