# xPDFsuite Configuration #
[PDF]
wavelength = 0.1
dataformat = QA
inputfile = BiMsol6_insitu_700 C-00632.xy
backgroundfile = Quartz2mm-dist500-00000.xy
mode = xray
bgscale = 0.0042
composition = Bi2Fe4O9
outputtype = gr
qmaxinst = 24.998449118
qmin = 0.1
qmax = 21.4986662415
rmax = 80.0
rmin = 0.0
rstep = 0.01
rpoly = 0.9

[Misc]
inputdir = C:/Data/Seafile/CPH/Beamtime/Desy Oct 20/In situ data/Processed/BiMsol6/PDF
savedir = C:/Data/Seafile/CPH/Beamtime/Desy Oct 20/In situ data/PDF/BiMsol6
backgroundfilefull = C:/Data/Seafile/CPH/Beamtime/Desy Oct 20/In situ data/Processed/Standard_Empty_Cap/Quartz2mm-dist500-00000.xy

#### start data
#S 1
#L r($\AA$)  G($\AA^{-2}$)
0 0
0.01 0.00707037
0.02 0.0137471
0.03 0.019693
0.04 0.0246052
0.05 0.0282292
0.06 0.0303698
0.07 0.030813
0.08 0.0294941
0.09 0.0265659
0.1 0.0221531
0.11 0.0164507
0.12 0.00971588
0.13 0.00225641
0.14 -0.00558413
0.15 -0.0133646
0.16 -0.0207138
0.17 -0.0272822
0.18 -0.0327552
0.19 -0.0368676
0.2 -0.039346
0.21 -0.0399991
0.22 -0.0389228
0.23 -0.0361785
0.24 -0.0319118
0.25 -0.0263477
0.26 -0.0197819
0.27 -0.0125461
0.28 -0.00513733
0.29 0.0020028
0.3 0.00844496
0.31 0.0137786
0.32 0.017632
0.33 0.0196275
0.34 0.0193927
0.35 0.0169646
0.36 0.0123242
0.37 0.00556202
0.38 -0.00312038
0.39 -0.0134128
0.4 -0.0249611
0.41 -0.0371258
0.42 -0.0492779
0.43 -0.0607786
0.44 -0.070965
0.45 -0.0791746
0.46 -0.084707
0.47 -0.0866647
0.48 -0.0848333
0.49 -0.0788399
0.5 -0.0684374
0.51 -0.0535196
0.52 -0.0341317
0.53 -0.0101933
0.54 0.0177383
0.55 0.0489236
0.56 0.082675
0.57 0.118186
0.58 0.154556
0.59 0.1908
0.6 0.225667
0.61 0.258171
0.62 0.287325
0.63 0.312204
0.64 0.331977
0.65 0.345936
0.66 0.353098
0.67 0.35307
0.68 0.346043
0.69 0.332039
0.7 0.311268
0.71 0.284126
0.72 0.251183
0.73 0.212682
0.74 0.170159
0.75 0.12462
0.76 0.0771282
0.77 0.0287846
0.78 -0.0193058
0.79 -0.0659457
0.8 -0.109943
0.81 -0.150505
0.82 -0.186865
0.83 -0.218397
0.84 -0.24464
0.85 -0.265303
0.86 -0.279685
0.87 -0.288394
0.88 -0.291779
0.89 -0.290257
0.9 -0.284377
0.91 -0.274797
0.92 -0.262177
0.93 -0.247347
0.94 -0.231353
0.95 -0.21501
0.96 -0.199094
0.97 -0.18432
0.98 -0.171318
0.99 -0.160867
1 -0.153245
1.01 -0.148641
1.02 -0.147174
1.03 -0.14883
1.04 -0.153475
1.05 -0.160932
1.06 -0.170944
1.07 -0.182834
1.08 -0.196108
1.09 -0.210244
1.1 -0.224709
1.11 -0.238983
1.12 -0.252488
1.13 -0.264773
1.14 -0.275517
1.15 -0.284451
1.16 -0.291398
1.17 -0.296271
1.18 -0.299041
1.19 -0.299661
1.2 -0.298528
1.21 -0.2959
1.22 -0.292084
1.23 -0.287425
1.24 -0.282284
1.25 -0.277042
1.26 -0.272093
1.27 -0.267748
1.28 -0.264263
1.29 -0.261838
1.3 -0.260606
1.31 -0.260635
1.32 -0.262036
1.33 -0.264569
1.34 -0.268071
1.35 -0.272325
1.36 -0.27707
1.37 -0.282015
1.38 -0.286827
1.39 -0.291151
1.4 -0.294707
1.41 -0.297237
1.42 -0.298528
1.43 -0.29842
1.44 -0.296816
1.45 -0.293517
1.46 -0.288743
1.47 -0.282629
1.48 -0.275364
1.49 -0.26719
1.5 -0.258399
1.51 -0.249317
1.52 -0.240342
1.53 -0.231837
1.54 -0.224136
1.55 -0.217545
1.56 -0.212327
1.57 -0.208695
1.58 -0.206978
1.59 -0.207102
1.6 -0.20902
1.61 -0.212637
1.62 -0.217788
1.63 -0.224236
1.64 -0.231709
1.65 -0.23984
1.66 -0.248164
1.67 -0.256275
1.68 -0.263765
1.69 -0.27024
1.7 -0.275331
1.71 -0.278532
1.72 -0.279659
1.73 -0.278568
1.74 -0.275146
1.75 -0.269354
1.76 -0.261235
1.77 -0.250855
1.78 -0.238307
1.79 -0.224065
1.8 -0.208452
1.81 -0.191833
1.82 -0.174595
1.83 -0.157141
1.84 -0.139911
1.85 -0.123322
1.86 -0.107702
1.87 -0.0933365
1.88 -0.0804585
1.89 -0.0692349
1.9 -0.0597906
1.91 -0.052305
1.92 -0.0465375
1.93 -0.0423652
1.94 -0.0396088
1.95 -0.038042
1.96 -0.0374029
1.97 -0.0374292
1.98 -0.0377713
1.99 -0.038113
2 -0.0381885
2.01 -0.0377661
2.02 -0.0366578
2.03 -0.0347255
2.04 -0.0317942
2.05 -0.0279666
2.06 -0.0233141
2.07 -0.0179713
2.08 -0.0121302
2.09 -0.00603355
2.1 1.40198e-05
2.11 0.00564488
2.12 0.0105294
2.13 0.0143333
2.14 0.0167358
2.15 0.0174427
2.16 0.0161987
2.17 0.0125458
2.18 0.00655588
2.19 -0.00181558
2.2 -0.0125583
2.21 -0.0255897
2.22 -0.0407565
2.23 -0.0579122
2.24 -0.0767701
2.25 -0.0968527
2.26 -0.11778
2.27 -0.139146
2.28 -0.160536
2.29 -0.181537
2.3 -0.201635
2.31 -0.220491
2.32 -0.237806
2.33 -0.253319
2.34 -0.266827
2.35 -0.278197
2.36 -0.287287
2.37 -0.294006
2.38 -0.298625
2.39 -0.301297
2.4 -0.302227
2.41 -0.301666
2.42 -0.299901
2.43 -0.297192
2.44 -0.293956
2.45 -0.290537
2.46 -0.287242
2.47 -0.284352
2.48 -0.282115
2.49 -0.280759
2.5 -0.280527
2.51 -0.281426
2.52 -0.283495
2.53 -0.286717
2.54 -0.291028
2.55 -0.296319
2.56 -0.30249
2.57 -0.309303
2.58 -0.316519
2.59 -0.323919
2.6 -0.331284
2.61 -0.338401
2.62 -0.345063
2.63 -0.351021
2.64 -0.356187
2.65 -0.360458
2.66 -0.363767
2.67 -0.366086
2.68 -0.367424
2.69 -0.367768
2.7 -0.367222
2.71 -0.365944
2.72 -0.36406
2.73 -0.361711
2.74 -0.359044
2.75 -0.356203
2.76 -0.353339
2.77 -0.350587
2.78 -0.348049
2.79 -0.345802
2.8 -0.343898
2.81 -0.342362
2.82 -0.341212
2.83 -0.340415
2.84 -0.339893
2.85 -0.339572
2.86 -0.339363
2.87 -0.339171
2.88 -0.338895
2.89 -0.338406
2.9 -0.337622
2.91 -0.336465
2.92 -0.334874
2.93 -0.332803
2.94 -0.330224
2.95 -0.32711
2.96 -0.32346
2.97 -0.319345
2.98 -0.314809
2.99 -0.309903
3 -0.304686
3.01 -0.299211
3.02 -0.293512
3.03 -0.287643
3.04 -0.281623
3.05 -0.275447
3.06 -0.269085
3.07 -0.262482
3.08 -0.25554
3.09 -0.248111
3.1 -0.240084
3.11 -0.2313
3.12 -0.221587
3.13 -0.210762
3.14 -0.19864
3.15 -0.184899
3.16 -0.169431
3.17 -0.152141
3.18 -0.132916
3.19 -0.111675
3.2 -0.0883815
3.21 -0.062999
3.22 -0.0354454
3.23 -0.00603493
3.24 0.0250654
3.25 0.0576411
3.26 0.0914342
3.27 0.126148
3.28 0.161468
3.29 0.19697
3.3 0.232256
3.31 0.266944
3.32 0.300658
3.33 0.333035
3.34 0.36371
3.35 0.392142
3.36 0.418251
3.37 0.441814
3.38 0.462656
3.39 0.480651
3.4 0.495726
3.41 0.507673
3.42 0.516555
3.43 0.522615
3.44 0.525976
3.45 0.526795
3.46 0.525255
3.47 0.521562
3.48 0.515735
3.49 0.508242
3.5 0.499307
3.51 0.489144
3.52 0.477954
3.53 0.46592
3.54 0.453176
3.55 0.439872
3.56 0.42616
3.57 0.412126
3.58 0.397836
3.59 0.383337
3.6 0.368659
3.61 0.353809
3.62 0.338815
3.63 0.323689
3.64 0.308446
3.65 0.293107
3.66 0.277704
3.67 0.262282
3.68 0.246917
3.69 0.231689
3.7 0.216699
3.71 0.20206
3.72 0.187902
3.73 0.174366
3.74 0.161687
3.75 0.149984
3.76 0.139394
3.77 0.130065
3.78 0.122138
3.79 0.11574
3.8 0.111034
3.81 0.108219
3.82 0.107212
3.83 0.108049
3.84 0.110741
3.85 0.115273
3.86 0.121605
3.87 0.129809
3.88 0.139703
3.89 0.151119
3.9 0.163932
3.91 0.178008
3.92 0.193205
3.93 0.209391
3.94 0.226464
3.95 0.244188
3.96 0.262421
3.97 0.281032
3.98 0.299896
3.99 0.318899
4 0.337931
4.01 0.356883
4.02 0.375669
4.03 0.394211
4.04 0.412436
4.05 0.430274
4.06 0.447653
4.07 0.464443
4.08 0.480625
4.09 0.496124
4.1 0.510864
4.11 0.52476
4.12 0.537726
4.13 0.549604
4.14 0.560286
4.15 0.569737
4.16 0.577862
4.17 0.58457
4.18 0.589773
4.19 0.593395
4.2 0.595174
4.21 0.595233
4.22 0.593541
4.23 0.590078
4.24 0.584841
4.25 0.577845
4.26 0.569038
4.27 0.558449
4.28 0.546263
4.29 0.532562
4.3 0.51744
4.31 0.500996
4.32 0.483341
4.33 0.464481
4.34 0.444636
4.35 0.423928
4.36 0.402458
4.37 0.380319
4.38 0.357594
4.39 0.334339
4.4 0.310607
4.41 0.286487
4.42 0.262017
4.43 0.23723
4.44 0.212152
4.45 0.186804
4.46 0.161184
4.47 0.135333
4.48 0.109282
4.49 0.0830628
4.5 0.0567155
4.51 0.0302905
4.52 0.0038508
4.53 -0.022515
4.54 -0.048718
4.55 -0.0746585
4.56 -0.100228
4.57 -0.125309
4.58 -0.14978
4.59 -0.173448
4.6 -0.196207
4.61 -0.217967
4.62 -0.238622
4.63 -0.258075
4.64 -0.276248
4.65 -0.293055
4.66 -0.308334
4.67 -0.322208
4.68 -0.334685
4.69 -0.345798
4.7 -0.355599
4.71 -0.36416
4.72 -0.371503
4.73 -0.377776
4.74 -0.383154
4.75 -0.387766
4.76 -0.391745
4.77 -0.395223
4.78 -0.398325
4.79 -0.401156
4.8 -0.403859
4.81 -0.406523
4.82 -0.40922
4.83 -0.412002
4.84 -0.414904
4.85 -0.417948
4.86 -0.421127
4.87 -0.424408
4.88 -0.427752
4.89 -0.431106
4.9 -0.434411
4.91 -0.437599
4.92 -0.440574
4.93 -0.44328
4.94 -0.445653
4.95 -0.447638
4.96 -0.449185
4.97 -0.450257
4.98 -0.450802
4.99 -0.450794
5 -0.450269
5.01 -0.449236
5.02 -0.447716
5.03 -0.445736
5.04 -0.443329
5.05 -0.440494
5.06 -0.437303
5.07 -0.433797
5.08 -0.430003
5.09 -0.425943
5.1 -0.421632
5.11 -0.417066
5.12 -0.412227
5.13 -0.407119
5.14 -0.401721
5.15 -0.396
5.16 -0.389923
5.17 -0.383453
5.18 -0.376511
5.19 -0.369085
5.2 -0.361161
5.21 -0.352723
5.22 -0.343765
5.23 -0.334293
5.24 -0.324322
5.25 -0.313865
5.26 -0.303029
5.27 -0.291889
5.28 -0.280536
5.29 -0.269073
5.3 -0.257615
5.31 -0.246303
5.32 -0.235276
5.33 -0.224653
5.34 -0.214558
5.35 -0.205102
5.36 -0.196389
5.37 -0.188517
5.38 -0.181643
5.39 -0.175723
5.4 -0.170778
5.41 -0.166809
5.42 -0.163791
5.43 -0.161682
5.44 -0.160465
5.45 -0.160034
5.46 -0.160244
5.47 -0.160987
5.48 -0.162146
5.49 -0.163602
5.5 -0.165238
5.51 -0.166935
5.52 -0.168575
5.53 -0.170068
5.54 -0.171338
5.55 -0.172327
5.56 -0.17299
5.57 -0.173281
5.58 -0.173188
5.59 -0.172739
5.6 -0.171954
5.61 -0.17086
5.62 -0.16949
5.63 -0.167881
5.64 -0.166047
5.65 -0.164042
5.66 -0.161888
5.67 -0.159595
5.68 -0.157159
5.69 -0.154563
5.7 -0.151765
5.71 -0.148702
5.72 -0.145324
5.73 -0.141557
5.74 -0.137317
5.75 -0.132514
5.76 -0.127058
5.77 -0.120779
5.78 -0.113645
5.79 -0.105602
5.8 -0.0965972
5.81 -0.0865969
5.82 -0.0755891
5.83 -0.063554
5.84 -0.0504887
5.85 -0.0365468
5.86 -0.0218234
5.87 -0.00643694
5.88 0.00947357
5.89 0.0257518
5.9 0.0422297
5.91 0.0586953
5.92 0.0749624
5.93 0.0908537
5.94 0.106201
5.95 0.120851
5.96 0.134646
5.97 0.147395
5.98 0.159102
5.99 0.169717
6 0.179223
6.01 0.187633
6.02 0.194988
6.03 0.201292
6.04 0.206689
6.05 0.21134
6.06 0.215378
6.07 0.218948
6.08 0.222196
6.09 0.225265
6.1 0.228305
6.11 0.231448
6.12 0.234792
6.13 0.238411
6.14 0.242352
6.15 0.246632
6.16 0.251256
6.17 0.256167
6.18 0.261266
6.19 0.266447
6.2 0.27158
6.21 0.276517
6.22 0.281098
6.23 0.285071
6.24 0.288309
6.25 0.290647
6.26 0.29193
6.27 0.292018
6.28 0.290794
6.29 0.288085
6.3 0.283805
6.31 0.278018
6.32 0.27073
6.33 0.261976
6.34 0.251823
6.35 0.240365
6.36 0.227611
6.37 0.213831
6.38 0.199197
6.39 0.183879
6.4 0.168053
6.41 0.151892
6.42 0.135566
6.43 0.119255
6.44 0.103109
6.45 0.0872496
6.46 0.0717778
6.47 0.0567709
6.48 0.0422826
6.49 0.0283957
6.5 0.0150744
6.51 0.00228684
6.52 -0.0100045
6.53 -0.0218522
6.54 -0.0333203
6.55 -0.0444735
6.56 -0.0553852
6.57 -0.0661559
6.58 -0.0768562
6.59 -0.0875489
6.6 -0.0982861
6.61 -0.109108
6.62 -0.120048
6.63 -0.131111
6.64 -0.142282
6.65 -0.153536
6.66 -0.164833
6.67 -0.176121
6.68 -0.187334
6.69 -0.198378
6.7 -0.209183
6.71 -0.219668
6.72 -0.229748
6.73 -0.239343
6.74 -0.248376
6.75 -0.256723
6.76 -0.264329
6.77 -0.271166
6.78 -0.277186
6.79 -0.282348
6.8 -0.286621
6.81 -0.289968
6.82 -0.292274
6.83 -0.293621
6.84 -0.293997
6.85 -0.293389
6.86 -0.291783
6.87 -0.289166
6.88 -0.285456
6.89 -0.280638
6.9 -0.274745
6.91 -0.267752
6.92 -0.259633
6.93 -0.250359
6.94 -0.239901
6.95 -0.228095
6.96 -0.21505
6.97 -0.200755
6.98 -0.185203
6.99 -0.168396
7 -0.150348
7.01 -0.131023
7.02 -0.11045
7.03 -0.0887655
7.04 -0.0660389
7.05 -0.0423535
7.06 -0.0178048
7.07 0.00750066
7.08 0.0335002
7.09 0.0599989
7.1 0.0868588
7.11 0.113949
7.12 0.141137
7.13 0.168297
7.14 0.195295
7.15 0.221989
7.16 0.248289
7.17 0.274103
7.18 0.299348
7.19 0.323953
7.2 0.34786
7.21 0.370948
7.22 0.393225
7.23 0.414682
7.24 0.435295
7.25 0.455044
7.26 0.473912
7.27 0.491853
7.28 0.508785
7.29 0.524762
7.3 0.539746
7.31 0.553694
7.32 0.566555
7.33 0.578266
7.34 0.588653
7.35 0.59768
7.36 0.605307
7.37 0.611442
7.38 0.615995
7.39 0.618874
7.4 0.619959
7.41 0.619009
7.42 0.616132
7.43 0.611274
7.44 0.604395
7.45 0.595474
7.46 0.584508
7.47 0.57138
7.48 0.556186
7.49 0.539092
7.5 0.520188
7.51 0.499588
7.52 0.477421
7.53 0.453829
7.54 0.428863
7.55 0.402855
7.56 0.375989
7.57 0.348455
7.58 0.320446
7.59 0.292149
7.6 0.263757
7.61 0.235473
7.62 0.20747
7.63 0.1799
7.64 0.152906
7.65 0.126615
7.66 0.101141
7.67 0.0766923
7.68 0.0532617
7.69 0.0309107
7.7 0.00969271
7.71 -0.0103501
7.72 -0.029186
7.73 -0.0467333
7.74 -0.0629495
7.75 -0.0779142
7.76 -0.0916268
7.77 -0.104092
7.78 -0.115317
7.79 -0.125315
7.8 -0.133982
7.81 -0.141442
7.82 -0.147738
7.83 -0.152899
7.84 -0.156959
7.85 -0.159953
7.86 -0.16189
7.87 -0.162782
7.88 -0.162766
7.89 -0.161903
7.9 -0.160258
7.91 -0.157901
7.92 -0.154905
7.93 -0.151305
7.94 -0.147221
7.95 -0.142747
7.96 -0.137959
7.97 -0.13293
7.98 -0.127728
7.99 -0.122414
8 -0.117046
8.01 -0.111678
8.02 -0.106345
8.03 -0.101073
8.04 -0.0958801
8.05 -0.0907738
8.06 -0.0857602
8.07 -0.0808268
8.08 -0.0759556
8.09 -0.0711288
8.1 -0.0663262
8.11 -0.0615279
8.12 -0.0567151
8.13 -0.0518696
8.14 -0.0469855
8.15 -0.0420623
8.16 -0.0371074
8.17 -0.0321372
8.18 -0.0271764
8.19 -0.0222646
8.2 -0.0174499
8.21 -0.0127798
8.22 -0.00830919
8.23 -0.00409581
8.24 -0.000198088
8.25 0.00332567
8.26 0.00637017
8.27 0.0089348
8.28 0.0109846
8.29 0.0124956
8.3 0.0134568
8.31 0.0138707
8.32 0.0137264
8.33 0.0130604
8.34 0.0119538
8.35 0.0104684
8.36 0.00867668
8.37 0.00665953
8.38 0.00450374
8.39 0.00230349
8.4 0.000161429
8.41 -0.00183816
8.42 -0.00361918
8.43 -0.0051164
8.44 -0.00627823
8.45 -0.00705134
8.46 -0.00740777
8.47 -0.00738108
8.48 -0.00699732
8.49 -0.00630173
8.5 -0.00535762
8.51 -0.00424467
8.52 -0.00305973
8.53 -0.00192694
8.54 -0.000961466
8.55 -0.000280129
8.56 1.31932e-06
8.57 -0.000227866
8.58 -0.00109382
8.59 -0.00273038
8.6 -0.00515417
8.61 -0.008415
8.62 -0.0125418
8.63 -0.0175413
8.64 -0.0233982
8.65 -0.0301408
8.66 -0.0376527
8.67 -0.045827
8.68 -0.0545654
8.69 -0.0637572
8.7 -0.0732827
8.71 -0.0830191
8.72 -0.0928307
8.73 -0.102579
8.74 -0.112153
8.75 -0.121451
8.76 -0.130386
8.77 -0.13889
8.78 -0.146873
8.79 -0.154321
8.8 -0.161249
8.81 -0.167671
8.82 -0.17362
8.83 -0.179142
8.84 -0.184294
8.85 -0.18913
8.86 -0.193765
8.87 -0.198276
8.88 -0.202742
8.89 -0.207233
8.9 -0.21181
8.91 -0.216535
8.92 -0.221444
8.93 -0.226543
8.94 -0.231828
8.95 -0.237277
8.96 -0.242852
8.97 -0.248498
8.98 -0.254137
8.99 -0.259679
9 -0.265033
9.01 -0.270106
9.02 -0.274801
9.03 -0.279026
9.04 -0.282663
9.05 -0.285621
9.06 -0.287878
9.07 -0.289393
9.08 -0.290141
9.09 -0.290117
9.1 -0.289338
9.11 -0.287764
9.12 -0.285525
9.13 -0.282702
9.14 -0.279379
9.15 -0.275653
9.16 -0.271624
9.17 -0.267397
9.18 -0.263089
9.19 -0.258815
9.2 -0.254667
9.21 -0.250727
9.22 -0.247066
9.23 -0.243735
9.24 -0.240809
9.25 -0.238279
9.26 -0.236135
9.27 -0.234356
9.28 -0.23291
9.29 -0.231746
9.3 -0.230813
9.31 -0.230041
9.32 -0.229339
9.33 -0.228633
9.34 -0.22785
9.35 -0.226922
9.36 -0.225788
9.37 -0.224372
9.38 -0.222644
9.39 -0.220589
9.4 -0.218194
9.41 -0.215463
9.42 -0.212408
9.43 -0.209051
9.44 -0.205411
9.45 -0.20156
9.46 -0.197545
9.47 -0.193417
9.48 -0.189222
9.49 -0.185006
9.5 -0.18081
9.51 -0.176665
9.52 -0.172587
9.53 -0.168579
9.54 -0.164634
9.55 -0.160729
9.56 -0.156829
9.57 -0.152878
9.58 -0.148816
9.59 -0.144576
9.6 -0.140083
9.61 -0.13526
9.62 -0.130029
9.63 -0.124279
9.64 -0.117931
9.65 -0.11095
9.66 -0.10328
9.67 -0.0948818
9.68 -0.0857239
9.69 -0.0757906
9.7 -0.0649914
9.71 -0.0534304
9.72 -0.0411372
9.73 -0.0281525
9.74 -0.0145271
9.75 -0.000320667
9.76 0.0144231
9.77 0.0296284
9.78 0.0451885
9.79 0.0610304
9.8 0.0770829
9.81 0.0932789
9.82 0.109557
9.83 0.125858
9.84 0.142127
9.85 0.158326
9.86 0.17442
9.87 0.190384
9.88 0.206195
9.89 0.221829
9.9 0.237263
9.91 0.252495
9.92 0.267511
9.93 0.282294
9.94 0.296822
9.95 0.311068
9.96 0.324969
9.97 0.338501
9.98 0.351627
9.99 0.364295
10 0.376446
10.01 0.38802
10.02 0.398932
10.03 0.40907
10.04 0.418429
10.05 0.426951
10.06 0.434585
10.07 0.441288
10.08 0.447028
10.09 0.451703
10.1 0.455355
10.11 0.458029
10.12 0.459752
10.13 0.460566
10.14 0.460527
10.15 0.45969
10.16 0.458093
10.17 0.455904
10.18 0.453225
10.19 0.450161
10.2 0.446818
10.21 0.443303
10.22 0.43972
10.23 0.436178
10.24 0.432764
10.25 0.42955
10.26 0.426596
10.27 0.423946
10.28 0.421631
10.29 0.419701
10.3 0.418112
10.31 0.416843
10.32 0.415859
10.33 0.415113
10.34 0.414549
10.35 0.414104
10.36 0.413694
10.37 0.413237
10.38 0.412657
10.39 0.411878
10.4 0.410827
10.41 0.409436
10.42 0.40759
10.43 0.405274
10.44 0.402445
10.45 0.399063
10.46 0.395099
10.47 0.390531
10.48 0.385311
10.49 0.379417
10.5 0.372887
10.51 0.365722
10.52 0.357924
10.53 0.349498
10.54 0.340448
10.55 0.330718
10.56 0.320367
10.57 0.309408
10.58 0.297847
10.59 0.285687
10.6 0.272933
10.61 0.25957
10.62 0.245582
10.63 0.23103
10.64 0.21593
10.65 0.200305
10.66 0.184182
10.67 0.167598
10.68 0.150562
10.69 0.133157
10.7 0.115454
10.71 0.0975202
10.72 0.0794259
10.73 0.0612478
10.74 0.0430672
10.75 0.0249807
10.76 0.00706678
10.77 -0.0105981
10.78 -0.0279427
10.79 -0.0449031
10.8 -0.0614245
10.81 -0.0774213
10.82 -0.0928801
10.83 -0.107804
10.84 -0.122191
10.85 -0.136054
10.86 -0.149418
10.87 -0.162315
10.88 -0.174765
10.89 -0.186876
10.9 -0.198713
10.91 -0.210347
10.92 -0.221851
10.93 -0.233294
10.94 -0.244747
10.95 -0.256275
10.96 -0.267924
10.97 -0.279729
10.98 -0.291708
10.99 -0.303867
11 -0.316195
11.01 -0.328674
11.02 -0.341239
11.03 -0.353825
11.04 -0.366359
11.05 -0.378753
11.06 -0.390912
11.07 -0.402708
11.08 -0.41402
11.09 -0.424764
11.1 -0.434839
11.11 -0.444151
11.12 -0.452614
11.13 -0.460155
11.14 -0.4666
11.15 -0.472003
11.16 -0.476345
11.17 -0.479618
11.18 -0.481828
11.19 -0.482996
11.2 -0.483115
11.21 -0.482217
11.22 -0.480433
11.23 -0.477829
11.24 -0.474478
11.25 -0.470452
11.26 -0.465823
11.27 -0.460613
11.28 -0.454934
11.29 -0.448846
11.3 -0.442393
11.31 -0.435606
11.32 -0.428506
11.33 -0.421091
11.34 -0.413341
11.35 -0.405267
11.36 -0.396844
11.37 -0.388043
11.38 -0.378827
11.39 -0.369158
11.4 -0.358952
11.41 -0.348199
11.42 -0.336881
11.43 -0.324976
11.44 -0.312471
11.45 -0.299361
11.46 -0.28564
11.47 -0.271294
11.48 -0.256413
11.49 -0.241046
11.5 -0.225252
11.51 -0.209103
11.52 -0.192676
11.53 -0.176051
11.54 -0.159339
11.55 -0.142643
11.56 -0.126058
11.57 -0.109677
11.58 -0.0935902
11.59 -0.0778865
11.6 -0.0626913
11.61 -0.048028
11.62 -0.0339503
11.63 -0.0205008
11.64 -0.00771131
11.65 0.00439802
11.66 0.015772
11.67 0.0264233
11.68 0.0363988
11.69 0.045718
11.7 0.0544063
11.71 0.0624938
11.72 0.0700126
11.73 0.0769416
11.74 0.0833804
11.75 0.0893626
11.76 0.09492
11.77 0.100081
11.78 0.10487
11.79 0.109291
11.8 0.113359
11.81 0.117108
11.82 0.120548
11.83 0.123683
11.84 0.126517
11.85 0.129052
11.86 0.131256
11.87 0.133159
11.88 0.134764
11.89 0.136073
11.9 0.137089
11.91 0.137816
11.92 0.138246
11.93 0.13838
11.94 0.138243
11.95 0.137843
11.96 0.137186
11.97 0.136274
11.98 0.135111
11.99 0.133667
12 0.131955
12.01 0.129968
12.02 0.127687
12.03 0.125088
12.04 0.122141
12.05 0.118795
12.06 0.114982
12.07 0.110686
12.08 0.105858
12.09 0.100443
12.1 0.0943888
12.11 0.087642
12.12 0.0800847
12.13 0.0717071
12.14 0.0624952
12.15 0.0524205
12.16 0.0414646
