# xPDFsuite Configuration #
[PDF]
wavelength = 0.1
dataformat = QA
inputfile = BiMsol6_insitu_700 C-00487.xy
backgroundfile = Quartz2mm-dist500-00000.xy
mode = xray
bgscale = 0.0042
composition = Bi2Fe4O9
outputtype = gr
qmaxinst = 24.998449118
qmin = 0.1
qmax = 21.4986662415
rmax = 80.0
rmin = 0.0
rstep = 0.01
rpoly = 0.9

[Misc]
inputdir = C:/Data/Seafile/CPH/Beamtime/Desy Oct 20/In situ data/Processed/BiMsol6/PDF
savedir = C:/Data/Seafile/CPH/Beamtime/Desy Oct 20/In situ data/PDF/BiMsol6
backgroundfilefull = C:/Data/Seafile/CPH/Beamtime/Desy Oct 20/In situ data/Processed/Standard_Empty_Cap/Quartz2mm-dist500-00000.xy

#### start data
#S 1
#L r($\AA$)  G($\AA^{-2}$)
0 0
0.01 0.00675521
0.02 0.013132
0.03 0.0188063
0.04 0.0234874
0.05 0.0269306
0.06 0.0289491
0.07 0.0293382
0.08 0.0280367
0.09 0.0251928
0.1 0.0209275
0.11 0.0154299
0.12 0.00894857
0.13 0.00178053
0.14 -0.00574158
0.15 -0.0131941
0.16 -0.02022
0.17 -0.0264839
0.18 -0.0316843
0.19 -0.0355679
0.2 -0.0378742
0.21 -0.0384227
0.22 -0.0373097
0.23 -0.0345988
0.24 -0.0304344
0.25 -0.0250378
0.26 -0.0186979
0.27 -0.0117414
0.28 -0.00464877
0.29 0.00215254
0.3 0.00824729
0.31 0.0132395
0.32 0.0167716
0.33 0.0184813
0.34 0.0180123
0.35 0.0154084
0.36 0.0106582
0.37 0.00385708
0.38 -0.0047912
0.39 -0.0149774
0.4 -0.0263458
0.41 -0.0382684
0.42 -0.0501278
0.43 -0.0612971
0.44 -0.0711263
0.45 -0.0789669
0.46 -0.0841336
0.47 -0.0857458
0.48 -0.0836021
0.49 -0.0773409
0.5 -0.0667246
0.51 -0.051654
0.52 -0.0321788
0.53 -0.00822431
0.54 0.0196566
0.55 0.0507331
0.56 0.084326
0.57 0.11964
0.58 0.155787
0.59 0.191798
0.6 0.22644
0.61 0.258745
0.62 0.287739
0.63 0.312513
0.64 0.332251
0.65 0.346253
0.66 0.353551
0.67 0.353757
0.68 0.347058
0.69 0.333471
0.7 0.313201
0.71 0.286635
0.72 0.254328
0.73 0.216511
0.74 0.174693
0.75 0.129861
0.76 0.0830575
0.77 0.035361
0.78 -0.0121443
0.79 -0.0582857
0.8 -0.101893
0.81 -0.142184
0.82 -0.1784
0.83 -0.209928
0.84 -0.236308
0.85 -0.25725
0.86 -0.272064
0.87 -0.281338
0.88 -0.285404
0.89 -0.284667
0.9 -0.279658
0.91 -0.271015
0.92 -0.259376
0.93 -0.24555
0.94 -0.230555
0.95 -0.215185
0.96 -0.200197
0.97 -0.186286
0.98 -0.174067
0.99 -0.164295
1 -0.157246
1.01 -0.153104
1.02 -0.151985
1.03 -0.153877
1.04 -0.15865
1.05 -0.166132
1.06 -0.176072
1.07 -0.187815
1.08 -0.200883
1.09 -0.214768
1.1 -0.228955
1.11 -0.242941
1.12 -0.256165
1.13 -0.268195
1.14 -0.278721
1.15 -0.28749
1.16 -0.294332
1.17 -0.299169
1.18 -0.301978
1.19 -0.30272
1.2 -0.301785
1.21 -0.299428
1.22 -0.295949
1.23 -0.291686
1.24 -0.28699
1.25 -0.282231
1.26 -0.277792
1.27 -0.273965
1.28 -0.270994
1.29 -0.269066
1.3 -0.2683
1.31 -0.268753
1.32 -0.270517
1.33 -0.273348
1.34 -0.277078
1.35 -0.281482
1.36 -0.286299
1.37 -0.291235
1.38 -0.295957
1.39 -0.300112
1.4 -0.303433
1.41 -0.305671
1.42 -0.306623
1.43 -0.306141
1.44 -0.30414
1.45 -0.300439
1.46 -0.295274
1.47 -0.288794
1.48 -0.281203
1.49 -0.272757
1.5 -0.263761
1.51 -0.254556
1.52 -0.24555
1.53 -0.237108
1.54 -0.229568
1.55 -0.223236
1.56 -0.218372
1.57 -0.215182
1.58 -0.213996
1.59 -0.214717
1.6 -0.217282
1.61 -0.221581
1.62 -0.227426
1.63 -0.234562
1.64 -0.242693
1.65 -0.251424
1.66 -0.260273
1.67 -0.268813
1.68 -0.276621
1.69 -0.283285
1.7 -0.288428
1.71 -0.291522
1.72 -0.292389
1.73 -0.290894
1.74 -0.286931
1.75 -0.280476
1.76 -0.271589
1.77 -0.260359
1.78 -0.246907
1.79 -0.231744
1.8 -0.215228
1.81 -0.197759
1.82 -0.179761
1.83 -0.161672
1.84 -0.143982
1.85 -0.127135
1.86 -0.111477
1.87 -0.0973154
1.88 -0.084896
1.89 -0.0743927
1.9 -0.0659333
1.91 -0.0597083
1.92 -0.0554312
1.93 -0.052952
1.94 -0.0520571
1.95 -0.0524791
1.96 -0.0539092
1.97 -0.0560315
1.98 -0.0584328
1.99 -0.0607388
2 -0.0626274
2.01 -0.0638119
2.02 -0.0640531
2.03 -0.0631654
2.04 -0.0608928
2.05 -0.0573437
2.06 -0.0525695
2.07 -0.046694
2.08 -0.0399095
2.09 -0.0324691
2.1 -0.0246785
2.11 -0.016941
2.12 -0.00965094
2.13 -0.00319229
2.14 0.00205836
2.15 0.00574643
2.16 0.00755334
2.17 0.00695047
2.18 0.00394024
2.19 -0.00158129
2.2 -0.00965796
2.21 -0.0202547
2.22 -0.0332576
2.23 -0.0485654
2.24 -0.0659218
2.25 -0.0848346
2.26 -0.10492
2.27 -0.125761
2.28 -0.146919
2.29 -0.167949
2.3 -0.188319
2.31 -0.207624
2.32 -0.22551
2.33 -0.241668
2.34 -0.255849
2.35 -0.26787
2.36 -0.277546
2.37 -0.284739
2.38 -0.2897
2.39 -0.292561
2.4 -0.293518
2.41 -0.292822
2.42 -0.290766
2.43 -0.287621
2.44 -0.28384
2.45 -0.279807
2.46 -0.275867
2.47 -0.272345
2.48 -0.269532
2.49 -0.267707
2.5 -0.267169
2.51 -0.267953
2.52 -0.270126
2.53 -0.273698
2.54 -0.278618
2.55 -0.284781
2.56 -0.292102
2.57 -0.300313
2.58 -0.309136
2.59 -0.318314
2.6 -0.327583
2.61 -0.336675
2.62 -0.345328
2.63 -0.353218
2.64 -0.360195
2.65 -0.366096
2.66 -0.3708
2.67 -0.374226
2.68 -0.376341
2.69 -0.377074
2.7 -0.376509
2.71 -0.374814
2.72 -0.37212
2.73 -0.368583
2.74 -0.364377
2.75 -0.359683
2.76 -0.354675
2.77 -0.349581
2.78 -0.344565
2.79 -0.339768
2.8 -0.335309
2.81 -0.331279
2.82 -0.327764
2.83 -0.324798
2.84 -0.322338
2.85 -0.320347
2.86 -0.31876
2.87 -0.317493
2.88 -0.316448
2.89 -0.31551
2.9 -0.314542
2.91 -0.313427
2.92 -0.312054
2.93 -0.310326
2.94 -0.308158
2.95 -0.305455
2.96 -0.302145
2.97 -0.29824
2.98 -0.293729
2.99 -0.288617
3 -0.282922
3.01 -0.276672
3.02 -0.269853
3.03 -0.262544
3.04 -0.254783
3.05 -0.246595
3.06 -0.23799
3.07 -0.228963
3.08 -0.219479
3.09 -0.209468
3.1 -0.198907
3.11 -0.187719
3.12 -0.175814
3.13 -0.163089
3.14 -0.149436
3.15 -0.134647
3.16 -0.118656
3.17 -0.101403
3.18 -0.0828078
3.19 -0.0628136
3.2 -0.0413888
3.21 -0.0185032
3.22 0.00590646
3.23 0.0316234
3.24 0.0585309
3.25 0.0864754
3.26 0.115269
3.27 0.14469
3.28 0.174499
3.29 0.204372
3.3 0.234003
3.31 0.263093
3.32 0.291344
3.33 0.318462
3.34 0.344152
3.35 0.367966
3.36 0.389837
3.37 0.409579
3.38 0.42704
3.39 0.442112
3.4 0.454726
3.41 0.464707
3.42 0.472101
3.43 0.477115
3.44 0.479852
3.45 0.480451
3.46 0.479074
3.47 0.475906
3.48 0.470983
3.49 0.464715
3.5 0.457313
3.51 0.448979
3.52 0.439907
3.53 0.430274
3.54 0.420229
3.55 0.409925
3.56 0.399498
3.57 0.389036
3.58 0.378607
3.59 0.368256
3.6 0.358013
3.61 0.347903
3.62 0.337916
3.63 0.328043
3.64 0.318275
3.65 0.308603
3.66 0.299024
3.67 0.289545
3.68 0.28019
3.69 0.270983
3.7 0.261967
3.71 0.253201
3.72 0.244759
3.73 0.236725
3.74 0.22925
3.75 0.222417
3.76 0.216321
3.77 0.211072
3.78 0.206778
3.79 0.203539
3.8 0.201483
3.81 0.200767
3.82 0.201347
3.83 0.203265
3.84 0.206541
3.85 0.211173
3.86 0.217141
3.87 0.224504
3.88 0.233129
3.89 0.242886
3.9 0.253677
3.91 0.265388
3.92 0.277897
3.93 0.291082
3.94 0.304833
3.95 0.31895
3.96 0.333295
3.97 0.347736
3.98 0.362144
3.99 0.3764
4 0.390361
4.01 0.403918
4.02 0.41699
4.03 0.429493
4.04 0.441349
4.05 0.452491
4.06 0.46285
4.07 0.472279
4.08 0.480816
4.09 0.488415
4.1 0.495034
4.11 0.500634
4.12 0.505179
4.13 0.508566
4.14 0.510763
4.15 0.511805
4.16 0.511668
4.17 0.510334
4.18 0.507787
4.19 0.50402
4.2 0.498894
4.21 0.492552
4.22 0.485015
4.23 0.476309
4.24 0.466466
4.25 0.455528
4.26 0.443495
4.27 0.430414
4.28 0.416417
4.29 0.401568
4.3 0.385935
4.31 0.369584
4.32 0.352582
4.33 0.334937
4.34 0.316763
4.35 0.298118
4.36 0.279046
4.37 0.259581
4.38 0.23975
4.39 0.219562
4.4 0.199016
4.41 0.178145
4.42 0.156952
4.43 0.135435
4.44 0.113596
4.45 0.0914376
4.46 0.0689386
4.47 0.0461368
4.48 0.0230654
4.49 -0.000239616
4.5 -0.0237302
4.51 -0.0473455
4.52 -0.0710105
4.53 -0.094623
4.54 -0.118078
4.55 -0.141264
4.56 -0.164061
4.57 -0.186346
4.58 -0.20799
4.59 -0.228796
4.6 -0.248661
4.61 -0.267502
4.62 -0.285219
4.63 -0.301729
4.64 -0.316963
4.65 -0.330854
4.66 -0.343261
4.67 -0.35432
4.68 -0.364058
4.69 -0.372523
4.7 -0.379782
4.71 -0.385923
4.72 -0.390988
4.73 -0.395132
4.74 -0.398532
4.75 -0.401319
4.76 -0.403628
4.77 -0.405589
4.78 -0.407324
4.79 -0.408946
4.8 -0.410575
4.81 -0.412289
4.82 -0.41415
4.83 -0.416201
4.84 -0.418465
4.85 -0.420958
4.86 -0.423663
4.87 -0.426534
4.88 -0.429523
4.89 -0.432573
4.9 -0.435621
4.91 -0.438597
4.92 -0.441407
4.93 -0.443992
4.94 -0.446291
4.95 -0.44825
4.96 -0.449823
4.97 -0.450976
4.98 -0.451667
4.99 -0.451872
5 -0.451626
5.01 -0.450942
5.02 -0.449839
5.03 -0.448345
5.04 -0.44649
5.05 -0.444274
5.06 -0.441758
5.07 -0.438971
5.08 -0.435932
5.09 -0.432651
5.1 -0.429128
5.11 -0.425343
5.12 -0.421258
5.13 -0.416861
5.14 -0.412108
5.15 -0.40695
5.16 -0.401331
5.17 -0.395195
5.18 -0.388429
5.19 -0.381007
5.2 -0.3729
5.21 -0.364074
5.22 -0.354506
5.23 -0.344189
5.24 -0.333113
5.25 -0.321264
5.26 -0.30876
5.27 -0.295667
5.28 -0.282073
5.29 -0.268075
5.3 -0.253786
5.31 -0.239325
5.32 -0.224844
5.33 -0.210479
5.34 -0.19636
5.35 -0.182607
5.36 -0.169333
5.37 -0.156644
5.38 -0.144692
5.39 -0.133474
5.4 -0.123026
5.41 -0.113367
5.42 -0.104493
5.43 -0.0963786
5.44 -0.0890256
5.45 -0.0823525
5.46 -0.0762481
5.47 -0.0706281
5.48 -0.0654035
5.49 -0.0604836
5.5 -0.0557814
5.51 -0.0512223
5.52 -0.046716
5.53 -0.0422081
5.54 -0.0376606
5.55 -0.0330525
5.56 -0.0283806
5.57 -0.0236588
5.58 -0.0189257
5.59 -0.0142345
5.6 -0.00964704
5.61 -0.00523386
5.62 -0.00107019
5.63 0.0027678
5.64 0.00615676
5.65 0.00906599
5.66 0.0114483
5.67 0.0132682
5.68 0.0145087
5.69 0.0151726
5.7 0.0152621
5.71 0.0148188
5.72 0.0139558
5.73 0.0127653
5.74 0.0113564
5.75 0.00985161
5.76 0.00838296
5.77 0.00711823
5.78 0.00619663
5.79 0.00574544
5.8 0.00588503
5.81 0.00672064
5.82 0.00833838
5.83 0.0108311
5.84 0.0142836
5.85 0.0186275
5.86 0.0238384
5.87 0.0298646
5.88 0.0366284
5.89 0.0440286
5.9 0.051976
5.91 0.0602853
5.92 0.0687897
5.93 0.0773334
5.94 0.085761
5.95 0.0939233
5.96 0.10167
5.97 0.108828
5.98 0.115343
5.99 0.121142
6 0.126182
6.01 0.130447
6.02 0.133949
6.03 0.13668
6.04 0.138741
6.05 0.140259
6.06 0.141344
6.07 0.142124
6.08 0.142733
6.09 0.143309
6.1 0.144014
6.11 0.144971
6.12 0.14629
6.13 0.148061
6.14 0.15035
6.15 0.153199
6.16 0.156656
6.17 0.160692
6.18 0.165225
6.19 0.170174
6.2 0.175435
6.21 0.180881
6.22 0.186369
6.23 0.191711
6.24 0.19674
6.25 0.201291
6.26 0.205205
6.27 0.20833
6.28 0.210535
6.29 0.211643
6.3 0.211541
6.31 0.210239
6.32 0.207709
6.33 0.20395
6.34 0.198992
6.35 0.19289
6.36 0.185625
6.37 0.177415
6.38 0.168399
6.39 0.158715
6.4 0.14851
6.41 0.137935
6.42 0.127134
6.43 0.116268
6.44 0.105478
6.45 0.0948782
6.46 0.0845634
6.47 0.0746087
6.48 0.0650679
6.49 0.0560164
6.5 0.0474301
6.51 0.0392846
6.52 0.0315479
6.53 0.0241738
6.54 0.0171045
6.55 0.0102791
6.56 0.00362781
6.57 -0.00293861
6.58 -0.00948533
6.59 -0.0160699
6.6 -0.0227396
6.61 -0.0295287
6.62 -0.0364695
6.63 -0.0435571
6.64 -0.050771
6.65 -0.0580802
6.66 -0.0654397
6.67 -0.0727919
6.68 -0.0800661
6.69 -0.0871649
6.7 -0.0940159
6.71 -0.100537
6.72 -0.10665
6.73 -0.112279
6.74 -0.117357
6.75 -0.121779
6.76 -0.125511
6.77 -0.12855
6.78 -0.130879
6.79 -0.132494
6.8 -0.133404
6.81 -0.133621
6.82 -0.133113
6.83 -0.131993
6.84 -0.130302
6.85 -0.128085
6.86 -0.125384
6.87 -0.12224
6.88 -0.118665
6.89 -0.114692
6.9 -0.110358
6.91 -0.105669
6.92 -0.100622
6.93 -0.095199
6.94 -0.089376
6.95 -0.0830641
6.96 -0.0762653
6.97 -0.0689331
6.98 -0.061018
6.99 -0.0524708
7 -0.0432453
7.01 -0.0332634
7.02 -0.0224777
7.03 -0.0109183
7.04 0.00141967
7.05 0.0145267
7.06 0.028378
7.07 0.042933
7.08 0.0581949
7.09 0.0740245
7.1 0.0903247
7.11 0.106996
7.12 0.123929
7.13 0.141008
7.14 0.158111
7.15 0.175094
7.16 0.191841
7.17 0.208237
7.18 0.224178
7.19 0.239566
7.2 0.254319
7.21 0.268292
7.22 0.28147
7.23 0.293831
7.24 0.305346
7.25 0.315999
7.26 0.325785
7.27 0.334685
7.28 0.342662
7.29 0.34981
7.3 0.35615
7.31 0.361701
7.32 0.366481
7.33 0.370504
7.34 0.373715
7.35 0.376148
7.36 0.377818
7.37 0.378705
7.38 0.378781
7.39 0.378009
7.4 0.376329
7.41 0.373606
7.42 0.369877
7.43 0.365085
7.44 0.359178
7.45 0.352106
7.46 0.343824
7.47 0.33421
7.48 0.323268
7.49 0.311048
7.5 0.297561
7.51 0.282832
7.52 0.266902
7.53 0.249826
7.54 0.231581
7.55 0.212389
7.56 0.192365
7.57 0.171635
7.58 0.150339
7.59 0.128623
7.6 0.106638
7.61 0.0845665
7.62 0.0625829
7.63 0.0408451
7.64 0.019506
7.65 -0.00128828
7.66 -0.0214012
7.67 -0.0406045
7.68 -0.0588636
7.69 -0.0760888
7.7 -0.0922011
7.71 -0.107138
7.72 -0.120852
7.73 -0.13325
7.74 -0.144291
7.75 -0.154062
7.76 -0.162579
7.77 -0.169869
7.78 -0.175969
7.79 -0.180928
7.8 -0.184696
7.81 -0.187434
7.82 -0.189226
7.83 -0.190142
7.84 -0.190256
7.85 -0.189639
7.86 -0.188343
7.87 -0.186425
7.88 -0.184005
7.89 -0.18115
7.9 -0.177924
7.91 -0.174386
7.92 -0.170594
7.93 -0.166584
7.94 -0.162422
7.95 -0.158157
7.96 -0.153824
7.97 -0.149458
7.98 -0.145087
7.99 -0.140737
8 -0.136432
8.01 -0.132187
8.02 -0.128013
8.03 -0.123918
8.04 -0.119908
8.05 -0.115986
8.06 -0.112161
8.07 -0.108429
8.08 -0.104784
8.09 -0.101224
8.1 -0.0977485
8.11 -0.0943552
8.12 -0.0910455
8.13 -0.0878282
8.14 -0.0846981
8.15 -0.0816603
8.16 -0.0787217
8.17 -0.0758909
8.18 -0.073178
8.19 -0.0706035
8.2 -0.0681789
8.21 -0.0659093
8.22 -0.0638055
8.23 -0.0618771
8.24 -0.0601307
8.25 -0.0585711
8.26 -0.0572181
8.27 -0.0560447
8.28 -0.0550399
8.29 -0.0541874
8.3 -0.053465
8.31 -0.052845
8.32 -0.052296
8.33 -0.0517738
8.34 -0.0512311
8.35 -0.0506221
8.36 -0.0498988
8.37 -0.0490127
8.38 -0.0479161
8.39 -0.0465314
8.4 -0.0448398
8.41 -0.0428091
8.42 -0.0404119
8.43 -0.037629
8.44 -0.0344508
8.45 -0.0308598
8.46 -0.0268597
8.47 -0.0225028
8.48 -0.0178236
8.49 -0.0128662
8.5 -0.00768347
8.51 -0.00233588
8.52 0.00311248
8.53 0.0085743
8.54 0.013974
8.55 0.0192378
8.56 0.0242938
8.57 0.0290744
8.58 0.0335041
8.59 0.0375032
8.6 0.041058
8.61 0.0441366
8.62 0.046718
8.63 0.0487931
8.64 0.0503639
8.65 0.0514034
8.66 0.0519678
8.67 0.0521072
8.68 0.051864
8.69 0.0512864
8.7 0.0504259
8.71 0.0493319
8.72 0.0480513
8.73 0.0466538
8.74 0.0451836
8.75 0.043678
8.76 0.0421665
8.77 0.0406691
8.78 0.0391978
8.79 0.0377498
8.8 0.0363107
8.81 0.0348577
8.82 0.0333588
8.83 0.0317748
8.84 0.0300579
8.85 0.028135
8.86 0.0259682
8.87 0.0235051
8.88 0.0206955
8.89 0.0174933
8.9 0.0138583
8.91 0.00972577
8.92 0.00507591
8.93 -7.80551e-05
8.94 -0.00573675
8.95 -0.01189
8.96 -0.0185171
8.97 -0.0255874
8.98 -0.0331019
8.99 -0.0409597
9 -0.0491048
9.01 -0.0574766
9.02 -0.066012
9.03 -0.0746468
9.04 -0.0833164
9.05 -0.0919517
9.06 -0.100496
9.07 -0.108901
9.08 -0.117125
9.09 -0.125134
9.1 -0.132901
9.11 -0.14038
9.12 -0.147587
9.13 -0.154524
9.14 -0.161197
9.15 -0.167615
9.16 -0.173795
9.17 -0.179744
9.18 -0.185476
9.19 -0.191027
9.2 -0.196409
9.21 -0.201637
9.22 -0.206716
9.23 -0.211648
9.24 -0.216415
9.25 -0.221016
9.26 -0.225436
9.27 -0.229651
9.28 -0.233634
9.29 -0.237351
9.3 -0.240755
9.31 -0.243783
9.32 -0.246424
9.33 -0.248637
9.34 -0.250387
9.35 -0.251639
9.36 -0.252365
9.37 -0.25249
9.38 -0.252025
9.39 -0.250976
9.4 -0.24934
9.41 -0.247118
9.42 -0.244319
9.43 -0.240946
9.44 -0.236979
9.45 -0.232496
9.46 -0.227524
9.47 -0.222089
9.48 -0.216222
9.49 -0.209948
9.5 -0.203269
9.51 -0.196223
9.52 -0.188845
9.53 -0.181151
9.54 -0.173153
9.55 -0.164857
9.56 -0.156264
9.57 -0.147344
9.58 -0.138124
9.59 -0.128594
9.6 -0.118748
9.61 -0.108573
9.62 -0.0980604
9.63 -0.0871786
9.64 -0.0759223
9.65 -0.0643067
9.66 -0.0523316
9.67 -0.0400009
9.68 -0.0273229
9.69 -0.0143105
9.7 -0.000947202
9.71 0.0127057
9.72 0.0266203
9.73 0.0407653
9.74 0.0551063
9.75 0.0696065
9.76 0.0842309
9.77 0.0989347
9.78 0.11367
9.79 0.128396
9.8 0.143073
9.81 0.157663
9.82 0.172129
9.83 0.186414
9.84 0.200496
9.85 0.214345
9.86 0.227929
9.87 0.241217
9.88 0.25418
9.89 0.266773
9.9 0.278945
9.91 0.290694
9.92 0.301987
9.93 0.31279
9.94 0.323069
9.95 0.332789
9.96 0.341852
9.97 0.350259
9.98 0.357987
9.99 0.365003
10 0.371271
10.01 0.376762
10.02 0.381425
10.03 0.38519
10.04 0.388114
10.05 0.390191
10.06 0.391425
10.07 0.391826
10.08 0.391416
10.09 0.390163
10.1 0.388151
10.11 0.385457
10.12 0.382141
10.13 0.378269
10.14 0.373915
10.15 0.369151
10.16 0.364043
10.17 0.358712
10.18 0.353243
10.19 0.347717
10.2 0.34221
10.21 0.336795
10.22 0.331553
10.23 0.326541
10.24 0.321799
10.25 0.317359
10.26 0.313245
10.27 0.30947
10.28 0.306036
10.29 0.302967
10.3 0.300203
10.31 0.297713
10.32 0.295459
10.33 0.293394
10.34 0.291469
10.35 0.289632
10.36 0.287816
10.37 0.285962
10.38 0.284012
10.39 0.281913
10.4 0.279613
10.41 0.277066
10.42 0.274191
10.43 0.27098
10.44 0.267403
10.45 0.263433
10.46 0.25905
10.47 0.254237
10.48 0.248959
10.49 0.243198
10.5 0.236977
10.51 0.230295
10.52 0.223149
10.53 0.215538
10.54 0.207464
10.55 0.198877
10.56 0.189821
10.57 0.180302
10.58 0.170323
10.59 0.159884
10.6 0.148989
10.61 0.137625
10.62 0.125782
10.63 0.113505
10.64 0.100807
10.65 0.0877043
10.66 0.0742185
10.67 0.0603746
10.68 0.0461759
10.69 0.0316829
10.7 0.0169443
10.71 0.00200408
10.72 -0.0130903
10.73 -0.0282886
10.74 -0.0435389
10.75 -0.058781
10.76 -0.0739588
10.77 -0.0890215
10.78 -0.103921
10.79 -0.118613
10.8 -0.133059
10.81 -0.147198
10.82 -0.161015
10.83 -0.1745
10.84 -0.187643
10.85 -0.200439
10.86 -0.212891
10.87 -0.225005
10.88 -0.236771
10.89 -0.248245
10.9 -0.259454
10.91 -0.270424
10.92 -0.281187
10.93 -0.291772
10.94 -0.302198
10.95 -0.312497
10.96 -0.322697
10.97 -0.332811
10.98 -0.342848
10.99 -0.35281
11 -0.362689
11.01 -0.372459
11.02 -0.382105
11.03 -0.391596
11.04 -0.400894
11.05 -0.409956
11.06 -0.418732
11.07 -0.427147
11.08 -0.435134
11.09 -0.442659
11.1 -0.449663
11.11 -0.456093
11.12 -0.461895
11.13 -0.467021
11.14 -0.471345
11.15 -0.474901
11.16 -0.477667
11.17 -0.47962
11.18 -0.480746
11.19 -0.48104
11.2 -0.480461
11.21 -0.479001
11.22 -0.476732
11.23 -0.473675
11.24 -0.469855
11.25 -0.465298
11.26 -0.460035
11.27 -0.454034
11.28 -0.447387
11.29 -0.440136
11.3 -0.432312
11.31 -0.423943
11.32 -0.415054
11.33 -0.405652
11.34 -0.395737
11.35 -0.385363
11.36 -0.374544
11.37 -0.363289
11.38 -0.351606
11.39 -0.3395
11.4 -0.326939
11.41 -0.313952
11.42 -0.300555
11.43 -0.286753
11.44 -0.272554
11.45 -0.257966
11.46 -0.242994
11.47 -0.227631
11.48 -0.211933
11.49 -0.195926
11.5 -0.179639
11.51 -0.163107
11.52 -0.14637
11.53 -0.12946
11.54 -0.112438
11.55 -0.0953616
11.56 -0.0782838
11.57 -0.0612602
11.58 -0.0443475
11.59 -0.0276058
11.6 -0.0111187
11.61 0.00507743
11.62 0.0209303
11.63 0.0363906
11.64 0.0514131
11.65 0.065957
11.66 0.0799504
11.67 0.0933679
11.68 0.106214
11.69 0.118472
11.7 0.130132
11.71 0.141193
11.72 0.151656
11.73 0.161465
11.74 0.170704
11.75 0.179396
11.76 0.187564
11.77 0.195236
11.78 0.202442
11.79 0.209193
11.8 0.215522
11.81 0.221487
11.82 0.227115
11.83 0.232433
11.84 0.237463
11.85 0.242221
11.86 0.24669
11.87 0.250902
11.88 0.254853
11.89 0.258535
11.9 0.261929
11.91 0.26501
11.92 0.26773
11.93 0.270034
11.94 0.271903
11.95 0.273288
11.96 0.274137
11.97 0.274396
11.98 0.27401
11.99 0.272849
12 0.27091
12.01 0.268156
12.02 0.264545
12.03 0.260036
12.04 0.254599
12.05 0.248177
12.06 0.240705
12.07 0.232258
12.08 0.222843
12.09 0.212475
12.1 0.201179
12.11 0.188987
12.12 0.175874
12.13 0.161943
12.14 0.14728
12.15 0.13195
12.16 0.116021
