# xPDFsuite Configuration #
[PDF]
wavelength = 0.1
dataformat = QA
inputfile = BiMsol6_insitu_700 C-00529.xy
backgroundfile = Quartz2mm-dist500-00000.xy
mode = xray
bgscale = 0.0042
composition = Bi2Fe4O9
outputtype = gr
qmaxinst = 24.998449118
qmin = 0.1
qmax = 21.4986662415
rmax = 80.0
rmin = 0.0
rstep = 0.01
rpoly = 0.9

[Misc]
inputdir = C:/Data/Seafile/CPH/Beamtime/Desy Oct 20/In situ data/Processed/BiMsol6/PDF
savedir = C:/Data/Seafile/CPH/Beamtime/Desy Oct 20/In situ data/PDF/BiMsol6
backgroundfilefull = C:/Data/Seafile/CPH/Beamtime/Desy Oct 20/In situ data/Processed/Standard_Empty_Cap/Quartz2mm-dist500-00000.xy

#### start data
#S 1
#L r($\AA$)  G($\AA^{-2}$)
0 0
0.01 0.00642656
0.02 0.0124916
0.03 0.0178857
0.04 0.0223309
0.05 0.025594
0.06 0.0274964
0.07 0.0278431
0.08 0.0265759
0.09 0.0238367
0.1 0.0197419
0.11 0.0144724
0.12 0.00826616
0.13 0.00140766
0.14 -0.00578448
0.15 -0.0129055
0.16 -0.0196142
0.17 -0.0255901
0.18 -0.0305453
0.19 -0.0342384
0.2 -0.036421
0.21 -0.0369216
0.22 -0.0358339
0.23 -0.03322
0.24 -0.02922
0.25 -0.024047
0.26 -0.0179793
0.27 -0.0113321
0.28 -0.00456623
0.29 0.00190813
0.3 0.00769255
0.31 0.0124073
0.32 0.01571
0.33 0.0172535
0.34 0.0166969
0.35 0.014085
0.36 0.0094089
0.37 0.0027628
0.38 -0.00565486
0.39 -0.0155439
0.4 -0.0265583
0.41 -0.0380911
0.42 -0.0495459
0.43 -0.0603164
0.44 -0.0697745
0.45 -0.0772934
0.46 -0.0822104
0.47 -0.0836732
0.48 -0.0814889
0.49 -0.0753079
0.5 -0.0649007
0.51 -0.0501717
0.52 -0.0311691
0.53 -0.00782007
0.54 0.0193397
0.55 0.049602
0.56 0.0823089
0.57 0.11669
0.58 0.151884
0.59 0.186951
0.6 0.220696
0.61 0.252178
0.62 0.280453
0.63 0.304636
0.64 0.323933
0.65 0.337664
0.66 0.344885
0.67 0.345216
0.68 0.338835
0.69 0.325756
0.7 0.306173
0.71 0.28046
0.72 0.249151
0.73 0.212466
0.74 0.171871
0.75 0.128321
0.76 0.0828284
0.77 0.0364401
0.78 -0.00979058
0.79 -0.0547255
0.8 -0.0972271
0.81 -0.136531
0.82 -0.1719
0.83 -0.202735
0.84 -0.22859
0.85 -0.249179
0.86 -0.263833
0.87 -0.27312
0.88 -0.277364
0.89 -0.276957
0.9 -0.272415
0.91 -0.264361
0.92 -0.253417
0.93 -0.240369
0.94 -0.226207
0.95 -0.211705
0.96 -0.197596
0.97 -0.184557
0.98 -0.173182
0.99 -0.164204
1 -0.157883
1.01 -0.154394
1.02 -0.153839
1.03 -0.156197
1.04 -0.161333
1.05 -0.169063
1.06 -0.179129
1.07 -0.190883
1.08 -0.203847
1.09 -0.217517
1.1 -0.23138
1.11 -0.244938
1.12 -0.257632
1.13 -0.26904
1.14 -0.278867
1.15 -0.28687
1.16 -0.292893
1.17 -0.296871
1.18 -0.298797
1.19 -0.298648
1.2 -0.296834
1.21 -0.293629
1.22 -0.289352
1.23 -0.284357
1.24 -0.279016
1.25 -0.273723
1.26 -0.268874
1.27 -0.264772
1.28 -0.26167
1.29 -0.25976
1.3 -0.259166
1.31 -0.259943
1.32 -0.262193
1.33 -0.265645
1.34 -0.270111
1.35 -0.275349
1.36 -0.281072
1.37 -0.28696
1.38 -0.292646
1.39 -0.297742
1.4 -0.301945
1.41 -0.304974
1.42 -0.306592
1.43 -0.306625
1.44 -0.304962
1.45 -0.301377
1.46 -0.296112
1.47 -0.289311
1.48 -0.281178
1.49 -0.271981
1.5 -0.262037
1.51 -0.251705
1.52 -0.241426
1.53 -0.231615
1.54 -0.222652
1.55 -0.214887
1.56 -0.208631
1.57 -0.204137
1.58 -0.2018
1.59 -0.20156
1.6 -0.203391
1.61 -0.207211
1.62 -0.212858
1.63 -0.22009
1.64 -0.228627
1.65 -0.238078
1.66 -0.247918
1.67 -0.257691
1.68 -0.266936
1.69 -0.275193
1.7 -0.282032
1.71 -0.286865
1.72 -0.28944
1.73 -0.289559
1.74 -0.287053
1.75 -0.28184
1.76 -0.273928
1.77 -0.263353
1.78 -0.250175
1.79 -0.234914
1.8 -0.21792
1.81 -0.199596
1.82 -0.180387
1.83 -0.160758
1.84 -0.141224
1.85 -0.122302
1.86 -0.104413
1.87 -0.0879352
1.88 -0.0731882
1.89 -0.0604223
1.9 -0.0498439
1.91 -0.0417422
1.92 -0.035879
1.93 -0.0321591
1.94 -0.0304129
1.95 -0.0304046
1.96 -0.0318435
1.97 -0.0344465
1.98 -0.0377774
1.99 -0.0414108
2 -0.0449826
2.01 -0.048152
2.02 -0.0506162
2.03 -0.0521182
2.04 -0.0523255
2.05 -0.0512497
2.06 -0.0488636
2.07 -0.0452164
2.08 -0.0404317
2.09 -0.0347032
2.1 -0.0282667
2.11 -0.0214845
2.12 -0.0147536
2.13 -0.00845476
2.14 -0.00297605
2.15 0.00130199
2.16 0.00402135
2.17 0.00462491
2.18 0.00301806
2.19 -0.000976145
2.2 -0.00747705
2.21 -0.0165268
2.22 -0.0280876
2.23 -0.0421415
2.24 -0.0585127
2.25 -0.0767489
2.26 -0.0965086
2.27 -0.117403
2.28 -0.139008
2.29 -0.160879
2.3 -0.182502
2.31 -0.203406
2.32 -0.223185
2.33 -0.241471
2.34 -0.257949
2.35 -0.272362
2.36 -0.284444
2.37 -0.293965
2.38 -0.301097
2.39 -0.305901
2.4 -0.308509
2.41 -0.309115
2.42 -0.307971
2.43 -0.305279
2.44 -0.3015
2.45 -0.297034
2.46 -0.292244
2.47 -0.287485
2.48 -0.283093
2.49 -0.279395
2.5 -0.276748
2.51 -0.275284
2.52 -0.275146
2.53 -0.27642
2.54 -0.279128
2.55 -0.283235
2.56 -0.288741
2.57 -0.295428
2.58 -0.303051
2.59 -0.311381
2.6 -0.320168
2.61 -0.32915
2.62 -0.338056
2.63 -0.346569
2.64 -0.354464
2.65 -0.361535
2.66 -0.367607
2.67 -0.372545
2.68 -0.376256
2.69 -0.378606
2.7 -0.379615
2.71 -0.379396
2.72 -0.378036
2.73 -0.375654
2.74 -0.372393
2.75 -0.36842
2.76 -0.363871
2.77 -0.359007
2.78 -0.354007
2.79 -0.349038
2.8 -0.344249
2.81 -0.339769
2.82 -0.335725
2.83 -0.332202
2.84 -0.329206
2.85 -0.326744
2.86 -0.32479
2.87 -0.323296
2.88 -0.322188
2.89 -0.321397
2.9 -0.320776
2.91 -0.320208
2.92 -0.319576
2.93 -0.318766
2.94 -0.31767
2.95 -0.316169
2.96 -0.314155
2.97 -0.311591
2.98 -0.308428
2.99 -0.304633
3 -0.300187
3.01 -0.295084
3.02 -0.289266
3.03 -0.282796
3.04 -0.275702
3.05 -0.267999
3.06 -0.259697
3.07 -0.250797
3.08 -0.241272
3.09 -0.231064
3.1 -0.220186
3.11 -0.208587
3.12 -0.196204
3.13 -0.182961
3.14 -0.168774
3.15 -0.153459
3.16 -0.13697
3.17 -0.119255
3.18 -0.10024
3.19 -0.0798661
3.2 -0.0580919
3.21 -0.0348721
3.22 -0.0101183
3.23 0.0159815
3.24 0.0433417
3.25 0.0718423
3.26 0.101329
3.27 0.131614
3.28 0.162505
3.29 0.193699
3.3 0.224903
3.31 0.255827
3.32 0.286175
3.33 0.315649
3.34 0.34394
3.35 0.370589
3.36 0.395468
3.37 0.418343
3.38 0.439011
3.39 0.457303
3.4 0.473089
3.41 0.486112
3.42 0.496345
3.43 0.503936
3.44 0.508927
3.45 0.5114
3.46 0.51147
3.47 0.509282
3.48 0.504784
3.49 0.498424
3.5 0.490407
3.51 0.480945
3.52 0.470247
3.53 0.458522
3.54 0.445934
3.55 0.432686
3.56 0.418995
3.57 0.405009
3.58 0.390857
3.59 0.376645
3.6 0.362465
3.61 0.348403
3.62 0.334511
3.63 0.320827
3.64 0.30738
3.65 0.294195
3.66 0.281293
3.67 0.268707
3.68 0.256476
3.69 0.244607
3.7 0.233137
3.71 0.222113
3.72 0.211589
3.73 0.201632
3.74 0.192384
3.75 0.183891
3.76 0.17623
3.77 0.169493
3.78 0.163773
3.79 0.159164
3.8 0.15579
3.81 0.153816
3.82 0.153202
3.83 0.154003
3.84 0.156257
3.85 0.159988
3.86 0.165199
3.87 0.171997
3.88 0.180272
3.89 0.189918
3.9 0.200865
3.91 0.213026
3.92 0.226301
3.93 0.240594
3.94 0.255837
3.95 0.271804
3.96 0.28836
3.97 0.305367
3.98 0.322688
3.99 0.340187
4 0.357725
4.01 0.375153
4.02 0.39235
4.03 0.409198
4.04 0.425587
4.05 0.441415
4.06 0.456579
4.07 0.4709
4.08 0.48437
4.09 0.496909
4.1 0.508445
4.11 0.518907
4.12 0.528232
4.13 0.536285
4.14 0.543004
4.15 0.54841
4.16 0.552458
4.17 0.555109
4.18 0.556332
4.19 0.556102
4.2 0.554234
4.21 0.550881
4.22 0.546053
4.23 0.539762
4.24 0.532031
4.25 0.522892
4.26 0.512322
4.27 0.500358
4.28 0.487152
4.29 0.472773
4.3 0.457294
4.31 0.440794
4.32 0.423354
4.33 0.404977
4.34 0.385828
4.35 0.365997
4.36 0.34556
4.37 0.324588
4.38 0.303143
4.39 0.281271
4.4 0.259013
4.41 0.236443
4.42 0.213599
4.43 0.19051
4.44 0.167203
4.45 0.1437
4.46 0.120011
4.47 0.0961687
4.48 0.0722025
4.49 0.0481391
4.5 0.0240106
4.51 -0.000144942
4.52 -0.0242803
4.53 -0.0483297
4.54 -0.0722323
4.55 -0.0959169
4.56 -0.119305
4.57 -0.142312
4.58 -0.164848
4.59 -0.186767
4.6 -0.207987
4.61 -0.228437
4.62 -0.248027
4.63 -0.266674
4.64 -0.284305
4.65 -0.300835
4.66 -0.316112
4.67 -0.330211
4.68 -0.343113
4.69 -0.354814
4.7 -0.365328
4.71 -0.374681
4.72 -0.382845
4.73 -0.389909
4.74 -0.396
4.75 -0.4012
4.76 -0.405598
4.77 -0.40929
4.78 -0.412371
4.79 -0.414896
4.8 -0.417026
4.81 -0.41885
4.82 -0.420451
4.83 -0.421903
4.84 -0.423271
4.85 -0.424607
4.86 -0.425958
4.87 -0.427352
4.88 -0.428804
4.89 -0.430317
4.9 -0.431887
4.91 -0.433499
4.92 -0.43513
4.93 -0.436746
4.94 -0.438315
4.95 -0.439801
4.96 -0.441166
4.97 -0.442374
4.98 -0.443377
4.99 -0.44413
5 -0.444617
5.01 -0.444809
5.02 -0.444678
5.03 -0.444202
5.04 -0.443359
5.05 -0.442089
5.06 -0.440404
5.07 -0.438293
5.08 -0.435741
5.09 -0.432728
5.1 -0.429239
5.11 -0.425238
5.12 -0.420681
5.13 -0.415591
5.14 -0.409953
5.15 -0.403753
5.16 -0.396978
5.17 -0.389622
5.18 -0.381631
5.19 -0.373046
5.2 -0.363897
5.21 -0.354205
5.22 -0.344003
5.23 -0.333331
5.24 -0.322231
5.25 -0.310749
5.26 -0.298996
5.27 -0.287051
5.28 -0.275002
5.29 -0.262942
5.3 -0.250966
5.31 -0.239193
5.32 -0.227724
5.33 -0.216642
5.34 -0.206032
5.35 -0.195969
5.36 -0.186519
5.37 -0.177743
5.38 -0.169747
5.39 -0.162481
5.4 -0.15595
5.41 -0.150144
5.42 -0.145037
5.43 -0.140593
5.44 -0.136797
5.45 -0.133568
5.46 -0.130808
5.47 -0.128442
5.48 -0.126393
5.49 -0.124587
5.5 -0.122949
5.51 -0.121418
5.52 -0.119918
5.53 -0.118401
5.54 -0.116829
5.55 -0.115176
5.56 -0.113427
5.57 -0.111571
5.58 -0.109617
5.59 -0.107585
5.6 -0.105497
5.61 -0.10338
5.62 -0.10126
5.63 -0.0991631
5.64 -0.0971186
5.65 -0.0951385
5.66 -0.0932284
5.67 -0.0913838
5.68 -0.0895889
5.69 -0.0878159
5.7 -0.0860214
5.71 -0.0841422
5.72 -0.0821151
5.73 -0.0798662
5.74 -0.0773157
5.75 -0.0743801
5.76 -0.0709754
5.77 -0.0669595
5.78 -0.0622928
5.79 -0.0569236
5.8 -0.0508023
5.81 -0.0438953
5.82 -0.0361866
5.83 -0.0276546
5.84 -0.0182907
5.85 -0.00821279
5.86 0.00250795
5.87 0.0137816
5.88 0.0255017
5.89 0.0375479
5.9 0.0497937
5.91 0.0620726
5.92 0.0742387
5.93 0.0861541
5.94 0.097688
5.95 0.108721
5.96 0.119132
5.97 0.128774
5.98 0.137648
5.99 0.145716
6 0.152965
6.01 0.159407
6.02 0.165076
6.03 0.169981
6.04 0.174235
6.05 0.177965
6.06 0.181278
6.07 0.184289
6.08 0.187117
6.09 0.189878
6.1 0.192697
6.11 0.195672
6.12 0.198883
6.13 0.202386
6.14 0.206218
6.15 0.210389
6.16 0.214903
6.17 0.219709
6.18 0.224717
6.19 0.229835
6.2 0.23495
6.21 0.239932
6.22 0.244641
6.23 0.248861
6.24 0.252475
6.25 0.255336
6.26 0.257305
6.27 0.258255
6.28 0.258076
6.29 0.256614
6.3 0.253782
6.31 0.249628
6.32 0.244149
6.33 0.237369
6.34 0.229337
6.35 0.220131
6.36 0.209746
6.37 0.198419
6.38 0.1863
6.39 0.173536
6.4 0.160282
6.41 0.146693
6.42 0.132922
6.43 0.11913
6.44 0.10546
6.45 0.0920257
6.46 0.0789221
6.47 0.0662243
6.48 0.0539859
6.49 0.0422856
6.5 0.0310953
6.51 0.020388
6.52 0.0101298
6.53 0.000271944
6.54 -0.00924696
6.55 -0.0184912
6.56 -0.0275357
6.57 -0.0364789
6.58 -0.0453941
6.59 -0.0543478
6.6 -0.0633969
6.61 -0.0725863
6.62 -0.0819624
6.63 -0.0915306
6.64 -0.101279
6.65 -0.111185
6.66 -0.121211
6.67 -0.131303
6.68 -0.141393
6.69 -0.151387
6.7 -0.1612
6.71 -0.170738
6.72 -0.179907
6.73 -0.188613
6.74 -0.196765
6.75 -0.204224
6.76 -0.210923
6.77 -0.216823
6.78 -0.22187
6.79 -0.22602
6.8 -0.229242
6.81 -0.231507
6.82 -0.232708
6.83 -0.23295
6.84 -0.232244
6.85 -0.230604
6.86 -0.22805
6.87 -0.224604
6.88 -0.220236
6.89 -0.214975
6.9 -0.208887
6.91 -0.201985
6.92 -0.194279
6.93 -0.185772
6.94 -0.176463
6.95 -0.166254
6.96 -0.155222
6.97 -0.143357
6.98 -0.130647
6.99 -0.117078
7 -0.102639
7.01 -0.0872813
7.02 -0.0709912
7.03 -0.0538375
7.04 -0.0358398
7.05 -0.0170285
7.06 0.00255491
7.07 0.022857
7.08 0.0438724
7.09 0.065456
7.1 0.0875094
7.11 0.109934
7.12 0.132624
7.13 0.155468
7.14 0.178346
7.15 0.201123
7.16 0.223681
7.17 0.245908
7.18 0.267696
7.19 0.288944
7.2 0.30956
7.21 0.329387
7.22 0.348394
7.23 0.366539
7.24 0.383771
7.25 0.400052
7.26 0.41535
7.27 0.429614
7.28 0.442762
7.29 0.454874
7.3 0.465942
7.31 0.475959
7.32 0.484917
7.33 0.492807
7.34 0.499525
7.35 0.505099
7.36 0.509545
7.37 0.512831
7.38 0.514923
7.39 0.515779
7.4 0.515332
7.41 0.513418
7.42 0.510117
7.43 0.505381
7.44 0.499164
7.45 0.491428
7.46 0.482139
7.47 0.471165
7.48 0.458531
7.49 0.444319
7.5 0.428551
7.51 0.411267
7.52 0.392524
7.53 0.372389
7.54 0.350834
7.55 0.328126
7.56 0.304397
7.57 0.279794
7.58 0.254476
7.59 0.228614
7.6 0.202376
7.61 0.175977
7.62 0.149623
7.63 0.1235
7.64 0.0977913
7.65 0.0726709
7.66 0.048305
7.67 0.0249648
7.68 0.00270334
7.69 -0.0183654
7.7 -0.0381406
7.71 -0.0565408
7.72 -0.0735036
7.73 -0.0889149
7.74 -0.102719
7.75 -0.115022
7.76 -0.125841
7.77 -0.135213
7.78 -0.143188
7.79 -0.149831
7.8 -0.155097
7.81 -0.159188
7.82 -0.162215
7.83 -0.164275
7.84 -0.165465
7.85 -0.165881
7.86 -0.165599
7.87 -0.164696
7.88 -0.163309
7.89 -0.161515
7.9 -0.159383
7.91 -0.156973
7.92 -0.154337
7.93 -0.151504
7.94 -0.148519
7.95 -0.14541
7.96 -0.142191
7.97 -0.138868
7.98 -0.135442
7.99 -0.131907
8 -0.128244
8.01 -0.124454
8.02 -0.120524
8.03 -0.116445
8.04 -0.112208
8.05 -0.107806
8.06 -0.103226
8.07 -0.0984776
8.08 -0.0935785
8.09 -0.0885444
8.1 -0.0833979
8.11 -0.0781671
8.12 -0.0728861
8.13 -0.0675984
8.14 -0.062353
8.15 -0.0571973
8.16 -0.0521808
8.17 -0.047353
8.18 -0.042763
8.19 -0.0384795
8.2 -0.0345454
8.21 -0.0309822
8.22 -0.0278188
8.23 -0.0250763
8.24 -0.0227668
8.25 -0.0208946
8.26 -0.0194976
8.27 -0.0185063
8.28 -0.0178912
8.29 -0.0176135
8.3 -0.0176264
8.31 -0.017876
8.32 -0.018309
8.33 -0.0188522
8.34 -0.0194296
8.35 -0.0199759
8.36 -0.0204278
8.37 -0.0207267
8.38 -0.0208199
8.39 -0.0206313
8.4 -0.0201497
8.41 -0.0193555
8.42 -0.018239
8.43 -0.0168029
8.44 -0.0150621
8.45 -0.0130332
8.46 -0.0107556
8.47 -0.00830083
8.48 -0.00572905
8.49 -0.00310745
8.5 -0.000508054
8.51 0.00199442
8.52 0.00430051
8.53 0.00634301
8.54 0.00805758
8.55 0.00938322
8.56 0.0102675
8.57 0.010668
8.58 0.0105355
8.59 0.00982419
8.6 0.00857434
8.61 0.0067956
8.62 0.00450952
8.63 0.00174857
8.64 -0.00144514
8.65 -0.00504981
8.66 -0.00897959
8.67 -0.0131625
8.68 -0.0175366
8.69 -0.0220412
8.7 -0.0266191
8.71 -0.0312175
8.72 -0.0357852
8.73 -0.0402874
8.74 -0.0447008
8.75 -0.0490125
8.76 -0.0532204
8.77 -0.0573333
8.78 -0.061366
8.79 -0.0653537
8.8 -0.0693362
8.81 -0.0733551
8.82 -0.0774552
8.83 -0.0816821
8.84 -0.0860828
8.85 -0.0907222
8.86 -0.0956144
8.87 -0.100785
8.88 -0.106248
8.89 -0.11201
8.9 -0.118063
8.91 -0.124405
8.92 -0.130995
8.93 -0.137775
8.94 -0.144691
8.95 -0.151682
8.96 -0.158679
8.97 -0.165609
8.98 -0.172375
8.99 -0.178912
9 -0.185153
9.01 -0.191033
9.02 -0.196499
9.03 -0.201507
9.04 -0.205995
9.05 -0.209938
9.06 -0.213363
9.07 -0.21628
9.08 -0.218711
9.09 -0.220692
9.1 -0.222266
9.11 -0.223455
9.12 -0.22436
9.13 -0.22505
9.14 -0.225591
9.15 -0.226045
9.16 -0.226475
9.17 -0.226936
9.18 -0.227482
9.19 -0.228144
9.2 -0.228941
9.21 -0.229883
9.22 -0.230965
9.23 -0.232172
9.24 -0.233481
9.25 -0.234841
9.26 -0.236199
9.27 -0.2375
9.28 -0.238684
9.29 -0.23969
9.3 -0.240446
9.31 -0.240873
9.32 -0.240941
9.33 -0.240607
9.34 -0.239839
9.35 -0.238615
9.36 -0.236926
9.37 -0.234735
9.38 -0.232085
9.39 -0.229019
9.4 -0.225576
9.41 -0.221803
9.42 -0.217752
9.43 -0.213477
9.44 -0.209031
9.45 -0.204491
9.46 -0.19991
9.47 -0.195334
9.48 -0.190798
9.49 -0.186331
9.5 -0.181954
9.51 -0.177663
9.52 -0.17344
9.53 -0.169256
9.54 -0.165071
9.55 -0.160833
9.56 -0.156477
9.57 -0.151906
9.58 -0.147056
9.59 -0.14185
9.6 -0.136208
9.61 -0.130055
9.62 -0.123321
9.63 -0.1159
9.64 -0.10774
9.65 -0.0988402
9.66 -0.0891777
9.67 -0.0787445
9.68 -0.0675472
9.69 -0.0556066
9.7 -0.0428816
9.71 -0.0295073
9.72 -0.0155464
9.73 -0.00106923
9.74 0.0138471
9.75 0.0291214
9.76 0.0446798
9.77 0.06043
9.78 0.0762755
9.79 0.0921424
9.8 0.107963
9.81 0.123678
9.82 0.139236
9.83 0.154573
9.84 0.169671
9.85 0.184513
9.86 0.199085
9.87 0.21338
9.88 0.227394
9.89 0.241119
9.9 0.254546
9.91 0.267699
9.92 0.280575
9.93 0.293169
9.94 0.30547
9.95 0.317459
9.96 0.329077
9.97 0.340308
9.98 0.35112
9.99 0.361462
10 0.371281
10.01 0.380519
10.02 0.389095
10.03 0.3969
10.04 0.403932
10.05 0.410141
10.06 0.41548
10.07 0.419914
10.08 0.423418
10.09 0.425903
10.1 0.427416
10.11 0.428013
10.12 0.427729
10.13 0.426614
10.14 0.424732
10.15 0.422149
10.16 0.418917
10.17 0.415202
10.18 0.411108
10.19 0.406742
10.2 0.402213
10.21 0.397624
10.22 0.393085
10.23 0.388698
10.24 0.384539
10.25 0.380673
10.26 0.377149
10.27 0.374002
10.28 0.371256
10.29 0.36895
10.3 0.367025
10.31 0.365448
10.32 0.364173
10.33 0.363145
10.34 0.362297
10.35 0.361557
10.36 0.360835
10.37 0.360046
10.38 0.359108
10.39 0.357947
10.4 0.356489
10.41 0.354671
10.42 0.35238
10.43 0.349613
10.44 0.346333
10.45 0.342514
10.46 0.338138
10.47 0.333196
10.48 0.327658
10.49 0.321522
10.5 0.314835
10.51 0.307615
10.52 0.299876
10.53 0.291637
10.54 0.282914
10.55 0.273674
10.56 0.263972
10.57 0.253823
10.58 0.243231
10.59 0.232197
10.6 0.220721
10.61 0.208782
10.62 0.196356
10.63 0.183473
10.64 0.170131
10.65 0.156329
10.66 0.142072
10.67 0.127369
10.68 0.1122
10.69 0.0966188
10.7 0.0806702
10.71 0.0643954
10.72 0.0478434
10.73 0.0310704
10.74 0.0141369
10.75 -0.00288518
10.76 -0.01991
10.77 -0.0368634
10.78 -0.0536718
10.79 -0.0702635
10.8 -0.0865716
10.81 -0.102503
10.82 -0.118015
10.83 -0.133079
10.84 -0.147667
10.85 -0.161761
10.86 -0.175357
10.87 -0.188455
10.88 -0.201038
10.89 -0.213188
10.9 -0.224949
10.91 -0.236372
10.92 -0.247511
10.93 -0.258427
10.94 -0.269174
10.95 -0.27982
10.96 -0.290428
10.97 -0.301042
10.98 -0.3117
10.99 -0.322428
11 -0.333241
11.01 -0.344146
11.02 -0.355115
11.03 -0.366118
11.04 -0.37711
11.05 -0.388032
11.06 -0.398817
11.07 -0.409369
11.08 -0.419587
11.09 -0.429394
11.1 -0.438698
11.11 -0.447406
11.12 -0.455431
11.13 -0.462691
11.14 -0.46901
11.15 -0.474409
11.16 -0.478844
11.17 -0.48228
11.18 -0.484694
11.19 -0.486078
11.2 -0.486392
11.21 -0.485634
11.22 -0.48391
11.23 -0.481262
11.24 -0.477743
11.25 -0.473409
11.26 -0.468321
11.27 -0.462479
11.28 -0.456008
11.29 -0.448979
11.3 -0.441444
11.31 -0.43345
11.32 -0.425036
11.33 -0.416221
11.34 -0.40701
11.35 -0.397447
11.36 -0.387533
11.37 -0.377264
11.38 -0.366629
11.39 -0.355612
11.4 -0.344157
11.41 -0.332266
11.42 -0.319931
11.43 -0.307136
11.44 -0.29387
11.45 -0.280129
11.46 -0.265902
11.47 -0.251174
11.48 -0.23601
11.49 -0.220445
11.5 -0.204521
11.51 -0.188289
11.52 -0.171811
11.53 -0.155146
11.54 -0.138386
11.55 -0.121617
11.56 -0.104919
11.57 -0.0883735
11.58 -0.0720607
11.59 -0.0560618
11.6 -0.0404903
11.61 -0.025375
11.62 -0.0107699
11.63 0.00328015
11.64 0.0167401
11.65 0.029585
11.66 0.0417581
11.67 0.0532649
11.68 0.0641441
11.69 0.0744104
11.7 0.084085
11.71 0.093195
11.72 0.101771
11.73 0.109793
11.74 0.117358
11.75 0.1245
11.76 0.131251
11.77 0.13764
11.78 0.143695
11.79 0.149418
11.8 0.154826
11.81 0.159947
11.82 0.164785
11.83 0.169339
11.84 0.173605
11.85 0.177572
11.86 0.181193
11.87 0.184482
11.88 0.187425
11.89 0.190005
11.9 0.192204
11.91 0.194007
11.92 0.195379
11.93 0.196293
11.94 0.196767
11.95 0.196793
11.96 0.196361
11.97 0.195465
11.98 0.194099
11.99 0.192209
12 0.189826
12.01 0.186951
12.02 0.183574
12.03 0.179683
12.04 0.175264
12.05 0.170282
12.06 0.164684
12.07 0.158494
12.08 0.151685
12.09 0.144232
12.1 0.136107
12.11 0.127283
12.12 0.117672
12.13 0.10729
12.14 0.0961421
12.15 0.0842203
12.16 0.0715225
12.17 0.058056
