# xPDFsuite Configuration #
[PDF]
wavelength = 0.1
dataformat = QA
inputfile = BiMsol6_insitu_700 C-00654.xy
backgroundfile = Quartz2mm-dist500-00000.xy
mode = xray
bgscale = 0.0042
composition = Bi2Fe4O9
outputtype = gr
qmaxinst = 24.998449118
qmin = 0.1
qmax = 21.4986662415
rmax = 80.0
rmin = 0.0
rstep = 0.01
rpoly = 0.9

[Misc]
inputdir = C:/Data/Seafile/CPH/Beamtime/Desy Oct 20/In situ data/Processed/BiMsol6/PDF
savedir = C:/Data/Seafile/CPH/Beamtime/Desy Oct 20/In situ data/PDF/BiMsol6
backgroundfilefull = C:/Data/Seafile/CPH/Beamtime/Desy Oct 20/In situ data/Processed/Standard_Empty_Cap/Quartz2mm-dist500-00000.xy

#### start data
#S 1
#L r($\AA$)  G($\AA^{-2}$)
0 0
0.01 0.00620329
0.02 0.0120564
0.03 0.0172594
0.04 0.0215434
0.05 0.0246822
0.06 0.0265034
0.07 0.0268179
0.08 0.0255701
0.09 0.0228977
0.1 0.0189138
0.11 0.0137941
0.12 0.00776975
0.13 0.00111655
0.14 -0.00585601
0.15 -0.0127559
0.16 -0.0192526
0.17 -0.0250357
0.18 -0.0298265
0.19 -0.0333918
0.2 -0.0354914
0.21 -0.0359603
0.22 -0.0348907
0.23 -0.032344
0.24 -0.0284572
0.25 -0.0234385
0.26 -0.017559
0.27 -0.0111263
0.28 -0.00458816
0.29 0.00165721
0.3 0.00722283
0.31 0.0117402
0.32 0.0148773
0.33 0.0162976
0.34 0.0156713
0.35 0.0130438
0.36 0.00840865
0.37 0.00185929
0.38 -0.00640904
0.39 -0.0161022
0.4 -0.0268802
0.41 -0.0381506
0.42 -0.049331
0.43 -0.0598294
0.44 -0.0690324
0.45 -0.0763279
0.46 -0.0810685
0.47 -0.0824207
0.48 -0.0801971
0.49 -0.0740561
0.5 -0.0637728
0.51 -0.049253
0.52 -0.0305429
0.53 -0.0075691
0.54 0.0191459
0.55 0.0489105
0.56 0.0810824
0.57 0.11491
0.58 0.14955
0.59 0.184085
0.6 0.217346
0.61 0.248407
0.62 0.276344
0.63 0.300285
0.64 0.319447
0.65 0.333159
0.66 0.340486
0.67 0.341045
0.68 0.335
0.69 0.322352
0.7 0.303282
0.71 0.27814
0.72 0.247439
0.73 0.211372
0.74 0.171372
0.75 0.128371
0.76 0.0833518
0.77 0.0373401
0.78 -0.00863184
0.79 -0.0534496
0.8 -0.0959903
0.81 -0.135484
0.82 -0.171193
0.83 -0.202508
0.84 -0.228967
0.85 -0.250267
0.86 -0.265714
0.87 -0.275837
0.88 -0.280921
0.89 -0.281321
0.9 -0.277514
0.91 -0.270085
0.92 -0.259612
0.93 -0.246837
0.94 -0.232737
0.95 -0.218062
0.96 -0.203535
0.97 -0.189826
0.98 -0.177534
0.99 -0.167383
1 -0.159674
1.01 -0.15462
1.02 -0.15236
1.03 -0.152922
1.04 -0.156216
1.05 -0.162118
1.06 -0.170434
1.07 -0.180569
1.08 -0.192098
1.09 -0.204565
1.1 -0.217498
1.11 -0.230435
1.12 -0.242868
1.13 -0.254378
1.14 -0.264658
1.15 -0.273455
1.16 -0.280592
1.17 -0.285973
1.18 -0.289552
1.19 -0.291267
1.2 -0.291446
1.21 -0.290296
1.22 -0.288075
1.23 -0.285068
1.24 -0.281581
1.25 -0.277934
1.26 -0.274464
1.27 -0.271438
1.28 -0.269078
1.29 -0.267552
1.3 -0.266973
1.31 -0.267397
1.32 -0.268907
1.33 -0.271302
1.34 -0.274436
1.35 -0.27812
1.36 -0.282123
1.37 -0.286192
1.38 -0.29003
1.39 -0.293332
1.4 -0.295862
1.41 -0.297403
1.42 -0.297777
1.43 -0.296854
1.44 -0.294563
1.45 -0.290743
1.46 -0.285609
1.47 -0.279299
1.48 -0.271996
1.49 -0.263935
1.5 -0.25539
1.51 -0.246671
1.52 -0.238147
1.53 -0.230147
1.54 -0.222975
1.55 -0.216907
1.56 -0.21218
1.57 -0.208976
1.58 -0.207596
1.59 -0.207948
1.6 -0.209977
1.61 -0.213579
1.62 -0.218584
1.63 -0.22476
1.64 -0.231837
1.65 -0.239455
1.66 -0.247177
1.67 -0.254615
1.68 -0.261383
1.69 -0.267108
1.7 -0.271445
1.71 -0.273915
1.72 -0.274354
1.73 -0.27264
1.74 -0.268673
1.75 -0.262432
1.76 -0.253968
1.77 -0.243359
1.78 -0.230712
1.79 -0.21649
1.8 -0.201014
1.81 -0.184644
1.82 -0.167763
1.83 -0.150765
1.84 -0.134087
1.85 -0.118131
1.86 -0.10321
1.87 -0.0896009
1.88 -0.0775234
1.89 -0.0671344
1.9 -0.0585487
1.91 -0.0519352
1.92 -0.0470412
1.93 -0.0437338
1.94 -0.0418238
1.95 -0.0410752
1.96 -0.0412157
1.97 -0.0419684
1.98 -0.0429725
1.99 -0.0439029
2 -0.044483
2.01 -0.0444698
2.02 -0.0436646
2.03 -0.041919
2.04 -0.0390343
2.05 -0.0351196
2.06 -0.0302417
2.07 -0.0245325
2.08 -0.0181847
2.09 -0.0114448
2.1 -0.00461796
2.11 0.00191565
2.12 0.00780309
2.13 0.0126911
2.14 0.0162369
2.15 0.0181211
2.16 0.0180615
2.17 0.0155656
2.18 0.0106754
2.19 0.00331743
2.2 -0.00652555
2.21 -0.0187963
2.22 -0.0333636
2.23 -0.050108
2.24 -0.0687623
2.25 -0.0888424
2.26 -0.109968
2.27 -0.13173
2.28 -0.1537
2.29 -0.175448
2.3 -0.196449
2.31 -0.216321
2.32 -0.234731
2.33 -0.251383
2.34 -0.266038
2.35 -0.278527
2.36 -0.28867
2.37 -0.296334
2.38 -0.301769
2.39 -0.305103
2.4 -0.306525
2.41 -0.306275
2.42 -0.304635
2.43 -0.301854
2.44 -0.29837
2.45 -0.29455
2.46 -0.290725
2.47 -0.287205
2.48 -0.284266
2.49 -0.282174
2.5 -0.28121
2.51 -0.281418
2.52 -0.282868
2.53 -0.285573
2.54 -0.289495
2.55 -0.29454
2.56 -0.300636
2.57 -0.307542
2.58 -0.31501
2.59 -0.322809
2.6 -0.330702
2.61 -0.338453
2.62 -0.345828
2.63 -0.352543
2.64 -0.358468
2.65 -0.363463
2.66 -0.367426
2.67 -0.370296
2.68 -0.372052
2.69 -0.372645
2.7 -0.372161
2.71 -0.370757
2.72 -0.368559
2.73 -0.365714
2.74 -0.362382
2.75 -0.358732
2.76 -0.354931
2.77 -0.351168
2.78 -0.347584
2.79 -0.344299
2.8 -0.341409
2.81 -0.33898
2.82 -0.33708
2.83 -0.335717
2.84 -0.334833
2.85 -0.334374
2.86 -0.334266
2.87 -0.334415
2.88 -0.334715
2.89 -0.335044
2.9 -0.33527
2.91 -0.33528
2.92 -0.33497
2.93 -0.334248
2.94 -0.333039
2.95 -0.331257
2.96 -0.328841
2.97 -0.325816
2.98 -0.32218
2.99 -0.317949
3 -0.313147
3.01 -0.307809
3.02 -0.301926
3.03 -0.295574
3.04 -0.288792
3.05 -0.281597
3.06 -0.27399
3.07 -0.265956
3.08 -0.257444
3.09 -0.248362
3.1 -0.238669
3.11 -0.228264
3.12 -0.217034
3.13 -0.204851
3.14 -0.191579
3.15 -0.176968
3.16 -0.160931
3.17 -0.143389
3.18 -0.124241
3.19 -0.103407
3.2 -0.0808387
3.21 -0.056485
3.22 -0.0302463
3.23 -0.00236552
3.24 0.0270406
3.25 0.0578138
3.26 0.0897553
3.27 0.122629
3.28 0.156193
3.29 0.190084
3.3 0.223952
3.31 0.257462
3.32 0.290274
3.33 0.322052
3.34 0.352452
3.35 0.380971
3.36 0.407488
3.37 0.431761
3.38 0.45359
3.39 0.472813
3.4 0.489314
3.41 0.502846
3.42 0.513409
3.43 0.521185
3.44 0.526245
3.45 0.528694
3.46 0.528669
3.47 0.526334
3.48 0.521649
3.49 0.515074
3.5 0.506819
3.51 0.497088
3.52 0.486084
3.53 0.473999
3.54 0.460972
3.55 0.447178
3.56 0.432814
3.57 0.417999
3.58 0.402835
3.59 0.387404
3.6 0.371775
3.61 0.355991
3.62 0.340113
3.63 0.32418
3.64 0.308224
3.65 0.292282
3.66 0.276394
3.67 0.260612
3.68 0.245009
3.69 0.229648
3.7 0.214613
3.71 0.199999
3.72 0.185915
3.73 0.172478
3.74 0.1599
3.75 0.148274
3.76 0.137717
3.77 0.128362
3.78 0.120336
3.79 0.113759
3.8 0.108784
3.81 0.105611
3.82 0.10417
3.83 0.104508
3.84 0.106652
3.85 0.110606
3.86 0.11635
3.87 0.123982
3.88 0.133346
3.89 0.144295
3.9 0.156726
3.91 0.170524
3.92 0.18556
3.93 0.201718
3.94 0.218915
3.95 0.236902
3.96 0.255536
3.97 0.274677
3.98 0.294189
3.99 0.313944
4 0.333816
4.01 0.353673
4.02 0.373401
4.03 0.392899
4.04 0.41207
4.05 0.430825
4.06 0.449069
4.07 0.466646
4.08 0.483529
4.09 0.499633
4.1 0.514873
4.11 0.529162
4.12 0.542412
4.13 0.554463
4.14 0.565215
4.15 0.574649
4.16 0.582679
4.17 0.589227
4.18 0.59422
4.19 0.597594
4.2 0.599099
4.21 0.598875
4.22 0.596902
4.23 0.593169
4.24 0.587682
4.25 0.58046
4.26 0.571459
4.27 0.560711
4.28 0.548398
4.29 0.534603
4.3 0.519415
4.31 0.502936
4.32 0.485269
4.33 0.466422
4.34 0.446608
4.35 0.425947
4.36 0.404538
4.37 0.382472
4.38 0.359832
4.39 0.336676
4.4 0.313054
4.41 0.289056
4.42 0.264722
4.43 0.240084
4.44 0.215168
4.45 0.189992
4.46 0.164556
4.47 0.138895
4.48 0.113035
4.49 0.0870035
4.5 0.0608337
4.51 0.0345685
4.52 0.00826221
4.53 -0.0180083
4.54 -0.0441599
4.55 -0.0701009
4.56 -0.0957291
4.57 -0.120933
4.58 -0.145596
4.59 -0.169532
4.6 -0.192631
4.61 -0.214797
4.62 -0.235918
4.63 -0.25589
4.64 -0.274623
4.65 -0.29202
4.66 -0.307904
4.67 -0.32238
4.68 -0.33544
4.69 -0.347099
4.7 -0.357397
4.71 -0.366391
4.72 -0.374085
4.73 -0.380617
4.74 -0.386163
4.75 -0.390847
4.76 -0.394803
4.77 -0.398167
4.78 -0.401071
4.79 -0.403625
4.8 -0.405993
4.81 -0.408281
4.82 -0.410577
4.83 -0.41295
4.84 -0.415453
4.85 -0.418125
4.86 -0.420977
4.87 -0.423985
4.88 -0.427117
4.89 -0.430327
4.9 -0.433554
4.91 -0.436729
4.92 -0.439754
4.93 -0.442555
4.94 -0.445054
4.95 -0.447179
4.96 -0.448861
4.97 -0.450045
4.98 -0.450658
4.99 -0.450652
5 -0.450051
5.01 -0.448853
5.02 -0.44707
5.03 -0.444727
5.04 -0.441858
5.05 -0.438461
5.06 -0.434631
5.07 -0.430427
5.08 -0.4259
5.09 -0.421099
5.1 -0.416067
5.11 -0.410834
5.12 -0.405424
5.13 -0.399865
5.14 -0.394164
5.15 -0.388315
5.16 -0.382302
5.17 -0.376103
5.18 -0.369668
5.19 -0.36297
5.2 -0.355982
5.21 -0.348669
5.22 -0.341004
5.23 -0.332963
5.24 -0.324526
5.25 -0.315665
5.26 -0.306434
5.27 -0.296863
5.28 -0.286997
5.29 -0.276896
5.3 -0.266635
5.31 -0.256303
5.32 -0.246014
5.33 -0.235877
5.34 -0.226003
5.35 -0.216503
5.36 -0.207487
5.37 -0.199068
5.38 -0.19141
5.39 -0.184528
5.4 -0.178485
5.41 -0.173324
5.42 -0.16907
5.43 -0.165727
5.44 -0.163336
5.45 -0.161839
5.46 -0.16113
5.47 -0.161134
5.48 -0.161761
5.49 -0.162909
5.5 -0.164469
5.51 -0.166348
5.52 -0.168386
5.53 -0.17047
5.54 -0.172496
5.55 -0.174366
5.56 -0.175995
5.57 -0.177289
5.58 -0.178179
5.59 -0.178645
5.6 -0.178663
5.61 -0.178218
5.62 -0.177311
5.63 -0.175952
5.64 -0.174113
5.65 -0.171866
5.66 -0.169239
5.67 -0.16626
5.68 -0.16295
5.69 -0.159328
5.7 -0.155389
5.71 -0.151127
5.72 -0.146551
5.73 -0.141641
5.74 -0.136365
5.75 -0.130686
5.76 -0.124557
5.77 -0.117872
5.78 -0.110609
5.79 -0.102726
5.8 -0.0941735
5.81 -0.0849081
5.82 -0.0748971
5.83 -0.0640943
5.84 -0.0524558
5.85 -0.0400611
5.86 -0.0269433
5.87 -0.0131537
5.88 0.00123821
5.89 0.0161458
5.9 0.0314919
5.91 0.0471214
5.92 0.0628927
5.93 0.0786701
5.94 0.0943151
5.95 0.109689
5.96 0.124648
5.97 0.139012
5.98 0.152713
5.99 0.165657
6 0.177767
6.01 0.188989
6.02 0.199287
6.03 0.208578
6.04 0.216905
6.05 0.22434
6.06 0.230934
6.07 0.236752
6.08 0.241871
6.09 0.246371
6.1 0.250303
6.11 0.253819
6.12 0.257005
6.13 0.259939
6.14 0.262685
6.15 0.265294
6.16 0.267797
6.17 0.270211
6.18 0.272532
6.19 0.274734
6.2 0.276771
6.21 0.278582
6.22 0.280091
6.23 0.281153
6.24 0.281707
6.25 0.281653
6.26 0.28089
6.27 0.27932
6.28 0.276856
6.29 0.273365
6.3 0.268765
6.31 0.26308
6.32 0.256289
6.33 0.248393
6.34 0.239414
6.35 0.229393
6.36 0.218298
6.37 0.206314
6.38 0.193553
6.39 0.180126
6.4 0.166154
6.41 0.151763
6.42 0.137074
6.43 0.122222
6.44 0.107344
6.45 0.0925457
6.46 0.0779201
6.47 0.0635444
6.48 0.049479
6.49 0.0358021
6.5 0.0225114
6.51 0.00960027
6.52 -0.00294685
6.53 -0.0151602
6.54 -0.0270826
6.55 -0.0387614
6.56 -0.050255
6.57 -0.0616467
6.58 -0.0729994
6.59 -0.0843724
6.6 -0.0958177
6.61 -0.107378
6.62 -0.119098
6.63 -0.130986
6.64 -0.143034
6.65 -0.155225
6.66 -0.167521
6.67 -0.179874
6.68 -0.192216
6.69 -0.204451
6.7 -0.216488
6.71 -0.228228
6.72 -0.239566
6.73 -0.250394
6.74 -0.260604
6.75 -0.270031
6.76 -0.278582
6.77 -0.2862
6.78 -0.292804
6.79 -0.298324
6.8 -0.302704
6.81 -0.305889
6.82 -0.307723
6.83 -0.308318
6.84 -0.30767
6.85 -0.305784
6.86 -0.302675
6.87 -0.298364
6.88 -0.292808
6.89 -0.28605
6.9 -0.278187
6.91 -0.269253
6.92 -0.259279
6.93 -0.248294
6.94 -0.236326
6.95 -0.223288
6.96 -0.209307
6.97 -0.194399
6.98 -0.178575
6.99 -0.161844
7 -0.144211
7.01 -0.125641
7.02 -0.106128
7.03 -0.0857449
7.04 -0.0645073
7.05 -0.0424382
7.06 -0.0195675
7.07 0.00406735
7.08 0.028488
7.09 0.0535667
7.1 0.0792257
7.11 0.105388
7.12 0.131967
7.13 0.158868
7.14 0.185995
7.15 0.213229
7.16 0.240439
7.17 0.26751
7.18 0.294324
7.19 0.320765
7.2 0.346717
7.21 0.372002
7.22 0.39654
7.23 0.420246
7.24 0.443025
7.25 0.464788
7.26 0.485456
7.27 0.50492
7.28 0.523032
7.29 0.539838
7.3 0.555288
7.31 0.569336
7.32 0.581941
7.33 0.593068
7.34 0.602558
7.35 0.610445
7.36 0.616757
7.37 0.621467
7.38 0.624551
7.39 0.625987
7.4 0.625723
7.41 0.623597
7.42 0.61976
7.43 0.614198
7.44 0.606903
7.45 0.597871
7.46 0.587103
7.47 0.574492
7.48 0.5601
7.49 0.54404
7.5 0.526355
7.51 0.507101
7.52 0.486345
7.53 0.464163
7.54 0.440522
7.55 0.415692
7.56 0.389797
7.57 0.362975
7.58 0.335376
7.59 0.307159
7.6 0.278475
7.61 0.249528
7.62 0.220522
7.63 0.191639
7.64 0.163059
7.65 0.134961
7.66 0.107518
7.67 0.0810029
7.68 0.0554972
7.69 0.031135
7.7 0.00804051
7.71 -0.0136783
7.72 -0.0339313
7.73 -0.052571
7.74 -0.0695067
7.75 -0.084819
7.76 -0.0985013
7.77 -0.110566
7.78 -0.121044
7.79 -0.129982
7.8 -0.137305
7.81 -0.143225
7.82 -0.147857
7.83 -0.151303
7.84 -0.15367
7.85 -0.155068
7.86 -0.155584
7.87 -0.15531
7.88 -0.154421
7.89 -0.153016
7.9 -0.151188
7.91 -0.149017
7.92 -0.146575
7.93 -0.143906
7.94 -0.141071
7.95 -0.138107
7.96 -0.135031
7.97 -0.131849
7.98 -0.128555
7.99 -0.125131
8 -0.121544
8.01 -0.117778
8.02 -0.1138
8.03 -0.109582
8.04 -0.105093
8.05 -0.100308
8.06 -0.0951828
8.07 -0.0897183
8.08 -0.0839276
8.09 -0.0778224
8.1 -0.0714259
8.11 -0.0647732
8.12 -0.0579089
8.13 -0.0508857
8.14 -0.0437944
8.15 -0.0367133
8.16 -0.0297266
8.17 -0.0229223
8.18 -0.0163899
8.19 -0.0102478
8.2 -0.00458521
8.21 0.000541073
8.22 0.00506559
8.23 0.00893493
8.24 0.0121097
8.25 0.0145635
8.26 0.0162104
8.27 0.017147
8.28 0.0174054
8.29 0.0170339
8.3 0.0160959
8.31 0.0146684
8.32 0.0128228
8.33 0.0106707
8.34 0.00833912
8.35 0.00593289
8.36 0.00355513
8.37 0.00130374
8.38 -0.000731789
8.39 -0.00243414
8.4 -0.00376601
8.41 -0.00468707
8.42 -0.00517314
8.43 -0.00521954
8.44 -0.00484139
8.45 -0.00405832
8.46 -0.00292528
8.47 -0.00154463
8.48 -5.49034e-06
8.49 0.00159161
8.5 0.00313779
8.51 0.0045193
8.52 0.00558236
8.53 0.00622508
8.54 0.00634891
8.55 0.00586028
8.56 0.0046791
8.57 0.0027413
8.58 -2.75481e-05
8.59 -0.00369501
8.6 -0.00819441
8.61 -0.0135058
8.62 -0.0195898
8.63 -0.0263887
8.64 -0.0338288
8.65 -0.0418622
8.66 -0.0503453
8.67 -0.059155
8.68 -0.0681815
8.69 -0.0773157
8.7 -0.0864526
8.71 -0.0954899
8.72 -0.104318
8.73 -0.112875
8.74 -0.121108
8.75 -0.128977
8.76 -0.136459
8.77 -0.143551
8.78 -0.150235
8.79 -0.156557
8.8 -0.162575
8.81 -0.168341
8.82 -0.173913
8.83 -0.179353
8.84 -0.184726
8.85 -0.190098
8.86 -0.195527
8.87 -0.201058
8.88 -0.206723
8.89 -0.21254
8.9 -0.218515
8.91 -0.224644
8.92 -0.230893
8.93 -0.237209
8.94 -0.243535
8.95 -0.249803
8.96 -0.255936
8.97 -0.261849
8.98 -0.267413
8.99 -0.272569
9 -0.277239
9.01 -0.28135
9.02 -0.284839
9.03 -0.287659
9.04 -0.289736
9.05 -0.291047
9.06 -0.29164
9.07 -0.291537
9.08 -0.290777
9.09 -0.289413
9.1 -0.287514
9.11 -0.285117
9.12 -0.282364
9.13 -0.279353
9.14 -0.276178
9.15 -0.272929
9.16 -0.269694
9.17 -0.266556
9.18 -0.263594
9.19 -0.260848
9.2 -0.258352
9.21 -0.256122
9.22 -0.254157
9.23 -0.252441
9.24 -0.250957
9.25 -0.249636
9.26 -0.248413
9.27 -0.24722
9.28 -0.245985
9.29 -0.244633
9.3 -0.243083
9.31 -0.241246
9.32 -0.239082
9.33 -0.236548
9.34 -0.233612
9.35 -0.23026
9.36 -0.226492
9.37 -0.222299
9.38 -0.217742
9.39 -0.212891
9.4 -0.207812
9.41 -0.202586
9.42 -0.1973
9.43 -0.192048
9.44 -0.186944
9.45 -0.182071
9.46 -0.177511
9.47 -0.173333
9.48 -0.169592
9.49 -0.166327
9.5 -0.163591
9.51 -0.161364
9.52 -0.159595
9.53 -0.158229
9.54 -0.157194
9.55 -0.156398
9.56 -0.155728
9.57 -0.155045
9.58 -0.154198
9.59 -0.153043
9.6 -0.151434
9.61 -0.149226
9.62 -0.146282
9.63 -0.142412
9.64 -0.137497
9.65 -0.131494
9.66 -0.124334
9.67 -0.11597
9.68 -0.106382
9.69 -0.0955694
9.7 -0.0834283
9.71 -0.0701538
9.72 -0.0558253
9.73 -0.0405387
9.74 -0.0244059
9.75 -0.00755113
9.76 0.00991506
9.77 0.0278396
9.78 0.0460459
9.79 0.064398
9.8 0.0827666
9.81 0.101032
9.82 0.119086
9.83 0.136796
9.84 0.154106
9.85 0.170962
9.86 0.187324
9.87 0.203168
9.88 0.218481
9.89 0.233248
9.9 0.247465
9.91 0.261198
9.92 0.274478
9.93 0.287337
9.94 0.299809
9.95 0.311925
9.96 0.323683
9.97 0.335128
9.98 0.346279
9.99 0.357136
10 0.367693
10.01 0.377929
10.02 0.387808
10.03 0.397266
10.04 0.406289
10.05 0.414829
10.06 0.422832
10.07 0.430247
10.08 0.437021
10.09 0.443046
10.1 0.448309
10.11 0.4528
10.12 0.456497
10.13 0.459389
10.14 0.461475
10.15 0.462754
10.16 0.463195
10.17 0.462915
10.18 0.461966
10.19 0.460412
10.2 0.458321
10.21 0.455773
10.22 0.452828
10.23 0.449594
10.24 0.446174
10.25 0.442649
10.26 0.439101
10.27 0.435602
10.28 0.432219
10.29 0.42903
10.3 0.426064
10.31 0.423352
10.32 0.420912
10.33 0.418749
10.34 0.416859
10.35 0.415235
10.36 0.413842
10.37 0.412623
10.38 0.411525
10.39 0.410491
10.4 0.409453
10.41 0.408342
10.42 0.407058
10.43 0.405532
10.44 0.403689
10.45 0.401452
10.46 0.398746
10.47 0.395502
10.48 0.39162
10.49 0.387017
10.5 0.381683
10.51 0.375569
10.52 0.368638
10.53 0.360858
10.54 0.352207
10.55 0.342579
10.56 0.332048
10.57 0.320634
10.58 0.308354
10.59 0.29523
10.6 0.281299
10.61 0.266576
10.62 0.251092
10.63 0.234966
10.64 0.218268
10.65 0.201073
10.66 0.183459
10.67 0.165512
10.68 0.147303
10.69 0.128949
10.7 0.110543
10.71 0.0921724
10.72 0.0739208
10.73 0.0558664
10.74 0.0380904
10.75 0.0206856
10.76 0.00367895
10.77 -0.0128875
10.78 -0.0289831
10.79 -0.044589
10.8 -0.0596982
10.81 -0.0742782
10.82 -0.088371
10.83 -0.102025
10.84 -0.115282
10.85 -0.128189
10.86 -0.140802
10.87 -0.153178
10.88 -0.165373
10.89 -0.177472
10.9 -0.189537
10.91 -0.201623
10.92 -0.213782
10.93 -0.226054
10.94 -0.238483
10.95 -0.251089
10.96 -0.26387
10.97 -0.276817
10.98 -0.28991
10.99 -0.303115
11 -0.316386
11.01 -0.32966
11.02 -0.34286
11.03 -0.355909
11.04 -0.368725
11.05 -0.381221
11.06 -0.39331
11.07 -0.40487
11.08 -0.415804
11.09 -0.426066
11.1 -0.435586
11.11 -0.444302
11.12 -0.452165
11.13 -0.459134
11.14 -0.465079
11.15 -0.47008
11.16 -0.474141
11.17 -0.477271
11.18 -0.479491
11.19 -0.480826
11.2 -0.481275
11.21 -0.480863
11.22 -0.479695
11.23 -0.477814
11.24 -0.475267
11.25 -0.472094
11.26 -0.468335
11.27 -0.463973
11.28 -0.459082
11.29 -0.453692
11.3 -0.447817
11.31 -0.441463
11.32 -0.43463
11.33 -0.427297
11.34 -0.419428
11.35 -0.411049
11.36 -0.402144
11.37 -0.392696
11.38 -0.382691
11.39 -0.372116
11.4 -0.360911
11.41 -0.349107
11.42 -0.336726
11.43 -0.32378
11.44 -0.31029
11.45 -0.296283
11.46 -0.281785
11.47 -0.266817
11.48 -0.251477
11.49 -0.235824
11.5 -0.219924
11.51 -0.203846
11.52 -0.187661
11.53 -0.171445
11.54 -0.155285
11.55 -0.139251
11.56 -0.123413
11.57 -0.107836
11.58 -0.0925804
11.59 -0.0777057
11.6 -0.0633044
11.61 -0.0493765
11.62 -0.0359552
11.63 -0.0230675
11.64 -0.0107338
11.65 0.00103132
11.66 0.0121804
11.67 0.0227181
11.68 0.0326752
11.69 0.042056
11.7 0.0508681
11.71 0.059121
11.72 0.0668249
11.73 0.0739339
11.74 0.0805245
11.75 0.0866115
11.76 0.0922102
11.77 0.0973367
11.78 0.102008
11.79 0.106218
11.8 0.109986
11.81 0.113358
11.82 0.116357
11.83 0.119003
11.84 0.12132
11.85 0.123332
11.86 0.125036
11.87 0.126488
11.88 0.127714
11.89 0.128738
11.9 0.12958
11.91 0.13026
11.92 0.130786
11.93 0.131165
11.94 0.131413
11.95 0.131527
11.96 0.131497
11.97 0.131309
11.98 0.130937
11.99 0.130328
12 0.129454
12.01 0.128273
12.02 0.126733
12.03 0.124778
12.04 0.122347
12.05 0.119357
12.06 0.115706
12.07 0.11138
12.08 0.106319
12.09 0.100472
12.1 0.0937919
12.11 0.0862408
12.12 0.077712
12.13 0.0682375
12.14 0.0578439
12.15 0.0465425
12.16 0.0343579
12.17 0.0213278
12.18 0.00748721
