# xPDFsuite Configuration #
[PDF]
wavelength = 0.1
dataformat = QA
inputfile = BiMsol6_insitu_700 C-00021.xy
backgroundfile = Quartz2mm-dist500-00000.xy
mode = xray
bgscale = 0.0042
composition = Bi2Fe4O9
outputtype = gr
qmaxinst = 24.998449118
qmin = 0.1
qmax = 21.4986662415
rmax = 80.0
rmin = 0.0
rstep = 0.01
rpoly = 0.9

[Misc]
inputdir = C:/Data/Seafile/CPH/Beamtime/Desy Oct 20/In situ data/Processed/BiMsol6/PDF
savedir = C:/Data/Seafile/CPH/Beamtime/Desy Oct 20/In situ data/PDF/BiMsol6
backgroundfilefull = C:/Data/Seafile/CPH/Beamtime/Desy Oct 20/In situ data/Processed/Standard_Empty_Cap/Quartz2mm-dist500-00000.xy

#### start data
#S 1
#L r($\AA$)  G($\AA^{-2}$)
0 0
0.01 0.00685165
0.02 0.0133232
0.03 0.0190891
0.04 0.0238572
0.05 0.0273817
0.06 0.0294747
0.07 0.0299303
0.08 0.0286867
0.09 0.0258924
0.1 0.0216685
0.11 0.0162046
0.12 0.00974977
0.13 0.00260217
0.14 -0.00490485
0.15 -0.0123456
0.16 -0.0193615
0.17 -0.0256156
0.18 -0.0308046
0.19 -0.0346739
0.2 -0.0369611
0.21 -0.0374839
0.22 -0.0363382
0.23 -0.0335865
0.24 -0.0293729
0.25 -0.0239182
0.26 -0.0175117
0.27 -0.0104792
0.28 -0.00330302
0.29 0.0035886
0.3 0.00977927
0.31 0.0148718
0.32 0.0185075
0.33 0.0203228
0.34 0.0199602
0.35 0.0174626
0.36 0.0128179
0.37 0.00612114
0.38 -0.00242403
0.39 -0.012508
0.4 -0.0237745
0.41 -0.0355942
0.42 -0.0473488
0.43 -0.0584098
0.44 -0.0681261
0.45 -0.0758477
0.46 -0.0808881
0.47 -0.0823656
0.48 -0.0800792
0.49 -0.0736682
0.5 -0.0628962
0.51 -0.0476667
0.52 -0.0280325
0.53 -0.00392424
0.54 0.0240991
0.55 0.0553
0.56 0.0889919
0.57 0.124372
0.58 0.160541
0.59 0.196523
0.6 0.231068
0.61 0.263203
0.62 0.291949
0.63 0.31639
0.64 0.335702
0.65 0.349185
0.66 0.355861
0.67 0.355345
0.68 0.347832
0.69 0.333347
0.7 0.312104
0.71 0.2845
0.72 0.251107
0.73 0.212171
0.74 0.169225
0.75 0.123275
0.76 0.0753859
0.77 0.0266585
0.78 -0.0218014
0.79 -0.0687945
0.8 -0.113127
0.81 -0.154004
0.82 -0.190655
0.83 -0.222455
0.84 -0.248935
0.85 -0.269802
0.86 -0.284347
0.87 -0.293179
0.88 -0.296642
0.89 -0.29515
0.9 -0.289252
0.91 -0.279602
0.92 -0.266858
0.93 -0.251848
0.94 -0.235622
0.95 -0.218996
0.96 -0.202749
0.97 -0.187596
0.98 -0.174171
0.99 -0.163251
1 -0.15512
1.01 -0.149972
1.02 -0.147925
1.03 -0.148969
1.04 -0.152972
1.05 -0.159756
1.06 -0.169066
1.07 -0.180228
1.08 -0.192752
1.09 -0.206116
1.1 -0.219793
1.11 -0.233266
1.12 -0.245962
1.13 -0.257439
1.14 -0.267384
1.15 -0.275541
1.16 -0.281743
1.17 -0.285917
1.18 -0.28805
1.19 -0.288118
1.2 -0.286528
1.21 -0.283553
1.22 -0.279516
1.23 -0.274774
1.24 -0.269699
1.25 -0.26469
1.26 -0.260146
1.27 -0.256365
1.28 -0.2536
1.29 -0.25204
1.3 -0.251801
1.31 -0.252934
1.32 -0.255526
1.33 -0.259296
1.34 -0.264045
1.35 -0.26952
1.36 -0.275419
1.37 -0.281413
1.38 -0.287119
1.39 -0.292141
1.4 -0.296176
1.41 -0.29894
1.42 -0.300201
1.43 -0.299788
1.44 -0.297599
1.45 -0.293416
1.46 -0.287507
1.47 -0.280035
1.48 -0.271227
1.49 -0.261373
1.5 -0.250816
1.51 -0.239944
1.52 -0.229228
1.53 -0.219099
1.54 -0.209956
1.55 -0.202165
1.56 -0.196049
1.57 -0.191867
1.58 -0.190033
1.59 -0.190469
1.6 -0.193136
1.61 -0.197937
1.62 -0.20469
1.63 -0.213129
1.64 -0.222949
1.65 -0.233726
1.66 -0.244896
1.67 -0.255972
1.68 -0.266458
1.69 -0.275865
1.7 -0.283732
1.71 -0.289431
1.72 -0.292695
1.73 -0.293313
1.74 -0.291106
1.75 -0.285987
1.76 -0.277962
1.77 -0.267068
1.78 -0.253364
1.79 -0.237404
1.8 -0.219557
1.81 -0.20025
1.82 -0.17995
1.83 -0.15915
1.84 -0.138388
1.85 -0.118213
1.86 -0.0990699
1.87 -0.0813581
1.88 -0.0654149
1.89 -0.0515041
1.9 -0.039843
1.91 -0.0307314
1.92 -0.023924
1.93 -0.0193204
1.94 -0.0167414
1.95 -0.0159384
1.96 -0.0166044
1.97 -0.0184363
1.98 -0.0209745
1.99 -0.0237723
2 -0.0264443
2.01 -0.0286297
2.02 -0.0300073
2.03 -0.0303041
2.04 -0.0291593
2.05 -0.0265906
2.06 -0.022567
2.07 -0.0171381
2.08 -0.0104327
2.09 -0.0026537
2.1 0.00595551
2.11 0.0150128
2.12 0.0240931
2.13 0.0327925
2.14 0.0406974
2.15 0.0474012
2.16 0.0525189
2.17 0.0554587
2.18 0.0561038
2.19 0.0542549
2.2 0.0497721
2.21 0.042596
2.22 0.0327501
2.23 0.0202338
2.24 0.00521133
2.25 -0.0118546
2.26 -0.0306206
2.27 -0.050692
2.28 -0.0716359
2.29 -0.0929958
2.3 -0.114255
2.31 -0.134912
2.32 -0.154541
2.33 -0.172752
2.34 -0.189209
2.35 -0.203636
2.36 -0.215745
2.37 -0.225282
2.38 -0.232402
2.39 -0.237147
2.4 -0.239632
2.41 -0.240038
2.42 -0.238606
2.43 -0.235516
2.44 -0.231229
2.45 -0.22614
2.46 -0.220609
2.47 -0.214992
2.48 -0.209625
2.49 -0.204834
2.5 -0.200975
2.51 -0.198199
2.52 -0.196658
2.53 -0.196448
2.54 -0.197605
2.55 -0.200108
2.56 -0.203969
2.57 -0.208993
2.58 -0.214953
2.59 -0.22164
2.6 -0.228822
2.61 -0.236257
2.62 -0.243695
2.63 -0.250846
2.64 -0.257497
2.65 -0.263455
2.66 -0.26856
2.67 -0.272688
2.68 -0.275755
2.69 -0.277643
2.7 -0.278371
2.71 -0.278041
2.72 -0.276732
2.73 -0.274552
2.74 -0.271631
2.75 -0.268113
2.76 -0.264123
2.77 -0.25988
2.78 -0.255533
2.79 -0.251218
2.8 -0.247051
2.81 -0.243127
2.82 -0.239533
2.83 -0.236315
2.84 -0.233458
2.85 -0.230941
2.86 -0.228718
2.87 -0.226723
2.88 -0.224872
2.89 -0.223066
2.9 -0.221188
2.91 -0.219136
2.92 -0.216815
2.93 -0.214139
2.94 -0.211039
2.95 -0.207441
2.96 -0.203296
2.97 -0.198637
2.98 -0.193484
2.99 -0.187876
3 -0.181872
3.01 -0.175548
3.02 -0.168976
3.03 -0.162282
3.04 -0.155566
3.05 -0.148925
3.06 -0.142443
3.07 -0.136195
3.08 -0.130248
3.09 -0.124659
3.1 -0.119413
3.11 -0.114495
3.12 -0.109866
3.13 -0.105467
3.14 -0.101215
3.15 -0.0970073
3.16 -0.0927103
3.17 -0.0881981
3.18 -0.083342
3.19 -0.0780142
3.2 -0.0720935
3.21 -0.0654524
3.22 -0.0579254
3.23 -0.0495114
3.24 -0.0401625
3.25 -0.0298551
3.26 -0.0185905
3.27 -0.00639511
3.28 0.00674018
3.29 0.0207031
3.3 0.0353607
3.31 0.0506036
3.32 0.066313
3.33 0.0823651
3.34 0.0986367
3.35 0.115004
3.36 0.131339
3.37 0.147547
3.38 0.163552
3.39 0.179296
3.4 0.194743
3.41 0.209856
3.42 0.224647
3.43 0.239162
3.44 0.253444
3.45 0.26755
3.46 0.281546
3.47 0.295501
3.48 0.309493
3.49 0.323586
3.5 0.337831
3.51 0.352261
3.52 0.366891
3.53 0.381713
3.54 0.396702
3.55 0.411789
3.56 0.426877
3.57 0.441851
3.58 0.456578
3.59 0.470903
3.6 0.484656
3.61 0.497561
3.62 0.509482
3.63 0.520243
3.64 0.529667
3.65 0.53759
3.66 0.543863
3.67 0.548285
3.68 0.550678
3.69 0.551119
3.7 0.54958
3.71 0.546064
3.72 0.54061
3.73 0.533288
3.74 0.524049
3.75 0.513166
3.76 0.500842
3.77 0.487257
3.78 0.472609
3.79 0.457101
3.8 0.440931
3.81 0.424311
3.82 0.407496
3.83 0.390674
3.84 0.374019
3.85 0.357688
3.86 0.341812
3.87 0.326557
3.88 0.311987
3.89 0.298134
3.9 0.285029
3.91 0.272677
3.92 0.261062
3.93 0.250162
3.94 0.239969
3.95 0.230349
3.96 0.221226
3.97 0.212517
3.98 0.204138
3.99 0.196006
4 0.188044
4.01 0.180164
4.02 0.172291
4.03 0.16437
4.04 0.156353
4.05 0.148204
4.06 0.139897
4.07 0.131399
4.08 0.122727
4.09 0.113888
4.1 0.1049
4.11 0.095785
4.12 0.0865725
4.13 0.0772953
4.14 0.0679972
4.15 0.058722
4.16 0.0495112
4.17 0.0404066
4.18 0.0314496
4.19 0.0226803
4.2 0.0141667
4.21 0.0059237
4.22 -0.00201654
4.23 -0.00962366
4.24 -0.0168704
4.25 -0.0237328
4.26 -0.0301697
4.27 -0.0361548
4.28 -0.0417045
4.29 -0.0468121
4.3 -0.0514756
4.31 -0.055698
4.32 -0.0594876
4.33 -0.0628177
4.34 -0.0657473
4.35 -0.0683094
4.36 -0.0705359
4.37 -0.0724642
4.38 -0.0741357
4.39 -0.0755902
4.4 -0.0768769
4.41 -0.0780626
4.42 -0.079199
4.43 -0.0803365
4.44 -0.0815237
4.45 -0.0828053
4.46 -0.0842365
4.47 -0.0858448
4.48 -0.0876505
4.49 -0.0896689
4.5 -0.0919058
4.51 -0.0943577
4.52 -0.0970158
4.53 -0.0998643
4.54 -0.102851
4.55 -0.105934
4.56 -0.109066
4.57 -0.112194
4.58 -0.115261
4.59 -0.118196
4.6 -0.120941
4.61 -0.123448
4.62 -0.125671
4.63 -0.127567
4.64 -0.129106
4.65 -0.13026
4.66 -0.130981
4.67 -0.131313
4.68 -0.131268
4.69 -0.130869
4.7 -0.130151
4.71 -0.129156
4.72 -0.127921
4.73 -0.126514
4.74 -0.125006
4.75 -0.123455
4.76 -0.12192
4.77 -0.120457
4.78 -0.119116
4.79 -0.117962
4.8 -0.117015
4.81 -0.116298
4.82 -0.115824
4.83 -0.115598
4.84 -0.115615
4.85 -0.115873
4.86 -0.116345
4.87 -0.11699
4.88 -0.117773
4.89 -0.118658
4.9 -0.11961
4.91 -0.120591
4.92 -0.121568
4.93 -0.122511
4.94 -0.1234
4.95 -0.124224
4.96 -0.124977
4.97 -0.125662
4.98 -0.126288
4.99 -0.126875
5 -0.127452
5.01 -0.128046
5.02 -0.12869
5.03 -0.129413
5.04 -0.130247
5.05 -0.131232
5.06 -0.13238
5.07 -0.133701
5.08 -0.135199
5.09 -0.136869
5.1 -0.138694
5.11 -0.140654
5.12 -0.142712
5.13 -0.144814
5.14 -0.146908
5.15 -0.148938
5.16 -0.150845
5.17 -0.152571
5.18 -0.154031
5.19 -0.155183
5.2 -0.155989
5.21 -0.156417
5.22 -0.156443
5.23 -0.156058
5.24 -0.155256
5.25 -0.15403
5.26 -0.152453
5.27 -0.150572
5.28 -0.148444
5.29 -0.146135
5.3 -0.143716
5.31 -0.141268
5.32 -0.138879
5.33 -0.136621
5.34 -0.134561
5.35 -0.132754
5.36 -0.131246
5.37 -0.130072
5.38 -0.129277
5.39 -0.128819
5.4 -0.128675
5.41 -0.128802
5.42 -0.129146
5.43 -0.129635
5.44 -0.130188
5.45 -0.130699
5.46 -0.131071
5.47 -0.131209
5.48 -0.131021
5.49 -0.130425
5.5 -0.129346
5.51 -0.12766
5.52 -0.125388
5.53 -0.122513
5.54 -0.11904
5.55 -0.114995
5.56 -0.110424
5.57 -0.105374
5.58 -0.099943
5.59 -0.0942615
5.6 -0.0884438
5.61 -0.0826107
5.62 -0.0768852
5.63 -0.0713886
5.64 -0.0662835
5.65 -0.061647
5.66 -0.057559
5.67 -0.0540833
5.68 -0.0512611
5.69 -0.0491095
5.7 -0.0476482
5.71 -0.046853
5.72 -0.0466111
5.73 -0.0468354
5.74 -0.04742
5.75 -0.048243
5.76 -0.049171
5.77 -0.0500468
5.78 -0.0507159
5.79 -0.0510432
5.8 -0.0509029
5.81 -0.050184
5.82 -0.0487946
5.83 -0.0466396
5.84 -0.0436334
5.85 -0.0398309
5.86 -0.0352524
5.87 -0.0299463
5.88 -0.0239877
5.89 -0.0174757
5.9 -0.0105056
5.91 -0.00325762
5.92 0.00410383
5.93 0.0114222
5.94 0.0185413
5.95 0.0253108
5.96 0.0315781
5.97 0.0371628
5.98 0.0420185
5.99 0.0460759
6 0.0492939
6.01 0.0516609
6.02 0.053196
6.03 0.0538953
6.04 0.0538768
6.05 0.0532824
6.06 0.0522423
6.07 0.0509027
6.08 0.0494214
6.09 0.0479636
6.1 0.0467295
6.11 0.0458679
6.12 0.04552
6.13 0.0458088
6.14 0.0468349
6.15 0.0486725
6.16 0.051423
6.17 0.055089
6.18 0.0595994
6.19 0.0648987
6.2 0.0709026
6.21 0.0775009
6.22 0.0845612
6.23 0.0919507
6.24 0.0994529
6.25 0.106896
6.26 0.11411
6.27 0.120927
6.28 0.127192
6.29 0.132724
6.3 0.137379
6.31 0.141115
6.32 0.143871
6.33 0.145615
6.34 0.146345
6.35 0.146087
6.36 0.144806
6.37 0.142682
6.38 0.139833
6.39 0.136385
6.4 0.132475
6.41 0.128248
6.42 0.123854
6.43 0.119458
6.44 0.11521
6.45 0.111234
6.46 0.10764
6.47 0.104518
6.48 0.101937
6.49 0.0999991
6.5 0.0986829
6.51 0.0979663
6.52 0.0978185
6.53 0.0981881
6.54 0.0990059
6.55 0.100196
6.56 0.101663
6.57 0.103272
6.58 0.104918
6.59 0.106492
6.6 0.107896
6.61 0.109037
6.62 0.109798
6.63 0.110125
6.64 0.109982
6.65 0.109339
6.66 0.108185
6.67 0.106524
6.68 0.10437
6.69 0.10173
6.7 0.0987055
6.71 0.095359
6.72 0.0917619
6.73 0.0879899
6.74 0.0841209
6.75 0.0802361
6.76 0.076419
6.77 0.0727359
6.78 0.0692442
6.79 0.0659915
6.8 0.0630142
6.81 0.0603401
6.82 0.0580138
6.83 0.0560006
6.84 0.0542884
6.85 0.0528553
6.86 0.0516717
6.87 0.0507014
6.88 0.0499111
6.89 0.049249
6.9 0.0486613
6.91 0.0481043
6.92 0.047537
6.93 0.0469227
6.94 0.0462295
6.95 0.0454172
6.96 0.0444775
6.97 0.0433994
6.98 0.0421778
6.99 0.0408138
7 0.0393134
7.01 0.0376816
7.02 0.0359328
7.03 0.034092
7.04 0.0321769
7.05 0.0302051
7.06 0.0281932
7.07 0.0261561
7.08 0.024106
7.09 0.022054
7.1 0.0200059
7.11 0.0179643
7.12 0.0159285
7.13 0.0138957
7.14 0.0118604
7.15 0.00981484
7.16 0.00775207
7.17 0.00566533
7.18 0.00354895
7.19 0.00139915
7.2 -0.000785417
7.21 -0.00300561
7.22 -0.00525282
7.23 -0.00751641
7.24 -0.00978291
7.25 -0.0120353
7.26 -0.0142535
7.27 -0.0164123
7.28 -0.0184782
7.29 -0.0204303
7.3 -0.0222422
7.31 -0.023888
7.32 -0.0253435
7.33 -0.0265871
7.34 -0.0275805
7.35 -0.0283188
7.36 -0.0288022
7.37 -0.0290278
7.38 -0.0289981
7.39 -0.0287216
7.4 -0.0282083
7.41 -0.0274631
7.42 -0.0265343
7.43 -0.0254517
7.44 -0.0242487
7.45 -0.0229613
7.46 -0.0216275
7.47 -0.0202887
7.48 -0.0189894
7.49 -0.0177675
7.5 -0.0166587
7.51 -0.0156957
7.52 -0.014908
7.53 -0.0143218
7.54 -0.0139824
7.55 -0.0138809
7.56 -0.0140252
7.57 -0.0144181
7.58 -0.0150565
7.59 -0.0159321
7.6 -0.0170433
7.61 -0.0183683
7.62 -0.0198703
7.63 -0.0215223
7.64 -0.0232943
7.65 -0.0251541
7.66 -0.0270681
7.67 -0.0290006
7.68 -0.0309126
7.69 -0.0327714
7.7 -0.0345467
7.71 -0.0362109
7.72 -0.0377397
7.73 -0.0391047
7.74 -0.0402849
7.75 -0.0412822
7.76 -0.0420925
7.77 -0.0427173
7.78 -0.0431636
7.79 -0.0434434
7.8 -0.0435613
7.81 -0.0435547
7.82 -0.0434525
7.83 -0.0432843
7.84 -0.0430819
7.85 -0.0428779
7.86 -0.0427077
7.87 -0.04261
7.88 -0.0426105
7.89 -0.0427343
7.9 -0.0430021
7.91 -0.0434286
7.92 -0.0440225
7.93 -0.0447996
7.94 -0.0457415
7.95 -0.0468276
7.96 -0.0480345
7.97 -0.0493317
7.98 -0.0506821
7.99 -0.0520417
8 -0.0533543
8.01 -0.0545686
8.02 -0.0556327
8.03 -0.0564951
8.04 -0.0571071
8.05 -0.0574239
8.06 -0.0573784
8.07 -0.0569506
8.08 -0.0561347
8.09 -0.0549228
8.1 -0.0533187
8.11 -0.0513385
8.12 -0.0490059
8.13 -0.046341
8.14 -0.0434338
8.15 -0.0403491
8.16 -0.0371601
8.17 -0.0339463
8.18 -0.0307914
8.19 -0.0277967
8.2 -0.0250559
8.21 -0.0226403
8.22 -0.0206222
8.23 -0.0190639
8.24 -0.0180159
8.25 -0.0175166
8.26 -0.0176499
8.27 -0.0183524
8.28 -0.0196058
8.29 -0.0213744
8.3 -0.0236061
8.31 -0.0262328
8.32 -0.0291847
8.33 -0.0323535
8.34 -0.0356165
8.35 -0.0388642
8.36 -0.0419857
8.37 -0.0448715
8.38 -0.0474171
8.39 -0.0494695
8.4 -0.0509829
8.41 -0.051895
8.42 -0.0521572
8.43 -0.0517395
8.44 -0.050632
8.45 -0.0488155
8.46 -0.04631
8.47 -0.0432182
8.48 -0.039611
8.49 -0.0355736
8.5 -0.031203
8.51 -0.0266048
8.52 -0.0218891
8.53 -0.0171893
8.54 -0.0126157
8.55 -0.00826943
8.56 -0.0042416
8.57 -0.000610152
8.58 0.00254512
8.59 0.00515108
8.6 0.00722561
8.61 0.00876699
8.62 0.00979243
8.63 0.010337
8.64 0.0104522
8.65 0.0101787
8.66 0.00962527
8.67 0.00888938
8.68 0.00806158
8.69 0.0072327
8.7 0.00649035
8.71 0.00592122
8.72 0.00562135
8.73 0.00562861
8.74 0.00598289
8.75 0.00670754
8.76 0.00780857
8.77 0.00927459
8.78 0.0110995
8.79 0.0132191
8.8 0.0155588
8.81 0.0180469
8.82 0.0206042
8.83 0.023147
8.84 0.0255881
8.85 0.0278187
8.86 0.0297762
8.87 0.0313959
8.88 0.0326252
8.89 0.0334258
8.9 0.0337754
8.91 0.03364
8.92 0.033042
8.93 0.0320382
8.94 0.0306773
8.95 0.0290212
8.96 0.0271429
8.97 0.0251236
8.98 0.0230538
8.99 0.0210358
9 0.0191547
9.01 0.0174897
9.02 0.0161109
9.03 0.0150764
9.04 0.0144529
9.05 0.0142743
9.06 0.0145219
9.07 0.015185
9.08 0.0162357
9.09 0.0176303
9.1 0.0193112
9.11 0.0212235
9.12 0.0232582
9.13 0.0253276
9.14 0.0273446
9.15 0.0292239
9.16 0.0308854
9.17 0.0322423
9.18 0.0332162
9.19 0.0337869
9.2 0.0339277
9.21 0.0336289
9.22 0.0328981
9.23 0.0317603
9.24 0.0302266
9.25 0.0283886
9.26 0.0263249
9.27 0.0241151
9.28 0.0218446
9.29 0.0196011
9.3 0.0174776
9.31 0.0155769
9.32 0.0139595
9.33 0.0126854
9.34 0.0118007
9.35 0.0113356
9.36 0.0113036
9.37 0.0117349
9.38 0.0125797
9.39 0.0137816
9.4 0.0152832
9.41 0.0170151
9.42 0.0188981
9.43 0.0208454
9.44 0.0227544
9.45 0.024532
9.46 0.0260946
9.47 0.0273664
9.48 0.0282823
9.49 0.0287909
9.5 0.0288216
9.51 0.0283687
9.52 0.0274548
9.53 0.0261005
9.54 0.0243432
9.55 0.0222355
9.56 0.0198416
9.57 0.0172284
9.58 0.0145111
9.59 0.0117798
9.6 0.00912439
9.61 0.00663175
9.62 0.00438228
9.63 0.00247037
9.64 0.000958968
9.65 -0.000129479
9.66 -0.000771066
9.67 -0.000958885
9.68 -0.000703154
9.69 -3.06853e-05
9.7 0.00105302
9.71 0.00244169
9.72 0.00406479
9.73 0.00584458
9.74 0.00769862
9.75 0.00954302
9.76 0.0112867
9.77 0.0128398
9.78 0.0141429
9.79 0.015141
9.8 0.0157929
9.81 0.016072
9.82 0.0159678
9.83 0.0154488
9.84 0.0145767
9.85 0.0133967
9.86 0.0119626
9.87 0.0103386
9.88 0.00859736
9.89 0.00681883
9.9 0.00509644
9.91 0.00351104
9.92 0.00213678
9.93 0.00104032
9.94 0.0002783
9.95 -0.000104761
9.96 -3.83474e-05
9.97 0.000463909
9.98 0.00138835
9.99 0.00271594
10 0.00441327
10.01 0.00643384
10.02 0.00872551
10.03 0.011223
10.04 0.0138292
10.05 0.0164663
10.06 0.0190561
10.07 0.0215233
10.08 0.0237974
10.09 0.0257898
10.1 0.0274544
10.11 0.0287617
10.12 0.0296856
10.13 0.0302129
10.14 0.0303439
10.15 0.030085
10.16 0.0294364
10.17 0.0284735
10.18 0.0272421
10.19 0.0257942
10.2 0.0241857
10.21 0.0224741
10.22 0.0207173
10.23 0.0189776
10.24 0.0173049
10.25 0.0157405
10.26 0.0143177
10.27 0.0130613
10.28 0.011988
10.29 0.0111231
10.3 0.0104413
10.31 0.00992994
10.32 0.00956955
10.33 0.00933541
10.34 0.00919903
10.35 0.00913187
10.36 0.00909795
10.37 0.00906438
10.38 0.00900482
10.39 0.00889705
10.4 0.00872397
10.41 0.00847409
10.42 0.00813267
10.43 0.00771024
10.44 0.00721448
10.45 0.00665731
10.46 0.00605424
10.47 0.00542316
10.48 0.00478359
10.49 0.00415699
10.5 0.00356007
10.51 0.00300587
10.52 0.00250312
10.53 0.0020554
10.54 0.00166065
10.55 0.00131405
10.56 0.000995394
10.57 0.00068359
10.58 0.000353941
10.59 -2.1353e-05
10.6 -0.000471826
10.61 -0.00103231
10.62 -0.00174008
10.63 -0.00261022
10.64 -0.00366117
10.65 -0.00490459
10.66 -0.00634413
10.67 -0.00797447
10.68 -0.00979443
10.69 -0.0117632
10.7 -0.0138396
10.71 -0.0159782
10.72 -0.0181263
10.73 -0.0202252
10.74 -0.0222076
10.75 -0.0239893
10.76 -0.0255184
10.77 -0.0267355
10.78 -0.0275874
10.79 -0.0280296
10.8 -0.028028
10.81 -0.0275235
10.82 -0.0265295
10.83 -0.0250749
10.84 -0.0231864
10.85 -0.0209056
10.86 -0.0182883
10.87 -0.0154007
10.88 -0.0123176
10.89 -0.00915549
10.9 -0.00601019
10.91 -0.00297982
10.92 -0.000161616
10.93 0.00235128
10.94 0.00444068
10.95 0.00602988
10.96 0.00707966
10.97 0.00754702
10.98 0.00740635
10.99 0.00665052
11 0.00528879
11.01 0.00329595
11.02 0.000793202
11.03 -0.0021495
11.04 -0.00544805
11.05 -0.00900669
11.06 -0.012721
11.07 -0.0164767
11.08 -0.0201442
11.09 -0.0236123
11.1 -0.0267769
11.11 -0.0295431
11.12 -0.0318277
11.13 -0.0335616
11.14 -0.0346213
11.15 -0.0350346
11.16 -0.0347938
11.17 -0.0339062
11.18 -0.032397
11.19 -0.0303081
11.2 -0.0276766
11.21 -0.0245745
11.22 -0.0211219
11.23 -0.0174101
11.24 -0.0135346
11.25 -0.00959195
11.26 -0.00567701
11.27 -0.00190031
11.28 0.0016571
11.29 0.0049266
11.3 0.00784887
11.31 0.0103774
11.32 0.0124793
11.33 0.0141194
11.34 0.0152723
11.35 0.0159855
11.36 0.0162812
11.37 0.0161915
11.38 0.0157566
11.39 0.0150231
11.4 0.0140244
11.41 0.0128344
11.42 0.0115125
11.43 0.0101088
11.44 0.00866957
11.45 0.007236
11.46 0.00584489
11.47 0.00453212
11.48 0.00331266
11.49 0.00219891
11.5 0.00119677
11.51 0.000306364
11.52 -0.000477113
11.53 -0.00115561
11.54 -0.00174594
11.55 -0.00226489
11.56 -0.00272534
11.57 -0.00313908
11.58 -0.00351589
11.59 -0.0038625
11.6 -0.00418049
11.61 -0.00447226
11.62 -0.00473387
11.63 -0.00495827
11.64 -0.00513588
11.65 -0.00525524
11.66 -0.00529838
11.67 -0.00525214
11.68 -0.00510914
11.69 -0.00486049
11.7 -0.00450041
11.71 -0.00402693
11.72 -0.00344229
11.73 -0.00274344
11.74 -0.00195659
11.75 -0.00109999
11.76 -0.000196182
11.77 0.000728685
11.78 0.00164572
11.79 0.0025204
11.8 0.00331647
11.81 0.00400679
11.82 0.004564
11.83 0.00496445
