# xPDFsuite Configuration #
[PDF]
wavelength = 0.1
dataformat = QA
inputfile = BiMsol6_insitu_700 C-00034.xy
backgroundfile = Quartz2mm-dist500-00000.xy
mode = xray
bgscale = 0.0042
composition = Bi2Fe4O9
outputtype = gr
qmaxinst = 24.998449118
qmin = 0.1
qmax = 21.4986662415
rmax = 80.0
rmin = 0.0
rstep = 0.01
rpoly = 0.9

[Misc]
inputdir = C:/Data/Seafile/CPH/Beamtime/Desy Oct 20/In situ data/Processed/BiMsol6/PDF
savedir = C:/Data/Seafile/CPH/Beamtime/Desy Oct 20/In situ data/PDF/BiMsol6
backgroundfilefull = C:/Data/Seafile/CPH/Beamtime/Desy Oct 20/In situ data/Processed/Standard_Empty_Cap/Quartz2mm-dist500-00000.xy

#### start data
#S 1
#L r($\AA$)  G($\AA^{-2}$)
0 0
0.01 0.0065501
0.02 0.0127348
0.03 0.0182412
0.04 0.0227886
0.05 0.026141
0.06 0.0281182
0.07 0.0285231
0.08 0.027297
0.09 0.0245837
0.1 0.0205007
0.11 0.0152312
0.12 0.00901597
0.13 0.00214251
0.14 -0.00506684
0.15 -0.012203
0.16 -0.0189213
0.17 -0.024898
0.18 -0.0298422
0.19 -0.0335104
0.2 -0.0356519
0.21 -0.036094
0.22 -0.034932
0.23 -0.0322294
0.24 -0.0281283
0.25 -0.0228447
0.26 -0.0166605
0.27 -0.00989482
0.28 -0.0030136
0.29 0.00356886
0.3 0.00945011
0.31 0.014247
0.32 0.0176141
0.33 0.019202
0.34 0.0186678
0.35 0.0160587
0.36 0.0113679
0.37 0.00469274
0.38 -0.00376364
0.39 -0.0136954
0.4 -0.0247487
0.41 -0.0363084
0.42 -0.0477698
0.43 -0.0585186
0.44 -0.0679184
0.45 -0.0753351
0.46 -0.0800981
0.47 -0.0813452
0.48 -0.0788852
0.49 -0.0723675
0.5 -0.0615634
0.51 -0.0463809
0.52 -0.0268737
0.53 -0.00297536
0.54 0.0247649
0.55 0.0556232
0.56 0.0889263
0.57 0.123886
0.58 0.159624
0.59 0.195179
0.6 0.229328
0.61 0.261116
0.62 0.289581
0.63 0.313822
0.64 0.33303
0.65 0.346512
0.66 0.353306
0.67 0.353024
0.68 0.345854
0.69 0.331812
0.7 0.3111
0.71 0.284099
0.72 0.251361
0.73 0.213111
0.74 0.170853
0.75 0.125567
0.76 0.0782945
0.77 0.0301113
0.78 -0.0178983
0.79 -0.0645605
0.8 -0.1087
0.81 -0.149526
0.82 -0.186272
0.83 -0.218311
0.84 -0.245173
0.85 -0.266552
0.86 -0.281734
0.87 -0.291295
0.88 -0.295553
0.89 -0.294898
0.9 -0.289847
0.91 -0.281028
0.92 -0.269063
0.93 -0.254749
0.94 -0.239114
0.95 -0.222953
0.96 -0.207028
0.97 -0.192044
0.98 -0.178626
0.99 -0.167537
1 -0.15908
1.01 -0.153463
1.02 -0.150822
1.03 -0.15117
1.04 -0.154399
1.05 -0.16036
1.06 -0.168832
1.07 -0.179175
1.08 -0.190928
1.09 -0.2036
1.1 -0.216687
1.11 -0.229696
1.12 -0.242082
1.13 -0.25341
1.14 -0.263365
1.15 -0.271689
1.16 -0.278208
1.17 -0.282835
1.18 -0.285539
1.19 -0.286276
1.2 -0.285415
1.21 -0.283198
1.22 -0.279916
1.23 -0.275893
1.24 -0.27147
1.25 -0.267009
1.26 -0.262882
1.27 -0.259374
1.28 -0.256723
1.29 -0.255109
1.3 -0.254647
1.31 -0.25539
1.32 -0.257425
1.33 -0.260507
1.34 -0.264462
1.35 -0.269065
1.36 -0.274048
1.37 -0.279117
1.38 -0.28393
1.39 -0.288132
1.4 -0.291452
1.41 -0.29364
1.42 -0.29449
1.43 -0.293852
1.44 -0.291643
1.45 -0.287676
1.46 -0.282198
1.47 -0.275364
1.48 -0.267388
1.49 -0.258538
1.5 -0.24913
1.51 -0.239523
1.52 -0.230147
1.53 -0.221384
1.54 -0.213592
1.55 -0.207096
1.56 -0.202176
1.57 -0.199055
1.58 -0.198092
1.59 -0.199193
1.6 -0.202298
1.61 -0.207299
1.62 -0.214006
1.63 -0.222155
1.64 -0.231439
1.65 -0.241446
1.66 -0.251653
1.67 -0.261605
1.68 -0.27084
1.69 -0.278908
1.7 -0.285389
1.71 -0.2897
1.72 -0.291621
1.73 -0.29098
1.74 -0.287634
1.75 -0.281527
1.76 -0.272693
1.77 -0.261192
1.78 -0.247112
1.79 -0.230994
1.8 -0.213203
1.81 -0.194158
1.82 -0.174308
1.83 -0.154125
1.84 -0.134128
1.85 -0.114826
1.86 -0.0966238
1.87 -0.0798857
1.88 -0.0649132
1.89 -0.0519356
1.9 -0.0411362
1.91 -0.0327739
1.92 -0.0265873
1.93 -0.0224575
1.94 -0.0201921
1.95 -0.0195353
1.96 -0.0201786
1.97 -0.0218131
1.98 -0.0239945
1.99 -0.0263005
2 -0.028366
2.01 -0.029854
2.02 -0.0304696
2.03 -0.0299671
2.04 -0.0280162
2.05 -0.0246652
2.06 -0.0199087
2.07 -0.0138192
2.08 -0.00654524
2.09 0.00169452
2.1 0.0106376
2.11 0.0198938
2.12 0.0290439
2.13 0.0376868
2.14 0.0454159
2.15 0.0518349
2.16 0.0565729
2.17 0.0590471
2.18 0.0591688
2.19 0.0567583
2.2 0.0516948
2.21 0.0439369
2.22 0.0335255
2.23 0.0204769
2.24 0.004971
2.25 -0.0125228
2.26 -0.0316549
2.27 -0.0520272
2.28 -0.0732066
2.29 -0.094739
2.3 -0.116108
2.31 -0.136824
2.32 -0.156471
2.33 -0.17467
2.34 -0.191094
2.35 -0.205478
2.36 -0.217543
2.37 -0.227043
2.38 -0.23414
2.39 -0.238879
2.4 -0.241379
2.41 -0.241819
2.42 -0.240437
2.43 -0.23741
2.44 -0.23319
2.45 -0.228166
2.46 -0.222689
2.47 -0.217103
2.48 -0.211737
2.49 -0.206909
2.5 -0.202962
2.51 -0.200047
2.52 -0.198311
2.53 -0.19785
2.54 -0.198702
2.55 -0.200849
2.56 -0.204308
2.57 -0.208896
2.58 -0.214397
2.59 -0.220616
2.6 -0.227335
2.61 -0.234325
2.62 -0.241352
2.63 -0.248145
2.64 -0.254499
2.65 -0.260232
2.66 -0.265192
2.67 -0.269259
2.68 -0.272353
2.69 -0.274363
2.7 -0.2753
2.71 -0.275255
2.72 -0.274299
2.73 -0.272527
2.74 -0.270056
2.75 -0.267016
2.76 -0.263515
2.77 -0.259756
2.78 -0.255872
2.79 -0.251986
2.8 -0.248204
2.81 -0.24461
2.82 -0.241282
2.83 -0.238263
2.84 -0.235542
2.85 -0.2331
2.86 -0.230899
2.87 -0.228882
2.88 -0.226977
2.89 -0.225094
2.9 -0.223134
2.91 -0.22101
2.92 -0.218639
2.93 -0.215949
2.94 -0.212879
2.95 -0.209366
2.96 -0.205367
2.97 -0.200912
2.98 -0.196017
2.99 -0.190715
3 -0.185054
3.01 -0.179096
3.02 -0.172897
3.03 -0.166559
3.04 -0.160165
3.05 -0.153786
3.06 -0.14749
3.07 -0.14133
3.08 -0.135353
3.09 -0.129594
3.1 -0.124037
3.11 -0.118663
3.12 -0.113434
3.13 -0.108295
3.14 -0.103177
3.15 -0.0979814
3.16 -0.0926081
3.17 -0.0869605
3.18 -0.08094
3.19 -0.0744518
3.2 -0.0674087
3.21 -0.0597203
3.22 -0.0512675
3.23 -0.0420729
3.24 -0.0321165
3.25 -0.0213982
3.26 -0.00993737
3.27 0.0022276
3.28 0.0150838
3.29 0.0285296
3.3 0.0424531
3.31 0.0567633
3.32 0.0713663
3.33 0.0861688
3.34 0.101083
3.35 0.116022
3.36 0.130913
3.37 0.145705
3.38 0.160364
3.39 0.174874
3.4 0.189236
3.41 0.203461
3.42 0.217588
3.43 0.231672
3.44 0.245768
3.45 0.259936
3.46 0.274236
3.47 0.288723
3.48 0.303476
3.49 0.318505
3.5 0.333822
3.51 0.349423
3.52 0.365279
3.53 0.381338
3.54 0.397527
3.55 0.413726
3.56 0.429801
3.57 0.445605
3.58 0.460973
3.59 0.475731
3.6 0.489696
3.61 0.50256
3.62 0.514213
3.63 0.524495
3.64 0.53325
3.65 0.540337
3.66 0.545644
3.67 0.549002
3.68 0.550278
3.69 0.549598
3.7 0.546974
3.71 0.54245
3.72 0.536099
3.73 0.528024
3.74 0.518219
3.75 0.506963
3.76 0.494465
3.77 0.480907
3.78 0.466478
3.79 0.451369
3.8 0.43576
3.81 0.419839
3.82 0.403813
3.83 0.387836
3.84 0.372043
3.85 0.356552
3.86 0.341458
3.87 0.326881
3.88 0.312859
3.89 0.299403
3.9 0.286528
3.91 0.274231
3.92 0.262496
3.93 0.251304
3.94 0.240655
3.95 0.230452
3.96 0.220651
3.97 0.211203
3.98 0.202063
3.99 0.193186
4 0.184544
4.01 0.176092
4.02 0.167786
4.03 0.159601
4.04 0.151512
4.05 0.1435
4.06 0.135548
4.07 0.127645
4.08 0.119769
4.09 0.111908
4.1 0.104049
4.11 0.0961793
4.12 0.088286
4.13 0.0803533
4.14 0.0723679
4.15 0.0643219
4.16 0.0562078
4.17 0.048022
4.18 0.0397651
4.19 0.0314437
4.2 0.023067
4.21 0.0146643
4.22 0.00626598
4.23 -0.00208999
4.24 -0.0103581
4.25 -0.0184858
4.26 -0.0264018
4.27 -0.0340283
4.28 -0.0413136
4.29 -0.0481918
4.3 -0.0545991
4.31 -0.0604767
4.32 -0.0657727
4.33 -0.0703776
4.34 -0.0743145
4.35 -0.0775794
4.36 -0.0801743
4.37 -0.0821176
4.38 -0.0834436
4.39 -0.0841845
4.4 -0.0843971
4.41 -0.0842089
4.42 -0.0837142
4.43 -0.0830159
4.44 -0.0822221
4.45 -0.081443
4.46 -0.080808
4.47 -0.0804234
4.48 -0.0803772
4.49 -0.080748
4.5 -0.0815986
4.51 -0.0829739
4.52 -0.0849136
4.53 -0.0874544
4.54 -0.0905233
4.55 -0.0940764
4.56 -0.0980507
4.57 -0.102366
4.58 -0.106927
4.59 -0.111629
4.6 -0.116338
4.61 -0.120929
4.62 -0.125287
4.63 -0.129301
4.64 -0.132871
4.65 -0.135897
4.66 -0.13825
4.67 -0.139937
4.68 -0.140933
4.69 -0.14123
4.7 -0.140848
4.71 -0.139822
4.72 -0.138176
4.73 -0.13601
4.74 -0.133446
4.75 -0.130587
4.76 -0.127544
4.77 -0.12443
4.78 -0.121358
4.79 -0.118464
4.8 -0.115835
4.81 -0.113556
4.82 -0.111693
4.83 -0.110298
4.84 -0.109403
4.85 -0.109051
4.86 -0.109235
4.87 -0.109898
4.88 -0.110995
4.89 -0.112473
4.9 -0.114265
4.91 -0.116297
4.92 -0.118501
4.93 -0.120776
4.94 -0.123045
4.95 -0.125241
4.96 -0.127305
4.97 -0.12919
4.98 -0.130849
4.99 -0.132253
5 -0.133415
5.01 -0.134344
5.02 -0.13506
5.03 -0.135597
5.04 -0.135992
5.05 -0.13629
5.06 -0.136552
5.07 -0.136828
5.08 -0.137166
5.09 -0.137605
5.1 -0.138178
5.11 -0.138914
5.12 -0.139832
5.13 -0.140915
5.14 -0.142148
5.15 -0.143502
5.16 -0.144941
5.17 -0.146416
5.18 -0.147869
5.19 -0.149235
5.2 -0.150455
5.21 -0.151473
5.22 -0.152235
5.23 -0.152696
5.24 -0.152812
5.25 -0.152532
5.26 -0.151881
5.27 -0.150865
5.28 -0.149504
5.29 -0.147831
5.3 -0.145892
5.31 -0.143731
5.32 -0.14143
5.33 -0.139067
5.34 -0.136713
5.35 -0.134439
5.36 -0.132309
5.37 -0.130384
5.38 -0.128738
5.39 -0.12738
5.4 -0.126323
5.41 -0.125567
5.42 -0.125096
5.43 -0.124875
5.44 -0.124865
5.45 -0.124991
5.46 -0.125168
5.47 -0.125313
5.48 -0.125341
5.49 -0.125166
5.5 -0.124703
5.51 -0.123829
5.52 -0.122517
5.53 -0.120719
5.54 -0.118405
5.55 -0.115562
5.56 -0.112197
5.57 -0.108312
5.58 -0.103959
5.59 -0.0992371
5.6 -0.0942287
5.61 -0.0890281
5.62 -0.0837382
5.63 -0.0784663
5.64 -0.0733447
5.65 -0.0684736
5.66 -0.063944
5.67 -0.0598348
5.68 -0.0562086
5.69 -0.0531086
5.7 -0.0505809
5.71 -0.0486372
5.72 -0.0472074
5.73 -0.0462399
5.74 -0.0456628
5.75 -0.0453864
5.76 -0.0453068
5.77 -0.0453056
5.78 -0.0452418
5.79 -0.0449927
5.8 -0.044442
5.81 -0.0434829
5.82 -0.0420225
5.83 -0.0399649
5.84 -0.0372202
5.85 -0.0338148
5.86 -0.0297513
5.87 -0.0250582
5.88 -0.0197892
5.89 -0.014022
5.9 -0.00783083
5.91 -0.00137122
5.92 0.00521237
5.93 0.0117803
5.94 0.0181908
5.95 0.0243057
5.96 0.0299834
5.97 0.0350557
5.98 0.0394741
5.99 0.0431707
6 0.0461039
6.01 0.0482606
6.02 0.0496568
6.03 0.0502896
6.04 0.0502698
6.05 0.0497321
6.06 0.0488022
6.07 0.0476223
6.08 0.046346
6.09 0.0451357
6.1 0.0441914
6.11 0.043654
6.12 0.0436613
6.13 0.0443325
6.14 0.0457635
6.15 0.0480234
6.16 0.0512074
6.17 0.0553093
6.18 0.0602486
6.19 0.0659597
6.2 0.0723474
6.21 0.0792896
6.22 0.0866417
6.23 0.0942495
6.24 0.101891
6.25 0.109385
6.26 0.11655
6.27 0.123212
6.28 0.129214
6.29 0.134363
6.3 0.13852
6.31 0.141656
6.32 0.143721
6.33 0.144696
6.34 0.144598
6.35 0.143474
6.36 0.141314
6.37 0.138328
6.38 0.134662
6.39 0.130469
6.4 0.125913
6.41 0.121166
6.42 0.116404
6.43 0.111822
6.44 0.10757
6.45 0.103781
6.46 0.100566
6.47 0.0980107
6.48 0.0961746
6.49 0.095157
6.5 0.0948979
6.51 0.095343
6.52 0.0964285
6.53 0.0980665
6.54 0.100149
6.55 0.102559
6.56 0.105152
6.57 0.107761
6.58 0.110246
6.59 0.112474
6.6 0.11432
6.61 0.115677
6.62 0.1164
6.63 0.116445
6.64 0.115794
6.65 0.114434
6.66 0.112377
6.67 0.109659
6.68 0.106326
6.69 0.102427
6.7 0.0981158
6.71 0.093502
6.72 0.0887007
6.73 0.0838301
6.74 0.0790072
6.75 0.0743622
6.76 0.0700045
6.77 0.066011
6.78 0.0624496
6.79 0.0593702
6.8 0.0568029
6.81 0.0547623
6.82 0.0532867
6.83 0.0522861
6.84 0.0517113
6.85 0.0514988
6.86 0.0515746
6.87 0.0518568
6.88 0.0522608
6.89 0.0526857
6.9 0.0530423
6.91 0.0532541
6.92 0.0532536
6.93 0.0529851
6.94 0.0524062
6.95 0.0514484
6.96 0.0501384
6.97 0.0484831
6.98 0.0465021
6.99 0.0442278
7 0.0417031
7.01 0.0389724
7.02 0.0360999
7.03 0.0331591
7.04 0.0302106
7.05 0.027312
7.06 0.0245155
7.07 0.0218658
7.08 0.0194199
7.09 0.0171867
7.1 0.0151739
7.11 0.0133798
7.12 0.0117916
7.13 0.0103859
7.14 0.00913423
7.15 0.0079942
7.16 0.00690793
7.17 0.00582619
7.18 0.00469966
7.19 0.0034813
7.2 0.00212863
7.21 0.000587607
7.22 -0.0011589
7.23 -0.00312061
7.24 -0.00530017
7.25 -0.00768833
7.26 -0.0102639
7.27 -0.0129973
7.28 -0.015845
7.29 -0.0187392
7.3 -0.0216185
7.31 -0.0244167
7.32 -0.0270652
7.33 -0.0294958
7.34 -0.0316144
7.35 -0.0333666
7.36 -0.0347121
7.37 -0.0356101
7.38 -0.0360318
7.39 -0.035961
7.4 -0.0353876
7.41 -0.0342869
7.42 -0.0327389
7.43 -0.0307871
7.44 -0.0284876
7.45 -0.0259072
7.46 -0.0231214
7.47 -0.0202105
7.48 -0.0172768
7.49 -0.014414
7.5 -0.0117093
7.51 -0.0092456
7.52 -0.00709934
7.53 -0.00534112
7.54 -0.00408037
7.55 -0.00331433
7.56 -0.00307094
7.57 -0.00336381
7.58 -0.00419199
7.59 -0.00554019
7.6 -0.0074056
7.61 -0.00973755
7.62 -0.0124516
7.63 -0.0154823
7.64 -0.0187571
7.65 -0.0221984
7.66 -0.0257258
7.67 -0.0292502
7.68 -0.0326849
7.69 -0.0359568
7.7 -0.038999
7.71 -0.0417534
7.72 -0.0441716
7.73 -0.0461971
7.74 -0.0477942
7.75 -0.0489797
7.76 -0.0497565
7.77 -0.0501397
7.78 -0.0501557
7.79 -0.0498411
7.8 -0.0492185
7.81 -0.0483721
7.82 -0.0473664
7.83 -0.0462646
7.84 -0.045131
7.85 -0.044029
7.86 -0.0430246
7.87 -0.0421869
7.88 -0.0415543
7.89 -0.0411654
7.9 -0.0410484
7.91 -0.0412212
7.92 -0.0416901
7.93 -0.0424743
7.94 -0.0435346
7.95 -0.0448319
7.96 -0.0463249
7.97 -0.0479633
7.98 -0.0496894
7.99 -0.0514384
8 -0.0531306
8.01 -0.0546956
8.02 -0.056065
8.03 -0.0571738
8.04 -0.0579624
8.05 -0.0583784
8.06 -0.0583438
8.07 -0.0578412
8.08 -0.056871
8.09 -0.0554308
8.1 -0.0535324
8.11 -0.0512021
8.12 -0.0484749
8.13 -0.0453824
8.14 -0.0420324
8.15 -0.0385033
8.16 -0.0348811
8.17 -0.0312579
8.18 -0.0277285
8.19 -0.0244077
8.2 -0.0213977
8.21 -0.0187743
8.22 -0.0166141
8.23 -0.0149827
8.24 -0.0139323
8.25 -0.0135018
8.26 -0.0137813
8.27 -0.0146966
8.28 -0.0162262
8.29 -0.0183299
8.3 -0.0209504
8.31 -0.024014
8.32 -0.0274466
8.33 -0.0311317
8.34 -0.0349369
8.35 -0.0387448
8.36 -0.0424358
8.37 -0.0458915
8.38 -0.048998
8.39 -0.0515891
8.4 -0.0536096
8.41 -0.0549867
8.42 -0.0556611
8.43 -0.0555923
8.44 -0.05476
8.45 -0.0531311
8.46 -0.0507137
8.47 -0.0476094
8.48 -0.0438838
8.49 -0.0396191
8.5 -0.0349114
8.51 -0.0298681
8.52 -0.0245948
8.53 -0.0192423
8.54 -0.0139345
8.55 -0.00878718
8.56 -0.00390896
8.57 0.000602184
8.58 0.00464369
8.59 0.00811442
8.6 0.0110071
8.61 0.0132949
8.62 0.0149708
8.63 0.0160468
8.64 0.0165537
8.65 0.0164993
8.66 0.0159863
8.67 0.0151084
8.68 0.0139524
8.69 0.0126109
8.7 0.0111785
8.71 0.00975093
8.72 0.00843467
8.73 0.00730683
8.74 0.00643551
8.75 0.00587576
8.76 0.00566793
8.77 0.00583662
8.78 0.00641882
8.79 0.0073894
8.8 0.00870521
8.81 0.0103253
8.82 0.0121969
8.83 0.0142578
8.84 0.0164397
8.85 0.0186647
8.86 0.0208481
8.87 0.0229189
8.88 0.0248118
8.89 0.0264695
8.9 0.0278446
8.91 0.0288796
8.92 0.0295551
8.93 0.0298831
8.94 0.0298725
8.95 0.0295454
8.96 0.028936
8.97 0.0280886
8.98 0.0270423
8.99 0.025884
9 0.0246775
9.01 0.0234864
9.02 0.0223724
9.03 0.0213919
9.04 0.0206067
9.05 0.0200637
9.06 0.019777
9.07 0.019761
9.08 0.0200172
9.09 0.0205347
9.1 0.0212903
9.11 0.0222672
9.12 0.0233958
9.13 0.0246212
9.14 0.0258854
9.15 0.0271283
9.16 0.0282899
9.17 0.0293043
9.18 0.0301065
9.19 0.030665
9.2 0.0309467
9.21 0.0309296
9.22 0.0306037
9.23 0.0299714
9.24 0.0290223
9.25 0.02781
9.26 0.0263809
9.27 0.0247843
9.28 0.0230761
9.29 0.0213172
9.3 0.0195731
9.31 0.0179191
9.32 0.016412
9.33 0.015105
9.34 0.0140433
9.35 0.0132624
9.36 0.0127869
9.37 0.012656
9.38 0.0128507
9.39 0.0133446
9.4 0.0141097
9.41 0.0151075
9.42 0.0162902
9.43 0.0176041
9.44 0.0189862
9.45 0.0203617
9.46 0.021668
9.47 0.0228452
9.48 0.0238386
9.49 0.024601
9.5 0.0250721
9.51 0.0252303
9.52 0.0250748
9.53 0.0246046
9.54 0.0238312
9.55 0.0227772
9.56 0.0214737
9.57 0.0199491
9.58 0.0182802
9.59 0.0165226
9.6 0.0147343
9.61 0.0129731
9.62 0.0112945
9.63 0.0097607
9.64 0.00842049
9.65 0.00729979
9.66 0.00642229
9.67 0.00580106
9.68 0.00543812
9.69 0.00532463
9.7 0.0054647
9.71 0.00579923
9.72 0.00628958
9.73 0.00689183
9.74 0.00755847
9.75 0.00824052
9.76 0.00888562
9.77 0.0094413
9.78 0.00987175
9.79 0.0101459
9.8 0.0102413
9.81 0.0101455
9.82 0.00985626
9.83 0.00936494
9.84 0.00871127
9.85 0.00792862
9.86 0.00705613
9.87 0.0061394
9.88 0.00522867
9.89 0.00438132
9.9 0.00366176
9.91 0.00311476
9.92 0.00278543
9.93 0.00271197
9.94 0.00292401
9.95 0.00344115
9.96 0.0043009
9.97 0.00547572
9.98 0.00693994
9.99 0.00866406
10 0.0106082
10.01 0.0127234
10.02 0.0149547
10.03 0.0172344
10.04 0.019488
10.05 0.0216497
10.06 0.0236559
10.07 0.0254475
10.08 0.0269717
10.09 0.0281558
10.1 0.0289776
10.11 0.0294283
10.12 0.0294996
10.13 0.0291958
10.14 0.0285326
10.15 0.0275316
10.16 0.0262117
10.17 0.0246525
10.18 0.0229074
10.19 0.0210337
10.2 0.0190905
10.21 0.0171365
10.22 0.0152351
10.23 0.0134432
10.24 0.0118016
10.25 0.0103457
10.26 0.00910132
10.27 0.00808497
10.28 0.00730461
10.29 0.00677905
10.3 0.00646742
10.31 0.00634688
10.32 0.00638808
10.33 0.00655679
10.34 0.00681558
10.35 0.00712634
10.36 0.00744505
10.37 0.00773403
10.38 0.00796253
10.39 0.00810529
10.4 0.00814361
10.41 0.00806595
10.42 0.00785504
10.43 0.00752897
10.44 0.00710019
10.45 0.00658645
10.46 0.00601006
10.47 0.00539656
10.48 0.004774
10.49 0.00417365
10.5 0.00362044
10.51 0.00313517
10.52 0.00273349
10.53 0.00242479
10.54 0.00221134
10.55 0.00209564
10.56 0.00205398
10.57 0.00206261
10.58 0.00209265
10.59 0.00210994
10.6 0.00207646
10.61 0.00194697
10.62 0.00167015
10.63 0.00121609
10.64 0.000551585
10.65 -0.000350201
10.66 -0.00150799
10.67 -0.00293092
10.68 -0.00464014
10.69 -0.00660181
10.7 -0.00878093
10.71 -0.011138
10.72 -0.013623
10.73 -0.0161765
10.74 -0.0187296
10.75 -0.0211953
10.76 -0.0234986
10.77 -0.0255644
10.78 -0.0273204
10.79 -0.0287005
10.8 -0.0296471
10.81 -0.0300727
10.82 -0.0299626
10.83 -0.0293209
10.84 -0.0281502
10.85 -0.02647
10.86 -0.0243164
10.87 -0.0217366
10.88 -0.0187781
10.89 -0.0155662
10.9 -0.0121948
10.91 -0.00876503
10.92 -0.005382
10.93 -0.00215151
10.94 0.000798904
10.95 0.00336501
10.96 0.00547576
10.97 0.00706029
10.98 0.00806345
10.99 0.00844776
11 0.00819194
11.01 0.00723143
11.02 0.00566524
11.03 0.00353955
11.04 0.000918279
11.05 -0.00211887
11.06 -0.00547889
11.07 -0.00906432
11.08 -0.012747
11.09 -0.0164005
11.1 -0.0199117
11.11 -0.0231722
11.12 -0.0260816
11.13 -0.0285508
11.14 -0.0304408
11.15 -0.0317439
11.16 -0.0324273
11.17 -0.0324739
11.18 -0.031886
11.19 -0.0306844
11.2 -0.0288843
11.21 -0.0265383
11.22 -0.0237595
11.23 -0.0206311
11.24 -0.0172447
11.25 -0.013696
11.26 -0.0100828
11.27 -0.00651316
11.28 -0.00308444
11.29 0.000123088
11.3 0.003039
11.31 0.00560534
11.32 0.00777798
11.33 0.00951206
11.34 0.0107731
11.35 0.0116006
11.36 0.0120129
11.37 0.0120408
11.38 0.0117257
11.39 0.0111177
11.4 0.010258
11.41 0.00922892
11.42 0.00809893
11.43 0.00692833
11.44 0.00577357
11.45 0.00468535
11.46 0.00371054
11.47 0.00289686
11.48 0.00225556
11.49 0.00179866
11.5 0.00152817
11.51 0.00143653
11.52 0.0015075
11.53 0.00172565
11.54 0.0020511
11.55 0.0024433
11.56 0.00286497
11.57 0.00327852
11.58 0.00364775
11.59 0.00393808
11.6 0.00410829
11.61 0.00414587
11.62 0.00403637
11.63 0.00377265
11.64 0.00335504
11.65 0.00279114
11.66 0.00208812
11.67 0.00127244
11.68 0.000377499
11.69 -0.000566408
11.7 -0.00152684
11.71 -0.00247064
11.72 -0.00336513
11.73 -0.00416763
11.74 -0.00485846
11.75 -0.00541613
11.76 -0.00582453
11.77 -0.00607343
11.78 -0.00615874
11.79 -0.00607412
11.8 -0.00582854
11.81 -0.00544665
11.82 -0.0049475
11.83 -0.00435352
11.84 -0.00368953
11.85 -0.00298153
