# xPDFsuite Configuration #
[PDF]
wavelength = 0.1
dataformat = QA
inputfile = BiMsol6_insitu_700 C-00645.xy
backgroundfile = Quartz2mm-dist500-00000.xy
mode = xray
bgscale = 0.0042
composition = Bi2Fe4O9
outputtype = gr
qmaxinst = 24.998449118
qmin = 0.1
qmax = 21.4986662415
rmax = 80.0
rmin = 0.0
rstep = 0.01
rpoly = 0.9

[Misc]
inputdir = C:/Data/Seafile/CPH/Beamtime/Desy Oct 20/In situ data/Processed/BiMsol6/PDF
savedir = C:/Data/Seafile/CPH/Beamtime/Desy Oct 20/In situ data/PDF/BiMsol6
backgroundfilefull = C:/Data/Seafile/CPH/Beamtime/Desy Oct 20/In situ data/Processed/Standard_Empty_Cap/Quartz2mm-dist500-00000.xy

#### start data
#S 1
#L r($\AA$)  G($\AA^{-2}$)
0 0
0.01 0.00619164
0.02 0.0120343
0.03 0.0172293
0.04 0.0215085
0.05 0.0246464
0.06 0.0264709
0.07 0.0267935
0.08 0.025558
0.09 0.0229014
0.1 0.0189357
0.11 0.0138358
0.12 0.00783136
0.13 0.00119681
0.14 -0.00576016
0.15 -0.0126487
0.16 -0.0191393
0.17 -0.0249224
0.18 -0.02972
0.19 -0.0332988
0.2 -0.0354189
0.21 -0.0359148
0.22 -0.0348772
0.23 -0.0323662
0.24 -0.0285176
0.25 -0.0235378
0.26 -0.0176964
0.27 -0.0112992
0.28 -0.00479241
0.29 0.00142649
0.3 0.00697123
0.31 0.0114736
0.32 0.0146014
0.33 0.0160178
0.34 0.0153919
0.35 0.0127676
0.36 0.00813673
0.37 0.00159123
0.38 -0.00667518
0.39 -0.0163696
0.4 -0.0271534
0.41 -0.0384342
0.42 -0.0496291
0.43 -0.0601447
0.44 -0.0693657
0.45 -0.0766771
0.46 -0.0814274
0.47 -0.0827774
0.48 -0.0805349
0.49 -0.074353
0.5 -0.064001
0.51 -0.0493794
0.52 -0.0305291
0.53 -0.0073693
0.54 0.0195798
0.55 0.049626
0.56 0.0821267
0.57 0.116327
0.58 0.151382
0.59 0.186365
0.6 0.220101
0.61 0.25165
0.62 0.280073
0.63 0.304485
0.64 0.324089
0.65 0.338194
0.66 0.345848
0.67 0.34665
0.68 0.340752
0.69 0.328145
0.7 0.308997
0.71 0.283655
0.72 0.252627
0.73 0.216092
0.74 0.175504
0.75 0.131802
0.76 0.0859836
0.77 0.0390903
0.78 -0.00782617
0.79 -0.0536297
0.8 -0.0971697
0.81 -0.137648
0.82 -0.174302
0.83 -0.206497
0.84 -0.233748
0.85 -0.255731
0.86 -0.271721
0.87 -0.282244
0.88 -0.287579
0.89 -0.288079
0.9 -0.284226
0.91 -0.276611
0.92 -0.265823
0.93 -0.252622
0.94 -0.238017
0.95 -0.222785
0.96 -0.207678
0.97 -0.193396
0.98 -0.180567
0.99 -0.169954
1 -0.161883
1.01 -0.156584
1.02 -0.154216
1.03 -0.154816
1.04 -0.158302
1.05 -0.16455
1.06 -0.173367
1.07 -0.184127
1.08 -0.196382
1.09 -0.209648
1.1 -0.223422
1.11 -0.237205
1.12 -0.250444
1.13 -0.262678
1.14 -0.273566
1.15 -0.282818
1.16 -0.290227
1.17 -0.295672
1.18 -0.299084
1.19 -0.300369
1.2 -0.299877
1.21 -0.297826
1.22 -0.294487
1.23 -0.290174
1.24 -0.285223
1.25 -0.27999
1.26 -0.274867
1.27 -0.270178
1.28 -0.266193
1.29 -0.263137
1.3 -0.26117
1.31 -0.260399
1.32 -0.260975
1.33 -0.262709
1.34 -0.265479
1.35 -0.26911
1.36 -0.273376
1.37 -0.278017
1.38 -0.282735
1.39 -0.28719
1.4 -0.291093
1.41 -0.294179
1.42 -0.296217
1.43 -0.297021
1.44 -0.29646
1.45 -0.294299
1.46 -0.290699
1.47 -0.285743
1.48 -0.279569
1.49 -0.272374
1.5 -0.264403
1.51 -0.255933
1.52 -0.247321
1.53 -0.238926
1.54 -0.231071
1.55 -0.224063
1.56 -0.218179
1.57 -0.213649
1.58 -0.210821
1.59 -0.209681
1.6 -0.210234
1.61 -0.212436
1.62 -0.216175
1.63 -0.221267
1.64 -0.227499
1.65 -0.234558
1.66 -0.242008
1.67 -0.249471
1.68 -0.256557
1.69 -0.262878
1.7 -0.268062
1.71 -0.271605
1.72 -0.273276
1.73 -0.272891
1.74 -0.270289
1.75 -0.265384
1.76 -0.258165
1.77 -0.248644
1.78 -0.236851
1.79 -0.223217
1.8 -0.20803
1.81 -0.191626
1.82 -0.174375
1.83 -0.156674
1.84 -0.138955
1.85 -0.121668
1.86 -0.105184
1.87 -0.089834
1.88 -0.0759049
1.89 -0.0636242
1.9 -0.0531839
1.91 -0.0448484
1.92 -0.0384335
1.93 -0.0338742
1.94 -0.031041
1.95 -0.0297469
1.96 -0.0297562
1.97 -0.0308438
1.98 -0.0326456
1.99 -0.0348006
2 -0.037002
2.01 -0.038961
2.02 -0.0404198
2.03 -0.0411587
2.04 -0.0409024
2.05 -0.0396472
2.06 -0.0373669
2.07 -0.034101
2.08 -0.0299532
2.09 -0.0250877
2.1 -0.0197107
2.11 -0.0141335
2.12 -0.00869306
2.13 -0.00371855
2.14 0.000452864
2.15 0.00348943
2.16 0.00507774
2.17 0.00471904
2.18 0.00233602
2.19 -0.00222963
2.2 -0.00908717
2.21 -0.0182786
2.22 -0.0297761
2.23 -0.043574
2.24 -0.0595253
2.25 -0.0772279
2.26 -0.0963827
2.27 -0.116647
2.28 -0.137643
2.29 -0.158975
2.3 -0.180189
2.31 -0.200847
2.32 -0.220575
2.33 -0.239028
2.34 -0.255905
2.35 -0.270956
2.36 -0.283917
2.37 -0.294548
2.38 -0.302977
2.39 -0.309226
2.4 -0.313384
2.41 -0.315595
2.42 -0.316058
2.43 -0.314907
2.44 -0.312546
2.45 -0.309323
2.46 -0.305553
2.47 -0.30155
2.48 -0.297616
2.49 -0.294046
2.5 -0.291161
2.51 -0.289124
2.52 -0.288091
2.53 -0.288169
2.54 -0.289417
2.55 -0.291841
2.56 -0.295481
2.57 -0.300194
2.58 -0.305799
2.59 -0.312133
2.6 -0.319005
2.61 -0.326214
2.62 -0.333546
2.63 -0.340756
2.64 -0.347638
2.65 -0.35401
2.66 -0.359714
2.67 -0.364619
2.68 -0.368626
2.69 -0.371603
2.7 -0.373531
2.71 -0.374471
2.72 -0.374464
2.73 -0.373577
2.74 -0.371902
2.75 -0.369547
2.76 -0.366588
2.77 -0.363232
2.78 -0.359612
2.79 -0.355855
2.8 -0.352082
2.81 -0.348397
2.82 -0.344905
2.83 -0.341687
2.84 -0.338776
2.85 -0.336196
2.86 -0.333953
2.87 -0.332032
2.88 -0.330402
2.89 -0.329039
2.9 -0.327854
2.91 -0.326778
2.92 -0.32574
2.93 -0.324667
2.94 -0.323488
2.95 -0.322123
2.96 -0.320493
2.97 -0.318556
2.98 -0.316261
2.99 -0.313565
3 -0.31043
3.01 -0.306821
3.02 -0.302653
3.03 -0.297928
3.04 -0.292623
3.05 -0.286699
3.06 -0.28011
3.07 -0.272805
3.08 -0.264698
3.09 -0.255663
3.1 -0.245689
3.11 -0.234691
3.12 -0.222579
3.13 -0.209261
3.14 -0.194644
3.15 -0.178518
3.16 -0.160866
3.17 -0.141673
3.18 -0.120891
3.19 -0.0984974
3.2 -0.0744923
3.21 -0.0488728
3.22 -0.0215948
3.23 0.00708985
3.24 0.0370485
3.25 0.0681159
3.26 0.100096
3.27 0.132766
3.28 0.165886
3.29 0.199133
3.3 0.2322
3.31 0.264788
3.32 0.296597
3.33 0.327328
3.34 0.356677
3.35 0.384181
3.36 0.409748
3.37 0.433162
3.38 0.454237
3.39 0.472824
3.4 0.48881
3.41 0.501953
3.42 0.512242
3.43 0.519837
3.44 0.524789
3.45 0.527183
3.46 0.527133
3.47 0.524778
3.48 0.520051
3.49 0.513395
3.5 0.505003
3.51 0.49507
3.52 0.483792
3.53 0.471361
3.54 0.45792
3.55 0.443656
3.56 0.428787
3.57 0.413453
3.58 0.39778
3.59 0.381876
3.6 0.365835
3.61 0.349739
3.62 0.333665
3.63 0.31767
3.64 0.301802
3.65 0.286105
3.66 0.270622
3.67 0.25541
3.68 0.240533
3.69 0.226025
3.7 0.211946
3.71 0.198364
3.72 0.185355
3.73 0.173003
3.74 0.161478
3.75 0.150837
3.76 0.141164
3.77 0.132562
3.78 0.125136
3.79 0.118986
3.8 0.114249
3.81 0.111108
3.82 0.109516
3.83 0.109532
3.84 0.111202
3.85 0.114556
3.86 0.119606
3.87 0.126482
3.88 0.135074
3.89 0.145275
3.9 0.15702
3.91 0.170228
3.92 0.184804
3.93 0.200657
3.94 0.217739
3.95 0.235794
3.96 0.254681
3.97 0.274251
3.98 0.294353
3.99 0.314832
4 0.33554
4.01 0.356295
4.02 0.37694
4.03 0.397329
4.04 0.41732
4.05 0.436778
4.06 0.455569
4.07 0.473478
4.08 0.490467
4.09 0.506433
4.1 0.52128
4.11 0.534922
4.12 0.54728
4.13 0.5582
4.14 0.56762
4.15 0.575571
4.16 0.582014
4.17 0.586923
4.18 0.590279
4.19 0.592074
4.2 0.592135
4.21 0.590643
4.22 0.587628
4.23 0.583117
4.24 0.577146
4.25 0.569758
4.26 0.560934
4.27 0.550708
4.28 0.539227
4.29 0.526545
4.3 0.512719
4.31 0.497801
4.32 0.481844
4.33 0.464802
4.34 0.44681
4.35 0.427926
4.36 0.408186
4.37 0.387626
4.38 0.366278
4.39 0.344142
4.4 0.321223
4.41 0.297609
4.42 0.273331
4.43 0.248424
4.44 0.222928
4.45 0.196889
4.46 0.170322
4.47 0.143329
4.48 0.115997
4.49 0.0884111
4.5 0.0606641
4.51 0.0328599
4.52 0.00511525
4.53 -0.0224226
4.54 -0.049634
4.55 -0.0763897
4.56 -0.102559
4.57 -0.128014
4.58 -0.152631
4.59 -0.176208
4.6 -0.198667
4.61 -0.219953
4.62 -0.239992
4.63 -0.258725
4.64 -0.276114
4.65 -0.292117
4.66 -0.306621
4.67 -0.319788
4.68 -0.331664
4.69 -0.342309
4.7 -0.3518
4.71 -0.360228
4.72 -0.367634
4.73 -0.374161
4.74 -0.379968
4.75 -0.385168
4.76 -0.389869
4.77 -0.394175
4.78 -0.398179
4.79 -0.401951
4.8 -0.405589
4.81 -0.409145
4.82 -0.412657
4.83 -0.416147
4.84 -0.419621
4.85 -0.423072
4.86 -0.426476
4.87 -0.429801
4.88 -0.43301
4.89 -0.436056
4.9 -0.438894
4.91 -0.441475
4.92 -0.443715
4.93 -0.445603
4.94 -0.447106
4.95 -0.4482
4.96 -0.448867
4.97 -0.449101
4.98 -0.448881
4.99 -0.448211
5 -0.44714
5.01 -0.445692
5.02 -0.443896
5.03 -0.441781
5.04 -0.439377
5.05 -0.436688
5.06 -0.433762
5.07 -0.430617
5.08 -0.427262
5.09 -0.423697
5.1 -0.419912
5.11 -0.415879
5.12 -0.411556
5.13 -0.406924
5.14 -0.401945
5.15 -0.396573
5.16 -0.390762
5.17 -0.38447
5.18 -0.377606
5.19 -0.370169
5.2 -0.362152
5.21 -0.353549
5.22 -0.344365
5.23 -0.334624
5.24 -0.324353
5.25 -0.313586
5.26 -0.302448
5.27 -0.291029
5.28 -0.279436
5.29 -0.267784
5.3 -0.256199
5.31 -0.244833
5.32 -0.233829
5.33 -0.223304
5.34 -0.213379
5.35 -0.204162
5.36 -0.195749
5.37 -0.188232
5.38 -0.18176
5.39 -0.176272
5.4 -0.171779
5.41 -0.16827
5.42 -0.165709
5.43 -0.164045
5.44 -0.163251
5.45 -0.16321
5.46 -0.163777
5.47 -0.164837
5.48 -0.166272
5.49 -0.167961
5.5 -0.169786
5.51 -0.171625
5.52 -0.173366
5.53 -0.174919
5.54 -0.176212
5.55 -0.177186
5.56 -0.177799
5.57 -0.178003
5.58 -0.177785
5.59 -0.177177
5.6 -0.176197
5.61 -0.174871
5.62 -0.173232
5.63 -0.171317
5.64 -0.169138
5.65 -0.166754
5.66 -0.164189
5.67 -0.161458
5.68 -0.158565
5.69 -0.155499
5.7 -0.152227
5.71 -0.148701
5.72 -0.144883
5.73 -0.140711
5.74 -0.136115
5.75 -0.131019
5.76 -0.125347
5.77 -0.118948
5.78 -0.111796
5.79 -0.103841
5.8 -0.0950358
5.81 -0.0853456
5.82 -0.0747556
5.83 -0.0632418
5.84 -0.0507925
5.85 -0.0375368
5.86 -0.0235498
5.87 -0.00892702
5.88 0.00621825
5.89 0.0217572
5.9 0.0375575
5.91 0.0534366
5.92 0.0692337
5.93 0.0847969
5.94 0.0999805
5.95 0.114649
5.96 0.128663
5.97 0.141855
5.98 0.154209
5.99 0.16567
6 0.176207
6.01 0.185814
6.02 0.194508
6.03 0.202266
6.04 0.209188
6.05 0.215389
6.06 0.220961
6.07 0.226003
6.08 0.23062
6.09 0.23491
6.1 0.238961
6.11 0.242887
6.12 0.246759
6.13 0.25063
6.14 0.254531
6.15 0.258474
6.16 0.262447
6.17 0.266409
6.18 0.270298
6.19 0.274037
6.2 0.277531
6.21 0.280674
6.22 0.28335
6.23 0.285357
6.24 0.286633
6.25 0.287065
6.26 0.286548
6.27 0.284993
6.28 0.282327
6.29 0.278431
6.3 0.273259
6.31 0.266883
6.32 0.259325
6.33 0.250627
6.34 0.240853
6.35 0.230089
6.36 0.218351
6.37 0.205851
6.38 0.192723
6.39 0.179096
6.4 0.165098
6.41 0.150856
6.42 0.136486
6.43 0.122108
6.44 0.107819
6.45 0.0936928
6.46 0.0797834
6.47 0.0661279
6.48 0.0527448
6.49 0.0396598
6.5 0.0268335
6.51 0.0142279
6.52 0.0018003
6.53 -0.0104993
6.54 -0.0227249
6.55 -0.0349326
6.56 -0.0471829
6.57 -0.0595209
6.58 -0.0719818
6.59 -0.0845889
6.6 -0.0973519
6.61 -0.110266
6.62 -0.12332
6.63 -0.136463
6.64 -0.149638
6.65 -0.162779
6.66 -0.175807
6.67 -0.188636
6.68 -0.201166
6.69 -0.213256
6.7 -0.224842
6.71 -0.235828
6.72 -0.246127
6.73 -0.255658
6.74 -0.264351
6.75 -0.272077
6.76 -0.278808
6.77 -0.284554
6.78 -0.289296
6.79 -0.293024
6.8 -0.295742
6.81 -0.297452
6.82 -0.298076
6.83 -0.297746
6.84 -0.296486
6.85 -0.294322
6.86 -0.291275
6.87 -0.287362
6.88 -0.282542
6.89 -0.276825
6.9 -0.270251
6.91 -0.262805
6.92 -0.254466
6.93 -0.245204
6.94 -0.234983
6.95 -0.223647
6.96 -0.21126
6.97 -0.197785
6.98 -0.183186
6.99 -0.16743
7 -0.150495
7.01 -0.132309
7.02 -0.112853
7.03 -0.0922251
7.04 -0.0704588
7.05 -0.0476034
7.06 -0.0237241
7.07 0.00109808
7.08 0.0268436
7.09 0.0533138
7.1 0.0803741
7.11 0.107893
7.12 0.135732
7.13 0.163749
7.14 0.191799
7.15 0.219716
7.16 0.247364
7.17 0.274615
7.18 0.301349
7.19 0.327456
7.2 0.352838
7.21 0.377325
7.22 0.400888
7.23 0.423488
7.24 0.445071
7.25 0.465596
7.26 0.485027
7.27 0.503301
7.28 0.520319
7.29 0.536157
7.3 0.55079
7.31 0.564193
7.32 0.576336
7.33 0.587185
7.34 0.596589
7.35 0.60456
7.36 0.611096
7.37 0.616144
7.38 0.619648
7.39 0.62155
7.4 0.621766
7.41 0.620094
7.42 0.616652
7.43 0.611401
7.44 0.604312
7.45 0.595365
7.46 0.584558
7.47 0.571774
7.48 0.557088
7.49 0.540639
7.5 0.522493
7.51 0.502736
7.52 0.481468
7.53 0.458801
7.54 0.43475
7.55 0.409616
7.56 0.383556
7.57 0.356735
7.58 0.329322
7.59 0.30149
7.6 0.273407
7.61 0.245269
7.62 0.217253
7.63 0.189514
7.64 0.1622
7.65 0.135448
7.66 0.109384
7.67 0.0842241
7.68 0.0599907
7.69 0.0367655
7.7 0.0146223
7.71 -0.00637734
7.72 -0.0261826
7.73 -0.0446928
7.74 -0.0618467
7.75 -0.0777108
7.76 -0.0922731
7.77 -0.105529
7.78 -0.11748
7.79 -0.128133
7.8 -0.137374
7.81 -0.145333
7.82 -0.152056
7.83 -0.157572
7.84 -0.161917
7.85 -0.16513
7.86 -0.16722
7.87 -0.168198
7.88 -0.16821
7.89 -0.167316
7.9 -0.165584
7.91 -0.163083
7.92 -0.159887
7.93 -0.156024
7.94 -0.151619
7.95 -0.146768
7.96 -0.141547
7.97 -0.136031
7.98 -0.130291
7.99 -0.124391
8 -0.118392
8.01 -0.11236
8.02 -0.10634
8.03 -0.100366
8.04 -0.0944688
8.05 -0.0886673
8.06 -0.0829834
8.07 -0.0774178
8.08 -0.0719643
8.09 -0.0666165
8.1 -0.0613647
8.11 -0.0561974
8.12 -0.0511041
8.13 -0.0460791
8.14 -0.0411087
8.15 -0.0361909
8.16 -0.0313291
8.17 -0.0265328
8.18 -0.0218181
8.19 -0.0172167
8.2 -0.012761
8.21 -0.0084818
8.22 -0.00441951
8.23 -0.000617582
8.24 0.00287917
8.25 0.00602499
8.26 0.00873017
8.27 0.0109992
8.28 0.0128027
8.29 0.0141196
8.3 0.0149387
8.31 0.0152599
8.32 0.0150689
8.33 0.0143931
8.34 0.013301
8.35 0.0118428
8.36 0.0100788
8.37 0.00807746
8.38 0.00591361
8.39 0.0036657
8.4 0.00143007
8.41 -0.000715187
8.42 -0.0026978
8.43 -0.00445347
8.44 -0.00592844
8.45 -0.00706602
8.46 -0.00782958
8.47 -0.00823769
8.48 -0.00830282
8.49 -0.00805501
8.5 -0.00754146
8.51 -0.00682554
8.52 -0.00598192
8.53 -0.00512279
8.54 -0.0043523
8.55 -0.0037781
8.56 -0.00351005
8.57 -0.0036567
8.58 -0.00434295
8.59 -0.00570552
8.6 -0.00777971
8.61 -0.0106298
8.62 -0.0143024
8.63 -0.0188247
8.64 -0.0242032
8.65 -0.0304935
8.66 -0.0376041
8.67 -0.0454491
8.68 -0.0539504
8.69 -0.0630142
8.7 -0.0725344
8.71 -0.0824003
8.72 -0.0924902
8.73 -0.102651
8.74 -0.112763
8.75 -0.122712
8.76 -0.132394
8.77 -0.14172
8.78 -0.150574
8.79 -0.158909
8.8 -0.166708
8.81 -0.173954
8.82 -0.180651
8.83 -0.186819
8.84 -0.192488
8.85 -0.197676
8.86 -0.202496
8.87 -0.207021
8.88 -0.211326
8.89 -0.215485
8.9 -0.219572
8.91 -0.223657
8.92 -0.227804
8.93 -0.232054
8.94 -0.236437
8.95 -0.240964
8.96 -0.245632
8.97 -0.250421
8.98 -0.255301
8.99 -0.260205
9 -0.265067
9.01 -0.269814
9.02 -0.274364
9.03 -0.278634
9.04 -0.282514
9.05 -0.285906
9.06 -0.288761
9.07 -0.291016
9.08 -0.292619
9.09 -0.293534
9.1 -0.293738
9.11 -0.293153
9.12 -0.291864
9.13 -0.289914
9.14 -0.28735
9.15 -0.284237
9.16 -0.28065
9.17 -0.276658
9.18 -0.272359
9.19 -0.267874
9.2 -0.263296
9.21 -0.258717
9.22 -0.25422
9.23 -0.24988
9.24 -0.245788
9.25 -0.241982
9.26 -0.23849
9.27 -0.23533
9.28 -0.232507
9.29 -0.230009
9.3 -0.227822
9.31 -0.225918
9.32 -0.224225
9.33 -0.222689
9.34 -0.221252
9.35 -0.219854
9.36 -0.218436
9.37 -0.216933
9.38 -0.215292
9.39 -0.213476
9.4 -0.211452
9.41 -0.209199
9.42 -0.206705
9.43 -0.203966
9.44 -0.200973
9.45 -0.197771
9.46 -0.194386
9.47 -0.19085
9.48 -0.187197
9.49 -0.183464
9.5 -0.179684
9.51 -0.175892
9.52 -0.172113
9.53 -0.168361
9.54 -0.164642
9.55 -0.16095
9.56 -0.157267
9.57 -0.153559
9.58 -0.14978
9.59 -0.145877
9.6 -0.141788
9.61 -0.137442
9.62 -0.132762
9.63 -0.12764
9.64 -0.121985
9.65 -0.115745
9.66 -0.108847
9.67 -0.101225
9.68 -0.0928232
9.69 -0.0835982
9.7 -0.0734169
9.71 -0.0623603
9.72 -0.0504311
9.73 -0.0376453
9.74 -0.0240338
9.75 -0.00964109
9.76 0.00550857
9.77 0.0213437
9.78 0.0377366
9.79 0.0545995
9.8 0.0718397
9.81 0.0893619
9.82 0.10707
9.83 0.12487
9.84 0.142652
9.85 0.160333
9.86 0.177833
9.87 0.195083
9.88 0.212021
9.89 0.228576
9.9 0.244683
9.91 0.260337
9.92 0.275509
9.93 0.290178
9.94 0.304329
9.95 0.317948
9.96 0.330977
9.97 0.343445
9.98 0.355357
9.99 0.366706
10 0.377485
10.01 0.387682
10.02 0.397268
10.03 0.406191
10.04 0.414487
10.05 0.422139
10.06 0.429128
10.07 0.435439
10.08 0.441056
10.09 0.445907
10.1 0.450016
10.11 0.453406
10.12 0.456081
10.13 0.458051
10.14 0.459334
10.15 0.459944
10.16 0.45987
10.17 0.45922
10.18 0.458044
10.19 0.456398
10.2 0.454346
10.21 0.451952
10.22 0.44927
10.23 0.446388
10.24 0.443384
10.25 0.440326
10.26 0.437275
10.27 0.434286
10.28 0.431409
10.29 0.428705
10.3 0.426187
10.31 0.423876
10.32 0.421778
10.33 0.419891
10.34 0.418202
10.35 0.416697
10.36 0.415336
10.37 0.414065
10.38 0.412836
10.39 0.41159
10.4 0.410269
10.41 0.408807
10.42 0.407107
10.43 0.405117
10.44 0.402774
10.45 0.400012
10.46 0.396771
10.47 0.392993
10.48 0.388595
10.49 0.383511
10.5 0.377742
10.51 0.371255
10.52 0.364021
10.53 0.35602
10.54 0.347239
10.55 0.337588
10.56 0.327136
10.57 0.315902
10.58 0.303899
10.59 0.291146
10.6 0.277668
10.61 0.263471
10.62 0.248572
10.63 0.233067
10.64 0.217006
10.65 0.200443
10.66 0.183436
10.67 0.166049
10.68 0.148325
10.69 0.130363
10.7 0.112245
10.71 0.0940434
10.72 0.0758324
10.73 0.0576852
10.74 0.0396785
10.75 0.0219017
10.76 0.00440352
10.77 -0.0127601
10.78 -0.0295404
10.79 -0.0458967
10.8 -0.0617976
10.81 -0.0771827
10.82 -0.0920613
10.83 -0.106454
10.84 -0.120373
10.85 -0.133843
10.86 -0.146897
10.87 -0.159569
10.88 -0.171889
10.89 -0.183949
10.9 -0.195808
10.91 -0.207527
10.92 -0.219166
10.93 -0.230784
10.94 -0.242437
10.95 -0.254178
10.96 -0.266039
10.97 -0.278045
10.98 -0.290208
10.99 -0.302526
11 -0.314988
11.01 -0.327572
11.02 -0.340218
11.03 -0.352869
11.04 -0.365455
11.05 -0.377898
11.06 -0.390112
11.07 -0.401978
11.08 -0.413385
11.09 -0.424254
11.1 -0.434491
11.11 -0.444004
11.12 -0.452709
11.13 -0.460531
11.14 -0.467295
11.15 -0.473045
11.16 -0.477752
11.17 -0.481398
11.18 -0.483976
11.19 -0.485495
11.2 -0.485932
11.21 -0.485306
11.22 -0.483738
11.23 -0.481286
11.24 -0.478015
11.25 -0.473995
11.26 -0.469295
11.27 -0.463934
11.28 -0.458036
11.29 -0.451672
11.3 -0.444898
11.31 -0.437757
11.32 -0.430286
11.33 -0.4225
11.34 -0.414399
11.35 -0.406008
11.36 -0.397317
11.37 -0.388307
11.38 -0.378951
11.39 -0.369217
11.4 -0.359028
11.41 -0.348366
11.42 -0.337206
11.43 -0.325513
11.44 -0.313261
11.45 -0.300428
11.46 -0.286989
11.47 -0.272905
11.48 -0.258246
11.49 -0.24304
11.5 -0.227329
11.51 -0.211167
11.52 -0.194622
11.53 -0.177754
11.54 -0.160676
11.55 -0.143498
11.56 -0.126324
11.57 -0.10926
11.58 -0.0924145
11.59 -0.0758989
11.6 -0.0598662
11.61 -0.0443747
11.62 -0.0295094
11.63 -0.0153445
11.64 -0.0019425
11.65 0.0106477
11.66 0.0223336
11.67 0.0331069
11.68 0.0430085
11.69 0.0520498
11.7 0.0602552
11.71 0.0676605
11.72 0.0743104
11.73 0.0801877
11.74 0.0854406
11.75 0.0901359
11.76 0.0943423
11.77 0.0981284
11.78 0.101561
11.79 0.104691
11.8 0.107583
11.81 0.110304
11.82 0.112896
11.83 0.11539
11.84 0.117813
11.85 0.120179
11.86 0.122488
11.87 0.12474
11.88 0.126923
11.89 0.129018
11.9 0.130998
11.91 0.132833
11.92 0.134477
11.93 0.135881
11.94 0.137019
11.95 0.13785
11.96 0.138334
11.97 0.138433
11.98 0.138111
11.99 0.137284
12 0.135954
12.01 0.134102
12.02 0.131702
12.03 0.128732
12.04 0.125173
12.05 0.120987
12.06 0.116125
12.07 0.110626
12.08 0.104481
12.09 0.0976802
12.1 0.090216
12.11 0.0820829
12.12 0.0732191
12.13 0.0636596
12.14 0.0534264
12.15 0.0425239
12.16 0.0309597
