# xPDFsuite Configuration #
[PDF]
wavelength = 0.1
dataformat = QA
inputfile = BiMsol6_insitu_700 C-00463.xy
backgroundfile = Quartz2mm-dist500-00000.xy
mode = xray
bgscale = 0.0042
composition = Bi2Fe4O9
outputtype = gr
qmaxinst = 24.998449118
qmin = 0.1
qmax = 21.4986662415
rmax = 80.0
rmin = 0.0
rstep = 0.01
rpoly = 0.9

[Misc]
inputdir = C:/Data/Seafile/CPH/Beamtime/Desy Oct 20/In situ data/Processed/BiMsol6/PDF
savedir = C:/Data/Seafile/CPH/Beamtime/Desy Oct 20/In situ data/PDF/BiMsol6
backgroundfilefull = C:/Data/Seafile/CPH/Beamtime/Desy Oct 20/In situ data/Processed/Standard_Empty_Cap/Quartz2mm-dist500-00000.xy

#### start data
#S 1
#L r($\AA$)  G($\AA^{-2}$)
0 0
0.01 0.00586058
0.02 0.0113852
0.03 0.0162866
0.04 0.0203071
0.05 0.0232309
0.06 0.0248938
0.07 0.0251171
0.08 0.0238503
0.09 0.0212284
0.1 0.0173631
0.11 0.0124268
0.12 0.00664431
0.13 0.000283492
0.14 -0.00635319
0.15 -0.0128906
0.16 -0.0190117
0.17 -0.0244198
0.18 -0.0288502
0.19 -0.0320833
0.2 -0.0338941
0.21 -0.0341326
0.22 -0.0328974
0.23 -0.0302576
0.24 -0.0263555
0.25 -0.0214021
0.26 -0.0156687
0.27 -0.00946705
0.28 -0.00323277
0.29 0.00264617
0.3 0.00779369
0.31 0.0118542
0.32 0.0145101
0.33 0.015441
0.34 0.0143362
0.35 0.0112583
0.36 0.00621713
0.37 -0.000678499
0.38 -0.00921938
0.39 -0.0190991
0.4 -0.0299592
0.41 -0.0412039
0.42 -0.0522503
0.43 -0.0625053
0.44 -0.0713574
0.45 -0.0781994
0.46 -0.0823899
0.47 -0.0831007
0.48 -0.0801663
0.49 -0.0732598
0.5 -0.0621723
0.51 -0.0468264
0.52 -0.0272853
0.53 -0.00349446
0.54 0.0240057
0.55 0.0545097
0.56 0.0873625
0.57 0.121801
0.58 0.156976
0.59 0.191961
0.6 0.225576
0.61 0.256905
0.62 0.285025
0.63 0.309071
0.64 0.328266
0.65 0.341948
0.66 0.34919
0.67 0.349621
0.68 0.34342
0.69 0.3306
0.7 0.311351
0.71 0.286031
0.72 0.255163
0.73 0.218947
0.74 0.178818
0.75 0.135708
0.76 0.090598
0.77 0.04451
0.78 -0.00153042
0.79 -0.0464176
0.8 -0.0890405
0.81 -0.128641
0.82 -0.164492
0.83 -0.195999
0.84 -0.222712
0.85 -0.244337
0.86 -0.260201
0.87 -0.270833
0.88 -0.276523
0.89 -0.277627
0.9 -0.274624
0.91 -0.268093
0.92 -0.258609
0.93 -0.246906
0.94 -0.23394
0.95 -0.220446
0.96 -0.207128
0.97 -0.194638
0.98 -0.183553
0.99 -0.174571
1 -0.167974
1.01 -0.163954
1.02 -0.162634
1.03 -0.164023
1.04 -0.168021
1.05 -0.174487
1.06 -0.183213
1.07 -0.193613
1.08 -0.205265
1.09 -0.217716
1.1 -0.230505
1.11 -0.243182
1.12 -0.255248
1.13 -0.266307
1.14 -0.276079
1.15 -0.28433
1.16 -0.290906
1.17 -0.295733
1.18 -0.298786
1.19 -0.30003
1.2 -0.299804
1.21 -0.298333
1.22 -0.295883
1.23 -0.292748
1.24 -0.289239
1.25 -0.285681
1.26 -0.282407
1.27 -0.279672
1.28 -0.277686
1.29 -0.276604
1.3 -0.276524
1.31 -0.277486
1.32 -0.279554
1.33 -0.282505
1.34 -0.286176
1.35 -0.290359
1.36 -0.29481
1.37 -0.299262
1.38 -0.303402
1.39 -0.306917
1.4 -0.309572
1.41 -0.311149
1.42 -0.311473
1.43 -0.310422
1.44 -0.307931
1.45 -0.303848
1.46 -0.298411
1.47 -0.291771
1.48 -0.284132
1.49 -0.275746
1.5 -0.266904
1.51 -0.257936
1.52 -0.249231
1.53 -0.241129
1.54 -0.233945
1.55 -0.227964
1.56 -0.223427
1.57 -0.220521
1.58 -0.219554
1.59 -0.220423
1.6 -0.22306
1.61 -0.227351
1.62 -0.233113
1.63 -0.240098
1.64 -0.248019
1.65 -0.256496
1.66 -0.26507
1.67 -0.273333
1.68 -0.280882
1.69 -0.287326
1.7 -0.292304
1.71 -0.295316
1.72 -0.296193
1.73 -0.294807
1.74 -0.291057
1.75 -0.284921
1.76 -0.276455
1.77 -0.265741
1.78 -0.252895
1.79 -0.2384
1.8 -0.222599
1.81 -0.205869
1.82 -0.188615
1.83 -0.171253
1.84 -0.154249
1.85 -0.138029
1.86 -0.122926
1.87 -0.109238
1.88 -0.0972028
1.89 -0.0869922
1.9 -0.0787354
1.91 -0.0726234
1.92 -0.0683906
1.93 -0.0659018
1.94 -0.0649607
1.95 -0.0653189
1.96 -0.0666875
1.97 -0.0687725
1.98 -0.0711804
1.99 -0.0735501
2 -0.0755702
2.01 -0.0769603
2.02 -0.0774824
2.03 -0.0769469
2.04 -0.0750924
2.05 -0.0720024
2.06 -0.067706
2.07 -0.0623005
2.08 -0.0559476
2.09 -0.0488676
2.1 -0.0413241
2.11 -0.0336805
2.12 -0.0263057
2.13 -0.0195549
2.14 -0.0137805
2.15 -0.00931898
2.16 -0.00647743
2.17 -0.00575251
2.18 -0.007176
2.19 -0.0108699
2.2 -0.016903
2.21 -0.0252732
2.22 -0.0359075
2.23 -0.0487501
2.24 -0.0636046
2.25 -0.0800421
2.26 -0.0977379
2.27 -0.116333
2.28 -0.135444
2.29 -0.15468
2.3 -0.173588
2.31 -0.191779
2.32 -0.208923
2.33 -0.224726
2.34 -0.238945
2.35 -0.251391
2.36 -0.261874
2.37 -0.270237
2.38 -0.276659
2.39 -0.281222
2.4 -0.284064
2.41 -0.285369
2.42 -0.285367
2.43 -0.284249
2.44 -0.282393
2.45 -0.280118
2.46 -0.277713
2.47 -0.275449
2.48 -0.273576
2.49 -0.272332
2.5 -0.271968
2.51 -0.27255
2.52 -0.274153
2.53 -0.276807
2.54 -0.280494
2.55 -0.285152
2.56 -0.290736
2.57 -0.297055
2.58 -0.303906
2.59 -0.311102
2.6 -0.318447
2.61 -0.325743
2.62 -0.332793
2.63 -0.339359
2.64 -0.345319
2.65 -0.350545
2.66 -0.354941
2.67 -0.35844
2.68 -0.361009
2.69 -0.362588
2.7 -0.363225
2.71 -0.363031
2.72 -0.362088
2.73 -0.360495
2.74 -0.358362
2.75 -0.355804
2.76 -0.352912
2.77 -0.34984
2.78 -0.346683
2.79 -0.343521
2.8 -0.340415
2.81 -0.337405
2.82 -0.33452
2.83 -0.331756
2.84 -0.32908
2.85 -0.32645
2.86 -0.323812
2.87 -0.321099
2.88 -0.318239
2.89 -0.315126
2.9 -0.311704
2.91 -0.307911
2.92 -0.303692
2.93 -0.299004
2.94 -0.29382
2.95 -0.288103
2.96 -0.281842
2.97 -0.275093
2.98 -0.267887
2.99 -0.260263
3 -0.252266
3.01 -0.243944
3.02 -0.235319
3.03 -0.226457
3.04 -0.217392
3.05 -0.20814
3.06 -0.198702
3.07 -0.18906
3.08 -0.17917
3.09 -0.168954
3.1 -0.158358
3.11 -0.147295
3.12 -0.135663
3.13 -0.123355
3.14 -0.110261
3.15 -0.0961864
3.16 -0.0810661
3.17 -0.0648442
3.18 -0.0474546
3.19 -0.0288543
3.2 -0.00902736
3.21 0.012036
3.22 0.0343663
3.23 0.0577577
3.24 0.0820873
3.25 0.107201
3.26 0.132914
3.27 0.159019
3.28 0.185279
3.29 0.211408
3.3 0.237145
3.31 0.262234
3.32 0.286422
3.33 0.309472
3.34 0.331144
3.35 0.351068
3.36 0.369232
3.37 0.385506
3.38 0.399797
3.39 0.412045
3.4 0.42223
3.41 0.430241
3.42 0.436156
3.43 0.440172
3.44 0.442404
3.45 0.442984
3.46 0.442063
3.47 0.439803
3.48 0.436255
3.49 0.431735
3.5 0.426407
3.51 0.420423
3.52 0.413924
3.53 0.407033
3.54 0.399849
3.55 0.39247
3.56 0.384982
3.57 0.377437
3.58 0.369873
3.59 0.362316
3.6 0.354782
3.61 0.347288
3.62 0.339841
3.63 0.33245
3.64 0.325131
3.65 0.317905
3.66 0.310803
3.67 0.303877
3.68 0.297194
3.69 0.290807
3.7 0.284792
3.71 0.279233
3.72 0.274219
3.73 0.269842
3.74 0.26627
3.75 0.263552
3.76 0.261749
3.77 0.260928
3.78 0.261145
3.79 0.262437
3.8 0.264855
3.81 0.268458
3.82 0.273123
3.83 0.278802
3.84 0.285426
3.85 0.292911
3.86 0.301154
3.87 0.310083
3.88 0.319527
3.89 0.329332
3.9 0.339366
3.91 0.349499
3.92 0.359606
3.93 0.369566
3.94 0.379244
3.95 0.388568
3.96 0.397466
3.97 0.405883
3.98 0.413777
3.99 0.421122
4 0.427866
4.01 0.434021
4.02 0.439624
4.03 0.444688
4.04 0.449229
4.05 0.453263
4.06 0.456797
4.07 0.459787
4.08 0.462282
4.09 0.464265
4.1 0.46571
4.11 0.466577
4.12 0.466818
4.13 0.466328
4.14 0.46503
4.15 0.462889
4.16 0.459831
4.17 0.455779
4.18 0.450663
4.19 0.444419
4.2 0.436858
4.21 0.428069
4.22 0.418039
4.23 0.406768
4.24 0.394275
4.25 0.380601
4.26 0.365753
4.27 0.349802
4.28 0.33292
4.29 0.315219
4.3 0.296817
4.31 0.27784
4.32 0.258417
4.33 0.238654
4.34 0.218711
4.35 0.1987
4.36 0.178718
4.37 0.158843
4.38 0.139138
4.39 0.119654
4.4 0.100424
4.41 0.0814311
4.42 0.0626571
4.43 0.0440696
4.44 0.0256239
4.45 0.00726683
4.46 -0.0110627
4.47 -0.0294325
4.48 -0.0478974
4.49 -0.0665033
4.5 -0.0852842
4.51 -0.104259
4.52 -0.123435
4.53 -0.142799
4.54 -0.16229
4.55 -0.181843
4.56 -0.201376
4.57 -0.220786
4.58 -0.239957
4.59 -0.258722
4.6 -0.276942
4.61 -0.294491
4.62 -0.311234
4.63 -0.32704
4.64 -0.341793
4.65 -0.355371
4.66 -0.367577
4.67 -0.378478
4.68 -0.388045
4.69 -0.396277
4.7 -0.4032
4.71 -0.408866
4.72 -0.413276
4.73 -0.416571
4.74 -0.418932
4.75 -0.420493
4.76 -0.421403
4.77 -0.421813
4.78 -0.421875
4.79 -0.421732
4.8 -0.421558
4.81 -0.421473
4.82 -0.421584
4.83 -0.421976
4.84 -0.422712
4.85 -0.423858
4.86 -0.42543
4.87 -0.427394
4.88 -0.42972
4.89 -0.432359
4.9 -0.435245
4.91 -0.438303
4.92 -0.441446
4.93 -0.444567
4.94 -0.447574
4.95 -0.450382
4.96 -0.452909
4.97 -0.455085
4.98 -0.456828
4.99 -0.458075
5 -0.458826
5.01 -0.459064
5.02 -0.458785
5.03 -0.457996
5.04 -0.456713
5.05 -0.454915
5.06 -0.452671
5.07 -0.45002
5.08 -0.446986
5.09 -0.443594
5.1 -0.439859
5.11 -0.435775
5.12 -0.431322
5.13 -0.426512
5.14 -0.421318
5.15 -0.415702
5.16 -0.409619
5.17 -0.403017
5.18 -0.395781
5.19 -0.387882
5.2 -0.37928
5.21 -0.369922
5.22 -0.359767
5.23 -0.348782
5.24 -0.336929
5.25 -0.324149
5.26 -0.310541
5.27 -0.296144
5.28 -0.281013
5.29 -0.265223
5.3 -0.248865
5.31 -0.232015
5.32 -0.214825
5.33 -0.197438
5.34 -0.179985
5.35 -0.162596
5.36 -0.145396
5.37 -0.12851
5.38 -0.112098
5.39 -0.0962153
5.4 -0.0809357
5.41 -0.0663153
5.42 -0.0523911
5.43 -0.0391804
5.44 -0.0267283
5.45 -0.015
5.46 -0.00392209
5.47 0.00655441
5.48 0.0164869
5.49 0.0259378
5.5 0.0349699
5.51 0.0436111
5.52 0.0519607
5.53 0.0600618
5.54 0.0679449
5.55 0.0756258
5.56 0.0831048
5.57 0.0903516
5.58 0.0973252
5.59 0.103988
5.6 0.110278
5.61 0.116121
5.62 0.121439
5.63 0.126149
5.64 0.130088
5.65 0.133244
5.66 0.13556
5.67 0.136987
5.68 0.137495
5.69 0.137071
5.7 0.135687
5.71 0.133359
5.72 0.130215
5.73 0.126338
5.74 0.121834
5.75 0.116821
5.76 0.111435
5.77 0.105813
5.78 0.100138
5.79 0.0945645
5.8 0.0892345
5.81 0.0842808
5.82 0.0798204
5.83 0.075974
5.84 0.0728587
5.85 0.0704672
5.86 0.0688169
5.87 0.0678985
5.88 0.0676764
5.89 0.0680904
5.9 0.0690975
5.91 0.0705517
5.92 0.0723188
5.93 0.0742734
5.94 0.0762876
5.95 0.0782361
5.96 0.0799947
5.97 0.0814263
5.98 0.0824685
5.99 0.0830615
6 0.0831705
6.01 0.0827869
6.02 0.0819298
6.03 0.0806185
6.04 0.0789522
6.05 0.0770489
6.06 0.0750271
6.07 0.0730194
6.08 0.0711673
6.09 0.0696206
6.1 0.0685807
6.11 0.068144
6.12 0.0684263
6.13 0.0695233
6.14 0.0715064
6.15 0.0744187
6.16 0.078332
6.17 0.0832088
6.18 0.0889387
6.19 0.0954303
6.2 0.102563
6.21 0.110193
6.22 0.118151
6.23 0.12625
6.24 0.13426
6.25 0.14198
6.26 0.149217
6.27 0.155784
6.28 0.161509
6.29 0.166183
6.3 0.16965
6.31 0.171888
6.32 0.172839
6.33 0.172479
6.34 0.170818
6.35 0.167897
6.36 0.163675
6.37 0.158379
6.38 0.152154
6.39 0.145147
6.4 0.137522
6.41 0.129446
6.42 0.121086
6.43 0.112631
6.44 0.104253
6.45 0.0960941
6.46 0.088277
6.47 0.0809026
6.48 0.0740481
6.49 0.0678227
6.5 0.0622106
6.51 0.0571948
6.52 0.0527486
6.53 0.0488257
6.54 0.045363
6.55 0.0422933
6.56 0.0395362
6.57 0.0369696
6.58 0.0345048
6.59 0.0320576
6.6 0.029553
6.61 0.0269275
6.62 0.0241155
6.63 0.0210921
6.64 0.0178537
6.65 0.0144088
6.66 0.0107831
6.67 0.00701866
6.68 0.00317151
6.69 -0.000681718
6.7 -0.0044556
6.71 -0.00806721
6.72 -0.0114326
6.73 -0.0144701
6.74 -0.0171036
6.75 -0.0192273
6.76 -0.0207921
6.77 -0.0217802
6.78 -0.0221674
6.79 -0.0219451
6.8 -0.0211203
6.81 -0.0197107
6.82 -0.0177037
6.83 -0.0152129
6.84 -0.0122987
6.85 -0.00902814
6.86 -0.00547191
6.87 -0.00170165
6.88 0.00221774
6.89 0.00621176
6.9 0.0102179
6.91 0.0141909
6.92 0.018097
6.93 0.0219148
6.94 0.025636
6.95 0.0292561
6.96 0.032806
6.97 0.0363162
6.98 0.0398261
6.99 0.0433816
7 0.0470335
7.01 0.0508445
7.02 0.0548776
7.03 0.0591698
7.04 0.0637627
7.05 0.0686898
7.06 0.0739747
7.07 0.0796299
7.08 0.0856932
7.09 0.092116
7.1 0.0988659
7.11 0.105904
7.12 0.113182
7.13 0.120642
7.14 0.128222
7.15 0.135841
7.16 0.143421
7.17 0.150887
7.18 0.158168
7.19 0.165198
7.2 0.171914
7.21 0.178222
7.22 0.184098
7.23 0.189513
7.24 0.194441
7.25 0.198863
7.26 0.202767
7.27 0.206136
7.28 0.20894
7.29 0.211233
7.3 0.213023
7.31 0.21432
7.32 0.215133
7.33 0.215467
7.34 0.215286
7.35 0.214606
7.36 0.213435
7.37 0.211756
7.38 0.209548
7.39 0.20678
7.4 0.20341
7.41 0.199343
7.42 0.194599
7.43 0.189137
7.44 0.182918
7.45 0.175906
7.46 0.168071
7.47 0.159327
7.48 0.14968
7.49 0.139165
7.5 0.127794
7.51 0.115589
7.52 0.102583
7.53 0.0888222
7.54 0.0743027
7.55 0.0591833
7.56 0.0435515
7.57 0.0275041
7.58 0.011146
7.59 -0.00541158
7.6 -0.0220509
7.61 -0.0386356
7.62 -0.0550442
7.63 -0.0711612
7.64 -0.0868755
7.65 -0.102082
7.66 -0.116681
7.67 -0.130498
7.68 -0.143521
7.69 -0.155686
7.7 -0.166939
7.71 -0.177235
7.72 -0.186541
7.73 -0.194786
7.74 -0.201935
7.75 -0.208061
7.76 -0.213174
7.77 -0.217291
7.78 -0.220439
7.79 -0.222651
7.8 -0.22388
7.81 -0.224252
7.82 -0.22383
7.83 -0.222669
7.84 -0.220826
7.85 -0.218359
7.86 -0.215312
7.87 -0.211736
7.88 -0.207737
7.89 -0.203383
7.9 -0.198736
7.91 -0.19386
7.92 -0.188819
7.93 -0.183669
7.94 -0.178482
7.95 -0.173315
7.96 -0.168217
7.97 -0.163236
7.98 -0.158411
7.99 -0.153785
8 -0.149403
8.01 -0.145268
8.02 -0.141396
8.03 -0.137793
8.04 -0.134462
8.05 -0.131397
8.06 -0.12861
8.07 -0.12607
8.08 -0.123751
8.09 -0.121629
8.1 -0.119681
8.11 -0.117881
8.12 -0.116209
8.13 -0.114648
8.14 -0.113165
8.15 -0.111746
8.16 -0.110378
8.17 -0.109053
8.18 -0.107768
8.19 -0.106526
8.2 -0.105332
8.21 -0.104191
8.22 -0.103114
8.23 -0.102112
8.24 -0.101194
8.25 -0.100369
8.26 -0.0996525
8.27 -0.0990333
8.28 -0.098504
8.29 -0.0980504
8.3 -0.0976502
8.31 -0.0972729
8.32 -0.0968757
8.33 -0.0964022
8.34 -0.0957965
8.35 -0.0949949
8.36 -0.0939288
8.37 -0.092526
8.38 -0.0907131
8.39 -0.0883574
8.4 -0.0854326
8.41 -0.0818809
8.42 -0.0776495
8.43 -0.0726964
8.44 -0.0669926
8.45 -0.0604886
8.46 -0.0531682
8.47 -0.0451087
8.48 -0.0363495
8.49 -0.0269462
8.5 -0.0169703
8.51 -0.00650724
8.52 0.0043727
8.53 0.0155174
8.54 0.0268036
8.55 0.0381118
8.56 0.0493226
8.57 0.0603199
8.58 0.0709792
8.59 0.0811672
8.6 0.0908281
8.61 0.0998928
8.62 0.108309
8.63 0.116043
8.64 0.123078
8.65 0.129359
8.66 0.134951
8.67 0.139917
8.68 0.144311
8.69 0.148199
8.7 0.151655
8.71 0.154754
8.72 0.157566
8.73 0.160202
8.74 0.162732
8.75 0.165219
8.76 0.167713
8.77 0.170248
8.78 0.172848
8.79 0.175509
8.8 0.178206
8.81 0.180897
8.82 0.183527
8.83 0.186021
8.84 0.188291
8.85 0.190198
8.86 0.19166
8.87 0.19257
8.88 0.19282
8.89 0.192307
8.9 0.190935
8.91 0.188554
8.92 0.185097
8.93 0.180565
8.94 0.174927
8.95 0.168173
8.96 0.160311
8.97 0.15137
8.98 0.141289
8.99 0.130263
9 0.118378
9.01 0.105732
9.02 0.0924333
9.03 0.0785963
9.04 0.0643222
9.05 0.0497426
9.06 0.034995
9.07 0.0201843
9.08 0.00540608
9.09 -0.00925585
9.1 -0.0237304
9.11 -0.0379295
9.12 -0.0518319
9.13 -0.0654146
9.14 -0.0786644
9.15 -0.0915793
9.16 -0.104166
9.17 -0.116427
9.18 -0.128373
9.19 -0.140048
9.2 -0.151471
9.21 -0.162657
9.22 -0.173613
9.23 -0.184339
9.24 -0.194803
9.25 -0.204997
9.26 -0.214891
9.27 -0.224442
9.28 -0.233592
9.29 -0.242277
9.3 -0.250406
9.31 -0.257858
9.32 -0.264597
9.33 -0.270545
9.34 -0.275623
9.35 -0.27976
9.36 -0.282892
9.37 -0.284872
9.38 -0.285713
9.39 -0.285425
9.4 -0.283999
9.41 -0.281445
9.42 -0.277784
9.43 -0.273032
9.44 -0.267171
9.45 -0.260369
9.46 -0.252701
9.47 -0.244248
9.48 -0.235096
9.49 -0.225331
9.5 -0.215008
9.51 -0.204234
9.52 -0.193106
9.53 -0.18169
9.54 -0.17004
9.55 -0.158201
9.56 -0.146202
9.57 -0.134053
9.58 -0.121774
9.59 -0.10936
9.6 -0.0967973
9.61 -0.0840647
9.62 -0.071136
9.63 -0.0579662
9.64 -0.0445236
9.65 -0.0307944
9.66 -0.0167572
9.67 -0.00239773
9.68 0.0122895
9.69 0.0272999
9.7 0.04265
9.71 0.0582721
9.72 0.0741234
9.73 0.09015
9.74 0.106288
9.75 0.122465
9.76 0.138594
9.77 0.154576
9.78 0.170325
9.79 0.185753
9.8 0.200776
9.81 0.215312
9.82 0.229287
9.83 0.242562
9.84 0.255137
9.85 0.266977
9.86 0.278051
9.87 0.288341
9.88 0.29784
9.89 0.30652
9.9 0.314369
9.91 0.321471
9.92 0.327855
9.93 0.333555
9.94 0.338605
9.95 0.343043
9.96 0.346851
9.97 0.350105
9.98 0.352842
9.99 0.355082
10 0.356838
10.01 0.358117
10.02 0.358902
10.03 0.359156
10.04 0.35891
10.05 0.358145
10.06 0.356843
10.07 0.354983
10.08 0.352548
10.09 0.349473
10.1 0.345776
10.11 0.341476
10.12 0.336581
10.13 0.331107
10.14 0.325082
10.15 0.318535
10.16 0.311483
10.17 0.304038
10.18 0.296268
10.19 0.288251
10.2 0.280069
10.21 0.271808
10.22 0.263562
10.23 0.255431
10.24 0.247495
10.25 0.23983
10.26 0.232506
10.27 0.225578
10.28 0.219098
10.29 0.21315
10.3 0.2077
10.31 0.202749
10.32 0.198283
10.33 0.194277
10.34 0.19069
10.35 0.187492
10.36 0.184608
10.37 0.181948
10.38 0.179437
10.39 0.176997
10.4 0.174547
10.41 0.172011
10.42 0.169287
10.43 0.166317
10.44 0.163043
10.45 0.159411
10.46 0.155378
10.47 0.15091
10.48 0.145959
10.49 0.140502
10.5 0.134565
10.51 0.128152
10.52 0.121274
10.53 0.113948
10.54 0.106192
10.55 0.0979917
10.56 0.089408
10.57 0.080471
10.58 0.0712033
10.59 0.0616251
10.6 0.0517539
10.61 0.0415938
10.62 0.0311457
10.63 0.0204383
10.64 0.00947573
10.65 -0.00174007
10.66 -0.0132083
10.67 -0.0249285
10.68 -0.0369223
10.69 -0.0491701
10.7 -0.0616592
10.71 -0.0743798
10.72 -0.0873176
10.73 -0.100454
10.74 -0.113767
10.75 -0.127234
10.76 -0.140802
10.77 -0.154432
10.78 -0.16808
10.79 -0.181698
10.8 -0.195239
10.81 -0.208639
10.82 -0.221851
10.83 -0.234832
10.84 -0.247543
10.85 -0.259946
10.86 -0.272011
10.87 -0.283706
10.88 -0.29498
10.89 -0.305863
10.9 -0.316352
10.91 -0.326455
10.92 -0.336182
10.93 -0.34555
10.94 -0.35456
10.95 -0.363247
10.96 -0.371652
10.97 -0.379801
10.98 -0.387718
10.99 -0.395422
11 -0.40293
11.01 -0.41023
11.02 -0.417348
11.03 -0.424276
11.04 -0.431002
11.05 -0.437504
11.06 -0.443755
11.07 -0.449699
11.08 -0.455288
11.09 -0.460493
11.1 -0.465263
11.11 -0.469546
11.12 -0.473292
11.13 -0.476448
11.14 -0.478892
11.15 -0.480645
11.16 -0.481674
11.17 -0.481949
11.18 -0.48145
11.19 -0.480163
11.2 -0.478046
11.21 -0.475085
11.22 -0.471349
11.23 -0.466856
11.24 -0.461633
11.25 -0.455711
11.26 -0.449123
11.27 -0.441846
11.28 -0.433973
11.29 -0.425553
11.3 -0.416618
11.31 -0.407199
11.32 -0.397324
11.33 -0.387001
11.34 -0.376228
11.35 -0.365052
11.36 -0.353477
11.37 -0.341506
11.38 -0.329134
11.39 -0.316356
11.4 -0.303126
11.41 -0.28946
11.42 -0.275362
11.43 -0.260826
11.44 -0.245849
11.45 -0.230435
11.46 -0.21458
11.47 -0.198272
11.48 -0.181573
11.49 -0.164513
11.5 -0.147128
11.51 -0.129461
11.52 -0.11156
11.53 -0.0934704
11.54 -0.0752658
11.55 -0.0570145
11.56 -0.0387795
11.57 -0.0206235
11.58 -0.00260766
11.59 0.0152063
11.6 0.0327353
11.61 0.049954
11.62 0.0668219
11.63 0.0833054
11.64 0.0993784
11.65 0.115022
11.66 0.130197
11.67 0.144904
11.68 0.159171
11.69 0.173007
11.7 0.186423
11.71 0.199435
11.72 0.212059
11.73 0.224272
11.74 0.236132
11.75 0.247653
11.76 0.258841
11.77 0.2697
11.78 0.280227
11.79 0.290394
11.8 0.300182
11.81 0.309588
11.82 0.318585
11.83 0.327139
11.84 0.335212
11.85 0.342764
11.86 0.349686
11.87 0.355984
11.88 0.361619
11.89 0.366551
11.9 0.370739
11.91 0.374147
11.92 0.376708
11.93 0.378369
11.94 0.379171
11.95 0.379102
11.96 0.378155
11.97 0.37633
11.98 0.373631
11.99 0.369985
12 0.365473
12.01 0.360127
12.02 0.353966
12.03 0.347008
12.04 0.339272
12.05 0.330749
12.06 0.321418
12.07 0.311356
12.08 0.300573
12.09 0.289075
12.1 0.276868
12.11 0.263954
12.12 0.250277
12.13 0.235875
12.14 0.220775
12.15 0.204982
12.16 0.188505
12.17 0.171359
12.18 0.153552
12.19 0.135072
12.2 0.11602
