# xPDFsuite Configuration #
[PDF]
wavelength = 0.1
dataformat = QA
inputfile = BiMsol6_insitu_700 C-00539.xy
backgroundfile = Quartz2mm-dist500-00000.xy
mode = xray
bgscale = 0.0042
composition = Bi2Fe4O9
outputtype = gr
qmaxinst = 24.998449118
qmin = 0.1
qmax = 21.4986662415
rmax = 80.0
rmin = 0.0
rstep = 0.01
rpoly = 0.9

[Misc]
inputdir = C:/Data/Seafile/CPH/Beamtime/Desy Oct 20/In situ data/Processed/BiMsol6/PDF
savedir = C:/Data/Seafile/CPH/Beamtime/Desy Oct 20/In situ data/PDF/BiMsol6
backgroundfilefull = C:/Data/Seafile/CPH/Beamtime/Desy Oct 20/In situ data/Processed/Standard_Empty_Cap/Quartz2mm-dist500-00000.xy

#### start data
#S 1
#L r($\AA$)  G($\AA^{-2}$)
0 0
0.01 0.00620072
0.02 0.012048
0.03 0.0172393
0.04 0.0215035
0.05 0.0246132
0.06 0.0263954
0.07 0.0266612
0.08 0.0253568
0.09 0.0226234
0.1 0.0185776
0.11 0.0133998
0.12 0.00732557
0.13 0.000635744
0.14 -0.00635317
0.15 -0.0132464
0.16 -0.0197104
0.17 -0.0254331
0.18 -0.0301354
0.19 -0.0335849
0.2 -0.0355438
0.21 -0.0358517
0.22 -0.034609
0.23 -0.0318852
0.24 -0.0278262
0.25 -0.0226497
0.26 -0.0166368
0.27 -0.0101087
0.28 -0.00352031
0.29 0.0027236
0.3 0.00823071
0.31 0.0126294
0.32 0.0155872
0.33 0.0167681
0.34 0.0158458
0.35 0.0128797
0.36 0.00787486
0.37 0.000938957
0.38 -0.00771672
0.39 -0.0177804
0.4 -0.0288894
0.41 -0.040432
0.42 -0.0518097
0.43 -0.0624146
0.44 -0.0716195
0.45 -0.0788019
0.46 -0.0833048
0.47 -0.0842823
0.48 -0.0815615
0.49 -0.0748078
0.5 -0.063808
0.51 -0.0484836
0.52 -0.0289004
0.53 -0.00500612
0.54 0.0226463
0.55 0.0533362
0.56 0.0863938
0.57 0.12104
0.58 0.156407
0.59 0.191553
0.6 0.225273
0.61 0.256641
0.62 0.284721
0.63 0.30864
0.64 0.327615
0.65 0.34098
0.66 0.347805
0.67 0.347728
0.68 0.340941
0.69 0.327472
0.7 0.307525
0.71 0.281479
0.72 0.249876
0.73 0.212939
0.74 0.172125
0.75 0.128384
0.76 0.0827163
0.77 0.0361568
0.78 -0.0102565
0.79 -0.0554043
0.8 -0.0981691
0.81 -0.1378
0.82 -0.173575
0.83 -0.204906
0.84 -0.231353
0.85 -0.252635
0.86 -0.268091
0.87 -0.27827
0.88 -0.283481
0.89 -0.284094
0.9 -0.280601
0.91 -0.273593
0.92 -0.263656
0.93 -0.25153
0.94 -0.238172
0.95 -0.224314
0.96 -0.210656
0.97 -0.19784
0.98 -0.186435
0.99 -0.177123
1 -0.170171
1.01 -0.165758
1.02 -0.163993
1.03 -0.164873
1.04 -0.16829
1.05 -0.174092
1.06 -0.182065
1.07 -0.191633
1.08 -0.202379
1.09 -0.213862
1.1 -0.225637
1.11 -0.237272
1.12 -0.248292
1.13 -0.25833
1.14 -0.267131
1.15 -0.27449
1.16 -0.280277
1.17 -0.28444
1.18 -0.286981
1.19 -0.287893
1.2 -0.287512
1.21 -0.286066
1.22 -0.283818
1.23 -0.281057
1.24 -0.278075
1.25 -0.275187
1.26 -0.27269
1.27 -0.270801
1.28 -0.269694
1.29 -0.269489
1.3 -0.270244
1.31 -0.271962
1.32 -0.274656
1.33 -0.278081
1.34 -0.282051
1.35 -0.286338
1.36 -0.290687
1.37 -0.294826
1.38 -0.298436
1.39 -0.301218
1.4 -0.302972
1.41 -0.30351
1.42 -0.30269
1.43 -0.300429
1.44 -0.296709
1.45 -0.291427
1.46 -0.284867
1.47 -0.277226
1.48 -0.268744
1.49 -0.259707
1.5 -0.250432
1.51 -0.241282
1.52 -0.232662
1.53 -0.224892
1.54 -0.218277
1.55 -0.213083
1.56 -0.209523
1.57 -0.207748
1.58 -0.208029
1.59 -0.210203
1.6 -0.214148
1.61 -0.219701
1.62 -0.226626
1.63 -0.234628
1.64 -0.24337
1.65 -0.252421
1.66 -0.261309
1.67 -0.269611
1.68 -0.276914
1.69 -0.282829
1.7 -0.287008
1.71 -0.28895
1.72 -0.288536
1.73 -0.285686
1.74 -0.280342
1.75 -0.272529
1.76 -0.262355
1.77 -0.249955
1.78 -0.235502
1.79 -0.219524
1.8 -0.202398
1.81 -0.184535
1.82 -0.166363
1.83 -0.14831
1.84 -0.130866
1.85 -0.114438
1.86 -0.0993354
1.87 -0.0858294
1.88 -0.0741266
1.89 -0.0643612
1.9 -0.0566205
1.91 -0.0510486
1.92 -0.0473296
1.93 -0.0452867
1.94 -0.0446864
1.95 -0.0452487
1.96 -0.0466604
1.97 -0.0485996
1.98 -0.0506704
1.99 -0.0525272
2 -0.0538749
2.01 -0.054459
2.02 -0.0540763
2.03 -0.0525793
2.04 -0.0497605
2.05 -0.0457624
2.06 -0.0406697
2.07 -0.0346346
2.08 -0.0278717
2.09 -0.0206498
2.1 -0.013294
2.11 -0.00620684
2.12 0.000240279
2.13 0.00568153
2.14 0.00976531
2.15 0.0121679
2.16 0.0126062
2.17 0.0105899
2.18 0.00617004
2.19 -0.00071723
2.2 -0.0100784
2.21 -0.0218448
2.22 -0.0358743
2.23 -0.0520353
2.24 -0.0700513
2.25 -0.0894378
2.26 -0.109815
2.27 -0.130777
2.28 -0.151904
2.29 -0.172779
2.3 -0.192893
2.31 -0.211888
2.32 -0.229452
2.33 -0.245313
2.34 -0.259257
2.35 -0.271138
2.36 -0.2808
2.37 -0.288139
2.38 -0.293406
2.39 -0.296739
2.4 -0.298327
2.41 -0.298407
2.42 -0.297251
2.43 -0.295103
2.44 -0.292368
2.45 -0.289382
2.46 -0.286446
2.47 -0.283835
2.48 -0.281793
2.49 -0.280548
2.5 -0.280339
2.51 -0.281188
2.52 -0.28314
2.53 -0.28619
2.54 -0.290287
2.55 -0.295335
2.56 -0.301249
2.57 -0.30781
2.58 -0.314794
2.59 -0.321998
2.6 -0.329214
2.61 -0.336241
2.62 -0.342884
2.63 -0.348905
2.64 -0.354212
2.65 -0.358701
2.66 -0.362301
2.67 -0.364975
2.68 -0.366721
2.69 -0.367515
2.7 -0.367442
2.71 -0.366637
2.72 -0.365209
2.73 -0.363279
2.74 -0.360974
2.75 -0.358422
2.76 -0.355743
2.77 -0.353072
2.78 -0.350498
2.79 -0.348095
2.8 -0.345912
2.81 -0.343976
2.82 -0.342305
2.83 -0.340877
2.84 -0.339637
2.85 -0.338526
2.86 -0.337477
2.87 -0.336413
2.88 -0.335255
2.89 -0.333898
2.9 -0.332281
2.91 -0.330345
2.92 -0.328041
2.93 -0.325335
2.94 -0.322207
2.95 -0.318636
2.96 -0.314622
2.97 -0.310223
2.98 -0.305472
2.99 -0.300407
3 -0.295069
3.01 -0.289495
3.02 -0.283694
3.03 -0.2777
3.04 -0.271513
3.05 -0.265113
3.06 -0.258455
3.07 -0.251475
3.08 -0.244069
3.09 -0.236085
3.1 -0.227427
3.11 -0.217951
3.12 -0.207501
3.13 -0.19592
3.14 -0.183049
3.15 -0.168607
3.16 -0.152521
3.17 -0.13473
3.18 -0.115156
3.19 -0.0937532
3.2 -0.070513
3.21 -0.0454318
3.22 -0.0184692
3.23 0.0100725
3.24 0.040022
3.25 0.0711688
3.26 0.103267
3.27 0.13604
3.28 0.16919
3.29 0.20234
3.3 0.235145
3.31 0.267273
3.32 0.2984
3.33 0.328216
3.34 0.356414
3.35 0.382525
3.36 0.406507
3.37 0.428184
3.38 0.447415
3.39 0.464108
3.4 0.478208
3.41 0.489544
3.42 0.498178
3.43 0.504324
3.44 0.508088
3.45 0.509601
3.46 0.509013
3.47 0.506491
3.48 0.502025
3.49 0.496013
3.5 0.488633
3.51 0.480051
3.52 0.470428
3.53 0.459907
3.54 0.448586
3.55 0.436585
3.56 0.424048
3.57 0.411055
3.58 0.397675
3.59 0.383965
3.6 0.369976
3.61 0.355734
3.62 0.34131
3.63 0.326755
3.64 0.312122
3.65 0.297469
3.66 0.282867
3.67 0.268403
3.68 0.254187
3.69 0.240312
3.7 0.226887
3.71 0.214029
3.72 0.20186
3.73 0.190505
3.74 0.180183
3.75 0.17096
3.76 0.162922
3.77 0.156164
3.78 0.150771
3.79 0.146809
3.8 0.14437
3.81 0.143574
3.82 0.144295
3.83 0.14652
3.84 0.150217
3.85 0.155337
3.86 0.161816
3.87 0.169678
3.88 0.178765
3.89 0.188938
3.9 0.200102
3.91 0.212159
3.92 0.225015
3.93 0.238587
3.94 0.252829
3.95 0.267594
3.96 0.282808
3.97 0.298404
3.98 0.314321
3.99 0.3305
4 0.346896
4.01 0.363438
4.02 0.380059
4.03 0.396695
4.04 0.413274
4.05 0.429716
4.06 0.445931
4.07 0.461772
4.08 0.47715
4.09 0.491943
4.1 0.506016
4.11 0.51923
4.12 0.531438
4.13 0.542417
4.14 0.552002
4.15 0.560122
4.16 0.566649
4.17 0.57147
4.18 0.574489
4.19 0.57563
4.2 0.574619
4.21 0.571642
4.22 0.566715
4.23 0.559872
4.24 0.551172
4.25 0.540702
4.26 0.528494
4.27 0.514667
4.28 0.499479
4.29 0.483086
4.3 0.465648
4.31 0.447326
4.32 0.428277
4.33 0.408603
4.34 0.388499
4.35 0.368084
4.36 0.34745
4.37 0.326666
4.38 0.305777
4.39 0.284803
4.4 0.263738
4.41 0.242565
4.42 0.221246
4.43 0.199729
4.44 0.177955
4.45 0.155865
4.46 0.133361
4.47 0.110413
4.48 0.0869941
4.49 0.0630886
4.5 0.0386994
4.51 0.0138531
4.52 -0.0114075
4.53 -0.0370121
4.54 -0.0628163
4.55 -0.0886882
4.56 -0.114476
4.57 -0.140012
4.58 -0.165116
4.59 -0.189536
4.6 -0.213088
4.61 -0.235615
4.62 -0.256948
4.63 -0.276938
4.64 -0.295456
4.65 -0.312374
4.66 -0.327477
4.67 -0.340895
4.68 -0.352634
4.69 -0.362732
4.7 -0.371261
4.71 -0.378322
4.72 -0.383961
4.73 -0.388383
4.74 -0.391824
4.75 -0.394464
4.76 -0.396492
4.77 -0.398092
4.78 -0.399441
4.79 -0.400712
4.8 -0.402071
4.81 -0.403634
4.82 -0.405494
4.83 -0.407714
4.84 -0.410329
4.85 -0.413368
4.86 -0.416801
4.87 -0.420554
4.88 -0.42455
4.89 -0.428701
4.9 -0.432901
4.91 -0.43704
4.92 -0.440971
4.93 -0.444591
4.94 -0.447799
4.95 -0.450503
4.96 -0.452627
4.97 -0.454114
4.98 -0.454891
4.99 -0.454923
5 -0.454264
5.01 -0.452938
5.02 -0.450986
5.03 -0.448461
5.04 -0.445425
5.05 -0.441913
5.06 -0.43804
5.07 -0.433882
5.08 -0.429504
5.09 -0.424956
5.1 -0.420282
5.11 -0.415502
5.12 -0.410623
5.13 -0.405643
5.14 -0.400534
5.15 -0.395258
5.16 -0.38976
5.17 -0.383981
5.18 -0.377815
5.19 -0.371205
5.2 -0.364097
5.21 -0.35643
5.22 -0.348159
5.23 -0.339249
5.24 -0.32967
5.25 -0.319386
5.26 -0.30849
5.27 -0.297036
5.28 -0.285102
5.29 -0.272783
5.3 -0.260195
5.31 -0.247469
5.32 -0.234771
5.33 -0.222256
5.34 -0.210075
5.35 -0.198374
5.36 -0.187292
5.37 -0.176965
5.38 -0.16759
5.39 -0.159168
5.4 -0.151755
5.41 -0.145383
5.42 -0.140054
5.43 -0.135746
5.44 -0.132471
5.45 -0.130126
5.46 -0.128565
5.47 -0.127676
5.48 -0.127332
5.49 -0.127401
5.5 -0.127751
5.51 -0.128249
5.52 -0.128746
5.53 -0.129131
5.54 -0.129311
5.55 -0.129208
5.56 -0.128768
5.57 -0.127934
5.58 -0.12669
5.59 -0.125071
5.6 -0.123104
5.61 -0.120832
5.62 -0.118311
5.63 -0.115599
5.64 -0.112757
5.65 -0.109863
5.66 -0.106974
5.67 -0.104136
5.68 -0.101379
5.69 -0.0987166
5.7 -0.0961495
5.71 -0.0936501
5.72 -0.0911642
5.73 -0.0886263
5.74 -0.0859552
5.75 -0.0830562
5.76 -0.0798256
5.77 -0.0761004
5.78 -0.071793
5.79 -0.0668087
5.8 -0.0610546
5.81 -0.0544523
5.82 -0.0469426
5.83 -0.0384573
5.84 -0.0289388
5.85 -0.0184907
5.86 -0.00716487
5.87 0.00495905
5.88 0.0177754
5.89 0.031155
5.9 0.0449696
5.91 0.0590086
5.92 0.073082
5.93 0.0870086
5.94 0.100609
5.95 0.113713
5.96 0.126144
5.97 0.13769
5.98 0.148309
5.99 0.157918
6 0.166468
6.01 0.17394
6.02 0.180347
6.03 0.185663
6.04 0.190009
6.05 0.193532
6.06 0.19636
6.07 0.198633
6.08 0.200503
6.09 0.202123
6.1 0.203654
6.11 0.205259
6.12 0.207065
6.13 0.209173
6.14 0.211663
6.15 0.214584
6.16 0.217986
6.17 0.221842
6.18 0.226078
6.19 0.230608
6.2 0.235325
6.21 0.240094
6.22 0.244762
6.23 0.249112
6.24 0.252982
6.25 0.256198
6.26 0.258588
6.27 0.259994
6.28 0.260277
6.29 0.259245
6.3 0.256782
6.31 0.252914
6.32 0.24762
6.33 0.240909
6.34 0.232825
6.35 0.223441
6.36 0.212745
6.37 0.200996
6.38 0.188358
6.39 0.174998
6.4 0.161091
6.41 0.146814
6.42 0.132343
6.43 0.117868
6.44 0.10355
6.45 0.0895232
6.46 0.0758979
6.47 0.0627606
6.48 0.0501722
6.49 0.0382231
6.5 0.0268759
6.51 0.0160943
6.52 0.00583383
6.53 -0.00396889
6.54 -0.013392
6.55 -0.0225187
6.56 -0.0314464
6.57 -0.0402953
6.58 -0.0491577
6.59 -0.0581173
6.6 -0.067246
6.61 -0.0766004
6.62 -0.086243
6.63 -0.0961787
6.64 -0.106391
6.65 -0.116852
6.66 -0.127515
6.67 -0.138312
6.68 -0.149161
6.69 -0.159949
6.7 -0.170563
6.71 -0.180888
6.72 -0.190809
6.73 -0.200209
6.74 -0.208978
6.75 -0.21695
6.76 -0.224043
6.77 -0.230214
6.78 -0.235399
6.79 -0.239552
6.8 -0.242641
6.81 -0.244642
6.82 -0.245447
6.83 -0.245186
6.84 -0.243887
6.85 -0.241582
6.86 -0.238312
6.87 -0.234119
6.88 -0.228997
6.89 -0.222998
6.9 -0.216211
6.91 -0.208666
6.92 -0.200388
6.93 -0.191396
6.94 -0.181698
6.95 -0.171214
6.96 -0.160013
6.97 -0.148085
6.98 -0.135409
6.99 -0.121963
7 -0.107726
7.01 -0.092634
7.02 -0.0766538
7.03 -0.0598301
7.04 -0.0421608
7.05 -0.0236538
7.06 -0.00432796
7.07 0.0157856
7.08 0.036714
7.09 0.0583258
7.1 0.080538
7.11 0.103266
7.12 0.126416
7.13 0.149884
7.14 0.173561
7.15 0.197317
7.16 0.221017
7.17 0.244539
7.18 0.267763
7.19 0.290572
7.2 0.312853
7.21 0.334433
7.22 0.355245
7.23 0.375218
7.24 0.394272
7.25 0.412339
7.26 0.429357
7.27 0.445243
7.28 0.459877
7.29 0.473324
7.3 0.485553
7.31 0.496541
7.32 0.506264
7.33 0.514706
7.34 0.52174
7.35 0.527408
7.36 0.531739
7.37 0.534715
7.38 0.536319
7.39 0.53653
7.4 0.535308
7.41 0.532511
7.42 0.528264
7.43 0.522552
7.44 0.515366
7.45 0.506697
7.46 0.496546
7.47 0.484817
7.48 0.471562
7.49 0.456878
7.5 0.440802
7.51 0.423382
7.52 0.404677
7.53 0.384753
7.54 0.363585
7.55 0.341404
7.56 0.318317
7.57 0.294442
7.58 0.269906
7.59 0.244844
7.6 0.219381
7.61 0.193687
7.62 0.167931
7.63 0.142263
7.64 0.116832
7.65 0.091785
7.66 0.0672643
7.67 0.0434958
7.68 0.0205496
7.69 -0.00145907
7.7 -0.0224216
7.71 -0.0422408
7.72 -0.0608314
7.73 -0.0780561
7.74 -0.0938204
7.75 -0.108175
7.76 -0.121093
7.77 -0.132562
7.78 -0.142586
7.79 -0.151179
7.8 -0.158234
7.81 -0.163919
7.82 -0.168311
7.83 -0.171479
7.84 -0.173497
7.85 -0.17445
7.86 -0.174393
7.87 -0.173398
7.88 -0.171637
7.89 -0.169208
7.9 -0.16621
7.91 -0.162735
7.92 -0.158874
7.93 -0.154691
7.94 -0.150291
7.95 -0.145747
7.96 -0.141119
7.97 -0.136455
7.98 -0.131792
7.99 -0.12716
8 -0.122584
8.01 -0.118066
8.02 -0.113608
8.03 -0.109201
8.04 -0.104834
8.05 -0.100489
8.06 -0.0961482
8.07 -0.0917882
8.08 -0.0873915
8.09 -0.0829433
8.1 -0.0784333
8.11 -0.0738564
8.12 -0.0692132
8.13 -0.0645093
8.14 -0.0597695
8.15 -0.055019
8.16 -0.0502902
8.17 -0.0456214
8.18 -0.041056
8.19 -0.0366546
8.2 -0.0324709
8.21 -0.0285462
8.22 -0.0249273
8.23 -0.0216572
8.24 -0.0187728
8.25 -0.016305
8.26 -0.0143234
8.27 -0.0127872
8.28 -0.011692
8.29 -0.0110217
8.3 -0.0107486
8.31 -0.0108334
8.32 -0.0112408
8.33 -0.0119028
8.34 -0.0127337
8.35 -0.0136611
8.36 -0.0146102
8.37 -0.0155062
8.38 -0.0162769
8.39 -0.0168275
8.4 -0.017114
8.41 -0.0170913
8.42 -0.0167249
8.43 -0.0159942
8.44 -0.0148932
8.45 -0.013416
8.46 -0.0115843
8.47 -0.00946707
8.48 -0.00712128
8.49 -0.00461547
8.5 -0.00202801
8.51 0.000555403
8.52 0.00302581
8.53 0.00528824
8.54 0.00725443
8.55 0.00883898
8.56 0.0099641
8.57 0.010562
8.58 0.0105556
8.59 0.00986906
8.6 0.00852934
8.61 0.00653012
8.62 0.00388106
8.63 0.000607181
8.64 -0.00325221
8.65 -0.00768591
8.66 -0.0125911
8.67 -0.0178791
8.68 -0.0234719
8.69 -0.0292891
8.7 -0.0352512
8.71 -0.0412818
8.72 -0.0473019
8.73 -0.0532469
8.74 -0.0590678
8.75 -0.0647272
8.76 -0.0702007
8.77 -0.0754767
8.78 -0.0805427
8.79 -0.0854227
8.8 -0.0901516
8.81 -0.0947649
8.82 -0.0993048
8.83 -0.103817
8.84 -0.108351
8.85 -0.112966
8.86 -0.1177
8.87 -0.122589
8.88 -0.127662
8.89 -0.132935
8.9 -0.138417
8.91 -0.144113
8.92 -0.149999
8.93 -0.156033
8.94 -0.162172
8.95 -0.168365
8.96 -0.174551
8.97 -0.180667
8.98 -0.186621
8.99 -0.192357
9 -0.197808
9.01 -0.202918
9.02 -0.207633
9.03 -0.211914
9.04 -0.215704
9.05 -0.21898
9.06 -0.22177
9.07 -0.224088
9.08 -0.225958
9.09 -0.227417
9.1 -0.228513
9.11 -0.229274
9.12 -0.2298
9.13 -0.230159
9.14 -0.230417
9.15 -0.230639
9.16 -0.230882
9.17 -0.231204
9.18 -0.231653
9.19 -0.232253
9.2 -0.233016
9.21 -0.233945
9.22 -0.235027
9.23 -0.236237
9.24 -0.237543
9.25 -0.238882
9.26 -0.240194
9.27 -0.241416
9.28 -0.24248
9.29 -0.243319
9.3 -0.243855
9.31 -0.244004
9.32 -0.24374
9.33 -0.243022
9.34 -0.241823
9.35 -0.240126
9.36 -0.23793
9.37 -0.235208
9.38 -0.232017
9.39 -0.228413
9.4 -0.224448
9.41 -0.220181
9.42 -0.21568
9.43 -0.211011
9.44 -0.206245
9.45 -0.201465
9.46 -0.19673
9.47 -0.192091
9.48 -0.187589
9.49 -0.183253
9.5 -0.179108
9.51 -0.175144
9.52 -0.171331
9.53 -0.167633
9.54 -0.163998
9.55 -0.160362
9.56 -0.156647
9.57 -0.152743
9.58 -0.148569
9.59 -0.144033
9.6 -0.139041
9.61 -0.133505
9.62 -0.127346
9.63 -0.120442
9.64 -0.112733
9.65 -0.104215
9.66 -0.0948626
9.67 -0.0846647
9.68 -0.0736283
9.69 -0.0617762
9.7 -0.0490633
9.71 -0.0356382
9.72 -0.0215704
9.73 -0.00693774
9.74 0.00817476
9.75 0.0236773
9.76 0.0394884
9.77 0.0555063
9.78 0.0716253
9.79 0.0877643
9.8 0.103849
9.81 0.119816
9.82 0.135609
9.83 0.151159
9.84 0.166448
9.85 0.18146
9.86 0.196181
9.87 0.210607
9.88 0.22474
9.89 0.238572
9.9 0.252104
9.91 0.265365
9.92 0.278359
9.93 0.291089
9.94 0.303551
9.95 0.315733
9.96 0.327586
9.97 0.3391
9.98 0.350245
9.99 0.360977
10 0.371244
10.01 0.380989
10.02 0.390133
10.03 0.398567
10.04 0.406281
10.05 0.413217
10.06 0.41932
10.07 0.424545
10.08 0.428855
10.09 0.432145
10.1 0.434448
10.11 0.4358
10.12 0.436222
10.13 0.435747
10.14 0.434423
10.15 0.4323
10.16 0.429406
10.17 0.425906
10.18 0.421895
10.19 0.417479
10.2 0.412762
10.21 0.407855
10.22 0.402865
10.23 0.397912
10.24 0.393094
10.25 0.388497
10.26 0.384196
10.27 0.380255
10.28 0.376724
10.29 0.373687
10.3 0.371111
10.31 0.368998
10.32 0.36733
10.33 0.366079
10.34 0.365202
10.35 0.36466
10.36 0.364374
10.37 0.364252
10.38 0.36421
10.39 0.364161
10.4 0.364016
10.41 0.363684
10.42 0.363033
10.43 0.361998
10.44 0.360499
10.45 0.358458
10.46 0.355804
10.47 0.352475
10.48 0.348377
10.49 0.343445
10.5 0.337694
10.51 0.331098
10.52 0.323642
10.53 0.315319
10.54 0.30613
10.55 0.296002
10.56 0.285032
10.57 0.273262
10.58 0.260728
10.59 0.247475
10.6 0.233552
10.61 0.218994
10.62 0.203847
10.63 0.188224
10.64 0.172195
10.65 0.155829
10.66 0.139201
10.67 0.122382
10.68 0.10544
10.69 0.0884628
10.7 0.0715198
10.71 0.0546747
10.72 0.0379862
10.73 0.0215074
10.74 0.00529289
10.75 -0.010595
10.76 -0.0261509
10.77 -0.0413537
10.78 -0.0561909
10.79 -0.0706584
10.8 -0.0847603
10.81 -0.098482
10.82 -0.111861
10.83 -0.124938
10.84 -0.137746
10.85 -0.150319
10.86 -0.162697
10.87 -0.174917
10.88 -0.187015
10.89 -0.199042
10.9 -0.211032
10.91 -0.223014
10.92 -0.235012
10.93 -0.247043
10.94 -0.259119
10.95 -0.271238
10.96 -0.283391
10.97 -0.29556
10.98 -0.30772
10.99 -0.319838
11 -0.331875
11.01 -0.343767
11.02 -0.355474
11.03 -0.366941
11.04 -0.378116
11.05 -0.388941
11.06 -0.399362
11.07 -0.409297
11.08 -0.418689
11.09 -0.427519
11.1 -0.435749
11.11 -0.443343
11.12 -0.450273
11.13 -0.456516
11.14 -0.461975
11.15 -0.466709
11.16 -0.470717
11.17 -0.473997
11.18 -0.476548
11.19 -0.478374
11.2 -0.479445
11.21 -0.47975
11.22 -0.479346
11.23 -0.478235
11.24 -0.476423
11.25 -0.47391
11.26 -0.470698
11.27 -0.466714
11.28 -0.462014
11.29 -0.456606
11.3 -0.450487
11.31 -0.443654
11.32 -0.436104
11.33 -0.427814
11.34 -0.418753
11.35 -0.408988
11.36 -0.398531
11.37 -0.3874
11.38 -0.375616
11.39 -0.363208
11.4 -0.350162
11.41 -0.336558
11.42 -0.322458
11.43 -0.307915
11.44 -0.292982
11.45 -0.277717
11.46 -0.262175
11.47 -0.246411
11.48 -0.230509
11.49 -0.214529
11.5 -0.198529
11.51 -0.182561
11.52 -0.166676
11.53 -0.150933
11.54 -0.135371
11.55 -0.120019
11.56 -0.104904
11.57 -0.0900498
11.58 -0.075474
11.59 -0.0611944
11.6 -0.0472493
11.61 -0.0336146
11.62 -0.0202948
11.63 -0.00729346
11.64 0.00538621
11.65 0.0177403
11.66 0.0297415
11.67 0.0413866
11.68 0.0526828
11.69 0.0636181
11.7 0.0741777
11.71 0.084345
11.72 0.0941001
11.73 0.103372
11.74 0.112186
11.75 0.120522
11.76 0.12836
11.77 0.135681
11.78 0.142469
11.79 0.148682
11.8 0.154307
11.81 0.159375
11.82 0.163888
11.83 0.167855
11.84 0.171289
11.85 0.174207
11.86 0.17658
11.87 0.178488
11.88 0.179963
11.89 0.181037
11.9 0.181743
11.91 0.18211
11.92 0.182156
11.93 0.181901
11.94 0.181389
11.95 0.180634
11.96 0.179645
11.97 0.178423
11.98 0.176962
11.99 0.175223
12 0.1732
12.01 0.170867
12.02 0.168187
12.03 0.165117
12.04 0.161609
12.05 0.157596
12.06 0.152987
12.07 0.147772
12.08 0.141898
12.09 0.135316
12.1 0.127981
12.11 0.119854
12.12 0.11083
12.13 0.10093
12.14 0.0901698
12.15 0.0785479
12.16 0.0660757
12.17 0.0527755
