# xPDFsuite Configuration #
[PDF]
wavelength = 0.1
dataformat = QA
inputfile = BiMsol6_insitu_700 C-00044.xy
backgroundfile = Quartz2mm-dist500-00000.xy
mode = xray
bgscale = 0.0042
composition = Bi2Fe4O9
outputtype = gr
qmaxinst = 24.998449118
qmin = 0.1
qmax = 21.4986662415
rmax = 80.0
rmin = 0.0
rstep = 0.01
rpoly = 0.9

[Misc]
inputdir = C:/Data/Seafile/CPH/Beamtime/Desy Oct 20/In situ data/Processed/BiMsol6/PDF
savedir = C:/Data/Seafile/CPH/Beamtime/Desy Oct 20/In situ data/PDF/BiMsol6
backgroundfilefull = C:/Data/Seafile/CPH/Beamtime/Desy Oct 20/In situ data/Processed/Standard_Empty_Cap/Quartz2mm-dist500-00000.xy

#### start data
#S 1
#L r($\AA$)  G($\AA^{-2}$)
0 0
0.01 0.00658676
0.02 0.012805
0.03 0.0183393
0.04 0.0229066
0.05 0.0262691
0.06 0.0282457
0.07 0.0286377
0.08 0.0273871
0.09 0.0246393
0.1 0.0205138
0.11 0.015196
0.12 0.00892958
0.13 0.00200528
0.14 -0.00525049
0.15 -0.0124254
0.16 -0.0191718
0.17 -0.0251634
0.18 -0.0301073
0.19 -0.0337588
0.2 -0.0358661
0.21 -0.0362567
0.22 -0.0350289
0.23 -0.0322487
0.24 -0.0280614
0.25 -0.0226871
0.26 -0.016412
0.27 -0.00956123
0.28 -0.00260547
0.29 0.0040365
0.3 0.00995817
0.31 0.014773
0.32 0.0181333
0.33 0.0196872
0.34 0.0190906
0.35 0.0163943
0.36 0.0115944
0.37 0.00479236
0.38 -0.00380362
0.39 -0.0138815
0.4 -0.0250798
0.41 -0.0367751
0.42 -0.0483551
0.43 -0.0591982
0.44 -0.0686611
0.45 -0.0761039
0.46 -0.0808503
0.47 -0.082031
0.48 -0.0794578
0.49 -0.0727808
0.5 -0.0617739
0.51 -0.0463494
0.52 -0.0265676
0.53 -0.00236877
0.54 0.0256859
0.55 0.0568606
0.56 0.0904703
0.57 0.125715
0.58 0.161704
0.59 0.197464
0.6 0.231755
0.61 0.263618
0.62 0.292084
0.63 0.316247
0.64 0.335295
0.65 0.348535
0.66 0.355
0.67 0.354312
0.68 0.346668
0.69 0.332095
0.7 0.310805
0.71 0.283194
0.72 0.249826
0.73 0.210942
0.74 0.168063
0.75 0.122185
0.76 0.0743604
0.77 0.0256789
0.78 -0.0227647
0.79 -0.0697834
0.8 -0.114193
0.81 -0.155203
0.82 -0.192045
0.83 -0.224094
0.84 -0.250879
0.85 -0.272099
0.86 -0.28704
0.87 -0.296293
0.88 -0.300184
0.89 -0.299111
0.9 -0.293601
0.91 -0.284291
0.92 -0.271811
0.93 -0.256965
0.94 -0.24079
0.95 -0.224086
0.96 -0.20762
0.97 -0.192099
0.98 -0.178152
0.99 -0.166543
1 -0.157574
1.01 -0.151455
1.02 -0.148321
1.03 -0.148184
1.04 -0.150937
1.05 -0.156433
1.06 -0.164452
1.07 -0.174358
1.08 -0.185694
1.09 -0.197972
1.1 -0.210696
1.11 -0.223379
1.12 -0.23549
1.13 -0.246598
1.14 -0.256397
1.15 -0.264637
1.16 -0.271149
1.17 -0.275854
1.18 -0.278728
1.19 -0.279737
1.2 -0.279241
1.21 -0.27748
1.22 -0.274741
1.23 -0.271341
1.24 -0.267613
1.25 -0.26391
1.26 -0.260585
1.27 -0.257906
1.28 -0.256094
1.29 -0.255311
1.3 -0.255655
1.31 -0.25716
1.32 -0.259888
1.33 -0.263585
1.34 -0.268064
1.35 -0.273088
1.36 -0.278384
1.37 -0.283651
1.38 -0.288539
1.39 -0.292695
1.4 -0.295862
1.41 -0.297795
1.42 -0.298301
1.43 -0.297242
1.44 -0.294548
1.45 -0.290045
1.46 -0.284004
1.47 -0.276595
1.48 -0.268046
1.49 -0.25864
1.5 -0.248705
1.51 -0.238613
1.52 -0.228803
1.53 -0.21966
1.54 -0.211543
1.55 -0.204777
1.56 -0.19964
1.57 -0.196351
1.58 -0.195266
1.59 -0.196278
1.6 -0.19932
1.61 -0.204274
1.62 -0.210943
1.63 -0.219055
1.64 -0.228299
1.65 -0.238256
1.66 -0.248403
1.67 -0.258284
1.68 -0.26744
1.69 -0.275425
1.7 -0.281825
1.71 -0.286067
1.72 -0.287938
1.73 -0.287279
1.74 -0.283952
1.75 -0.277912
1.76 -0.2692
1.77 -0.257883
1.78 -0.244058
1.79 -0.228259
1.8 -0.210849
1.81 -0.192242
1.82 -0.172879
1.83 -0.153219
1.84 -0.13377
1.85 -0.115018
1.86 -0.0973527
1.87 -0.0811172
1.88 -0.0665943
1.89 -0.0539953
1.9 -0.0434848
1.91 -0.0352967
1.92 -0.0291681
1.93 -0.0249727
1.94 -0.0225156
1.95 -0.0215423
1.96 -0.0217509
1.97 -0.0228373
1.98 -0.0243777
1.99 -0.0259759
2 -0.0272913
2.01 -0.0280138
2.02 -0.0278774
2.03 -0.0266664
2.04 -0.0240915
2.05 -0.0202233
2.06 -0.0150814
2.07 -0.00875984
2.08 -0.00142402
2.09 0.00669567
2.1 0.0153205
2.11 0.0240613
2.12 0.0325191
2.13 0.0403083
2.14 0.047044
2.15 0.0523569
2.16 0.055908
2.17 0.0571496
2.18 0.0560404
2.19 0.0524412
2.2 0.0462711
2.21 0.0375274
2.22 0.0262863
2.23 0.0126058
2.24 -0.00329962
2.25 -0.0209562
2.26 -0.0400031
2.27 -0.060039
2.28 -0.0806355
2.29 -0.10135
2.3 -0.121669
2.31 -0.14115
2.32 -0.159416
2.33 -0.176128
2.34 -0.191001
2.35 -0.203815
2.36 -0.214339
2.37 -0.222386
2.38 -0.228152
2.39 -0.231725
2.4 -0.233253
2.41 -0.232946
2.42 -0.231059
2.43 -0.227807
2.44 -0.223627
2.45 -0.218897
2.46 -0.213953
2.47 -0.20912
2.48 -0.204696
2.49 -0.200971
2.5 -0.198254
2.51 -0.196638
2.52 -0.196232
2.53 -0.197087
2.54 -0.1992
2.55 -0.202518
2.56 -0.207009
2.57 -0.212465
2.58 -0.218655
2.59 -0.225367
2.6 -0.232379
2.61 -0.239459
2.62 -0.246379
2.63 -0.252866
2.64 -0.258757
2.65 -0.263895
2.66 -0.268155
2.67 -0.27145
2.68 -0.273732
2.69 -0.274924
2.7 -0.275074
2.71 -0.274304
2.72 -0.272707
2.73 -0.270402
2.74 -0.267522
2.75 -0.264208
2.76 -0.260591
2.77 -0.256856
2.78 -0.253131
2.79 -0.249527
2.8 -0.246135
2.81 -0.243022
2.82 -0.240246
2.83 -0.237825
2.84 -0.23572
2.85 -0.233891
2.86 -0.232277
2.87 -0.230803
2.88 -0.229378
2.89 -0.227894
2.9 -0.226247
2.91 -0.224348
2.92 -0.222112
2.93 -0.219471
2.94 -0.216371
2.95 -0.212755
2.96 -0.208593
2.97 -0.203934
2.98 -0.198806
2.99 -0.193258
3 -0.187351
3.01 -0.181159
3.02 -0.174752
3.03 -0.168237
3.04 -0.161701
3.05 -0.155218
3.06 -0.148852
3.07 -0.142652
3.08 -0.136659
3.09 -0.130897
3.1 -0.125339
3.11 -0.119952
3.12 -0.114688
3.13 -0.109479
3.14 -0.104245
3.15 -0.098877
3.16 -0.0932681
3.17 -0.087322
3.18 -0.0809403
3.19 -0.074032
3.2 -0.0665169
3.21 -0.058314
3.22 -0.049317
3.23 -0.0395681
3.24 -0.0290648
3.25 -0.0178255
3.26 -0.00588824
3.27 0.00669022
3.28 0.0198729
3.29 0.0335436
3.3 0.0475825
3.31 0.0618901
3.32 0.0763676
3.33 0.0909211
3.34 0.105465
3.35 0.119911
3.36 0.13421
3.37 0.148327
3.38 0.162248
3.39 0.175977
3.4 0.189537
3.41 0.202965
3.42 0.216325
3.43 0.229695
3.44 0.24315
3.45 0.256765
3.46 0.270615
3.47 0.284766
3.48 0.299317
3.49 0.314264
3.5 0.329618
3.51 0.345365
3.52 0.361465
3.53 0.377853
3.54 0.394438
3.55 0.411081
3.56 0.427621
3.57 0.44389
3.58 0.459705
3.59 0.474871
3.6 0.48919
3.61 0.502331
3.62 0.514181
3.63 0.524575
3.64 0.533355
3.65 0.540385
3.66 0.545557
3.67 0.548712
3.68 0.549732
3.69 0.548764
3.7 0.545837
3.71 0.541017
3.72 0.534397
3.73 0.526098
3.74 0.516139
3.75 0.504812
3.76 0.492337
3.77 0.478902
3.78 0.464702
3.79 0.449927
3.8 0.434755
3.81 0.419369
3.82 0.403954
3.83 0.388645
3.84 0.373558
3.85 0.358788
3.86 0.344406
3.87 0.330503
3.88 0.317089
3.89 0.304156
3.9 0.291696
3.91 0.279689
3.92 0.268104
3.93 0.256908
3.94 0.246083
3.95 0.235547
3.96 0.225259
3.97 0.215182
3.98 0.205283
3.99 0.195535
4 0.185928
4.01 0.176445
4.02 0.167076
4.03 0.15782
4.04 0.148683
4.05 0.139674
4.06 0.130802
4.07 0.122093
4.08 0.113539
4.09 0.105143
4.1 0.0969086
4.11 0.0888303
4.12 0.0809009
4.13 0.0731155
4.14 0.0654553
4.15 0.0578935
4.16 0.0504101
4.17 0.0429852
4.18 0.0356005
4.19 0.0282411
4.2 0.0208983
4.21 0.0135674
4.22 0.00625362
4.23 -0.00102943
4.24 -0.00825991
4.25 -0.0154077
4.26 -0.0224269
4.27 -0.0292625
4.28 -0.0358726
4.29 -0.0422035
4.3 -0.0482014
4.31 -0.0538139
4.32 -0.0589926
4.33 -0.0636436
4.34 -0.0677737
4.35 -0.071371
4.36 -0.074429
4.37 -0.0769551
4.38 -0.078971
4.39 -0.0804969
4.4 -0.0815738
4.41 -0.0823042
4.42 -0.0827637
4.43 -0.0830357
4.44 -0.0832085
4.45 -0.0833726
4.46 -0.0836324
4.47 -0.0840761
4.48 -0.0847753
4.49 -0.0857926
4.5 -0.0871762
4.51 -0.0889587
4.52 -0.0911657
4.53 -0.0938163
4.54 -0.0968458
4.55 -0.100209
4.56 -0.103845
4.57 -0.107678
4.58 -0.111622
4.59 -0.115574
4.6 -0.119421
4.61 -0.123062
4.62 -0.126402
4.63 -0.129351
4.64 -0.131831
4.65 -0.133771
4.66 -0.135069
4.67 -0.135758
4.68 -0.135835
4.69 -0.135317
4.7 -0.13424
4.71 -0.13266
4.72 -0.130625
4.73 -0.128243
4.74 -0.125634
4.75 -0.122902
4.76 -0.120155
4.77 -0.117499
4.78 -0.115034
4.79 -0.112894
4.8 -0.11113
4.81 -0.109802
4.82 -0.108954
4.83 -0.10861
4.84 -0.108775
4.85 -0.109463
4.86 -0.110636
4.87 -0.112213
4.88 -0.11413
4.89 -0.116312
4.9 -0.118678
4.91 -0.121144
4.92 -0.123616
4.93 -0.126007
4.94 -0.128245
4.95 -0.130268
4.96 -0.132028
4.97 -0.133492
4.98 -0.134626
4.99 -0.135424
5 -0.135923
5.01 -0.136155
5.02 -0.136164
5.03 -0.136001
5.04 -0.135728
5.05 -0.13541
5.06 -0.135122
5.07 -0.134926
5.08 -0.134877
5.09 -0.135022
5.1 -0.135394
5.11 -0.136025
5.12 -0.136933
5.13 -0.138088
5.14 -0.139465
5.15 -0.141024
5.16 -0.142718
5.17 -0.144488
5.18 -0.146262
5.19 -0.147962
5.2 -0.149518
5.21 -0.150864
5.22 -0.15194
5.23 -0.152696
5.24 -0.153082
5.25 -0.153044
5.26 -0.152609
5.27 -0.151785
5.28 -0.150594
5.29 -0.149072
5.3 -0.14727
5.31 -0.145234
5.32 -0.143049
5.33 -0.140797
5.34 -0.138549
5.35 -0.136375
5.36 -0.134338
5.37 -0.132495
5.38 -0.130914
5.39 -0.129597
5.4 -0.128551
5.41 -0.127768
5.42 -0.127222
5.43 -0.126872
5.44 -0.126669
5.45 -0.126529
5.46 -0.12637
5.47 -0.126106
5.48 -0.125654
5.49 -0.124932
5.5 -0.123863
5.51 -0.122329
5.52 -0.120324
5.53 -0.117817
5.54 -0.114795
5.55 -0.111266
5.56 -0.107257
5.57 -0.102798
5.58 -0.0979647
5.59 -0.0928714
5.6 -0.087618
5.61 -0.0823137
5.62 -0.0770726
5.63 -0.0720096
5.64 -0.0672777
5.65 -0.0629583
5.66 -0.0591337
5.67 -0.0558709
5.68 -0.0532159
5.69 -0.0511916
5.7 -0.0498227
5.71 -0.0490915
5.72 -0.0488932
5.73 -0.0491462
5.74 -0.0497485
5.75 -0.0505812
5.76 -0.0515131
5.77 -0.0523865
5.78 -0.0530468
5.79 -0.0533574
5.8 -0.0531898
5.81 -0.0524305
5.82 -0.0509843
5.83 -0.0487528
5.84 -0.0456465
5.85 -0.0417204
5.86 -0.0369944
5.87 -0.0315173
5.88 -0.0253657
5.89 -0.0186414
5.9 -0.0114423
5.91 -0.00395465
5.92 0.00365132
5.93 0.0112135
5.94 0.0185701
5.95 0.0255653
5.96 0.0320414
5.97 0.0378119
5.98 0.0428295
5.99 0.0470232
6 0.0503518
6.01 0.0528049
6.02 0.0544038
6.03 0.0551469
6.04 0.0551577
6.05 0.0545837
6.06 0.0535599
6.07 0.0522374
6.08 0.0507777
6.09 0.0493495
6.1 0.0481553
6.11 0.0473427
6.12 0.0470506
6.13 0.047398
6.14 0.0484792
6.15 0.050361
6.16 0.0531332
6.17 0.0567865
6.18 0.0612399
6.19 0.0664265
6.2 0.0722513
6.21 0.0785948
6.22 0.0853168
6.23 0.0922685
6.24 0.0992422
6.25 0.106068
6.26 0.112582
6.27 0.118626
6.28 0.12406
6.29 0.128717
6.3 0.13248
6.31 0.135332
6.32 0.137241
6.33 0.138202
6.34 0.138242
6.35 0.137413
6.36 0.135726
6.37 0.133371
6.38 0.130483
6.39 0.127199
6.4 0.123666
6.41 0.120031
6.42 0.116443
6.43 0.113063
6.44 0.110002
6.45 0.107359
6.46 0.105211
6.47 0.103611
6.48 0.102587
6.49 0.102195
6.5 0.102362
6.51 0.103024
6.52 0.104109
6.53 0.105527
6.54 0.107177
6.55 0.108947
6.56 0.110708
6.57 0.112336
6.58 0.113723
6.59 0.114773
6.6 0.115399
6.61 0.115536
6.62 0.115085
6.63 0.114045
6.64 0.112433
6.65 0.110266
6.66 0.107582
6.67 0.104436
6.68 0.100891
6.69 0.0970169
6.7 0.0929418
6.71 0.0887611
6.72 0.08457
6.73 0.0804604
6.74 0.0765168
6.75 0.0728364
6.76 0.0694811
6.77 0.0664835
6.78 0.0638713
6.79 0.0616561
6.8 0.0598334
6.81 0.0583861
6.82 0.0573091
6.83 0.0565142
6.84 0.0559446
6.85 0.0555374
6.86 0.0552269
6.87 0.054947
6.88 0.0546288
6.89 0.0542066
6.9 0.0536348
6.91 0.0528751
6.92 0.0519003
6.93 0.0506952
6.94 0.0492563
6.95 0.0475679
6.96 0.0456778
6.97 0.043617
6.98 0.0414227
6.99 0.0391373
7 0.0368056
7.01 0.034475
7.02 0.0321955
7.03 0.0300042
7.04 0.0279319
7.05 0.0260016
7.06 0.0242269
7.07 0.0226118
7.08 0.0211645
7.09 0.0198519
7.1 0.0186453
7.11 0.0175103
7.12 0.0164074
7.13 0.015293
7.14 0.0141181
7.15 0.0128286
7.16 0.0113891
7.17 0.00976508
7.18 0.00792923
7.19 0.00586337
7.2 0.00355942
7.21 0.000999999
7.22 -0.00178104
7.23 -0.00474936
7.24 -0.00786615
7.25 -0.0110834
7.26 -0.0143455
7.27 -0.0175886
7.28 -0.0207333
7.29 -0.0237158
7.3 -0.0264711
7.31 -0.0289382
7.32 -0.0310625
7.33 -0.0327972
7.34 -0.0340687
7.35 -0.0348693
7.36 -0.0352047
7.37 -0.0350774
7.38 -0.034503
7.39 -0.033509
7.4 -0.0321289
7.41 -0.0303915
7.42 -0.0283937
7.43 -0.026201
7.44 -0.0238832
7.45 -0.0215115
7.46 -0.0191572
7.47 -0.0168997
7.48 -0.0148096
7.49 -0.0129387
7.5 -0.0113354
7.51 -0.010039
7.52 -0.009079
7.53 -0.0084771
7.54 -0.0082809
7.55 -0.00844723
7.56 -0.00896382
7.57 -0.00981031
7.58 -0.0109594
7.59 -0.0123783
7.6 -0.0140408
7.61 -0.0159003
7.62 -0.017902
7.63 -0.0200046
7.64 -0.0221682
7.65 -0.0243554
7.66 -0.0265321
7.67 -0.0286604
7.68 -0.030717
7.69 -0.0326819
7.7 -0.0345392
7.71 -0.0362771
7.72 -0.0378879
7.73 -0.0393608
7.74 -0.0406915
7.75 -0.0418906
7.76 -0.042961
7.77 -0.0439071
7.78 -0.0447337
7.79 -0.0454461
7.8 -0.0460396
7.81 -0.0465293
7.82 -0.0469226
7.83 -0.0472251
7.84 -0.0474425
7.85 -0.0475809
7.86 -0.0476447
7.87 -0.0476395
7.88 -0.0475796
7.89 -0.0474743
7.9 -0.0473342
7.91 -0.0471705
7.92 -0.0469951
7.93 -0.0468213
7.94 -0.0466626
7.95 -0.0465303
7.96 -0.0464342
7.97 -0.0463826
7.98 -0.0463812
7.99 -0.0464341
8 -0.0465436
8.01 -0.0466995
8.02 -0.0468923
8.03 -0.0471089
8.04 -0.0473323
8.05 -0.0475423
8.06 -0.047711
8.07 -0.0478114
8.08 -0.0478192
8.09 -0.0477087
8.1 -0.047456
8.11 -0.0470399
8.12 -0.0464403
8.13 -0.0456272
8.14 -0.0446154
8.15 -0.0434077
8.16 -0.0420143
8.17 -0.0404535
8.18 -0.0387513
8.19 -0.0369365
8.2 -0.0350577
8.21 -0.033167
8.22 -0.0313153
8.23 -0.0295555
8.24 -0.0279413
8.25 -0.0265257
8.26 -0.0253897
8.27 -0.0245511
8.28 -0.0240436
8.29 -0.0238915
8.3 -0.0241082
8.31 -0.0246955
8.32 -0.0256614
8.33 -0.0269783
8.34 -0.028585
8.35 -0.0304305
8.36 -0.0324535
8.37 -0.0345839
8.38 -0.0367448
8.39 -0.0388401
8.4 -0.0407834
8.41 -0.0424931
8.42 -0.0438915
8.43 -0.0449076
8.44 -0.0454794
8.45 -0.0455321
8.46 -0.0450111
8.47 -0.0439337
8.48 -0.0422971
8.49 -0.0401143
8.5 -0.0374142
8.51 -0.0342404
8.52 -0.030616
8.53 -0.0266529
8.54 -0.0224397
8.55 -0.0180638
8.56 -0.0136161
8.57 -0.00918805
8.58 -0.00487594
8.59 -0.000784197
8.6 0.00302343
8.61 0.0064835
8.62 0.00954499
8.63 0.0121707
8.64 0.0143381
8.65 0.0159999
8.66 0.0171935
8.67 0.0179582
8.68 0.0183316
8.69 0.0183621
8.7 0.0181067
8.71 0.0176249
8.72 0.0169815
8.73 0.0162638
8.74 0.015537
8.75 0.0148615
8.76 0.0142909
8.77 0.0138702
8.78 0.0136501
8.79 0.0136488
8.8 0.0138675
8.81 0.0143035
8.82 0.0149432
8.83 0.0157632
8.84 0.0167328
8.85 0.0178182
8.86 0.0189606
8.87 0.0201138
8.88 0.0212323
8.89 0.022273
8.9 0.0231972
8.91 0.0239611
8.92 0.0245397
8.93 0.0249277
8.94 0.0251213
8.95 0.0251263
8.96 0.0249577
8.97 0.024639
8.98 0.0241917
8.99 0.0236706
9 0.0231171
9.01 0.0225741
9.02 0.0220839
9.03 0.0216861
9.04 0.0214243
9.05 0.0213318
9.06 0.0214187
9.07 0.021694
9.08 0.0221573
9.09 0.0227978
9.1 0.0235952
9.11 0.0245297
9.12 0.0255465
9.13 0.0265992
9.14 0.0276388
9.15 0.0286143
9.16 0.0294749
9.17 0.0301637
9.18 0.0306254
9.19 0.0308382
9.2 0.0307769
9.21 0.0304264
9.22 0.0297829
9.23 0.0288543
9.24 0.0276378
9.25 0.0261897
9.26 0.0245592
9.27 0.0227985
9.28 0.0209662
9.29 0.019125
9.3 0.0173436
9.31 0.015701
9.32 0.0142509
9.33 0.0130466
9.34 0.0121328
9.35 0.0115436
9.36 0.0113016
9.37 0.0114461
9.38 0.0119512
9.39 0.012784
9.4 0.0139102
9.41 0.0152838
9.42 0.0168488
9.43 0.0185419
9.44 0.0202879
9.45 0.0220022
9.46 0.0236114
9.47 0.0250453
9.48 0.0262394
9.49 0.0271373
9.5 0.0276651
9.51 0.0277965
9.52 0.0275298
9.53 0.0268626
9.54 0.0258065
9.55 0.0243874
9.56 0.0226416
9.57 0.0206001
9.58 0.018359
9.59 0.0159877
9.6 0.0135594
9.61 0.0111488
9.62 0.00882942
9.63 0.00668504
9.64 0.00478572
9.65 0.00317366
9.66 0.00188936
9.67 0.000960863
9.68 0.000403
9.69 0.000217011
9.7 0.000429381
9.71 0.000969526
9.72 0.00179759
9.73 0.00286497
9.74 0.00411579
9.75 0.00548919
9.76 0.00692143
9.77 0.00833989
9.78 0.00968181
9.79 0.0108932
9.8 0.0119277
9.81 0.0127483
9.82 0.0133285
9.83 0.0136264
9.84 0.0136642
9.85 0.0134572
9.86 0.0130282
9.87 0.0124098
9.88 0.0116431
9.89 0.0107735
9.9 0.00985908
9.91 0.00896102
9.92 0.00813279
9.93 0.00742482
9.94 0.0068825
9.95 0.00654438
9.96 0.00646441
9.97 0.00664734
9.98 0.00709473
9.99 0.00780312
10 0.00875856
10.01 0.0099373
10.02 0.0113111
10.03 0.0128425
10.04 0.0144682
10.05 0.0161377
10.06 0.0177992
10.07 0.0194016
10.08 0.020896
10.09 0.0222223
10.1 0.0233457
10.11 0.0242426
10.12 0.0248924
10.13 0.0252836
10.14 0.0254135
10.15 0.0252839
10.16 0.0248926
10.17 0.0242882
10.18 0.0234999
10.19 0.0225609
10.2 0.0215073
10.21 0.0203759
10.22 0.0192027
10.23 0.0180272
10.24 0.0168804
10.25 0.0157867
10.26 0.0147646
10.27 0.0138266
10.28 0.012979
10.29 0.0122301
10.3 0.0115619
10.31 0.0109622
10.32 0.0104145
10.33 0.00990012
10.34 0.00939904
10.35 0.00888985
10.36 0.00835178
10.37 0.00777073
10.38 0.00713617
10.39 0.00644243
10.4 0.00568921
10.41 0.00488184
10.42 0.00402802
10.43 0.00315084
10.44 0.00227176
10.45 0.00141511
10.46 0.000606991
10.47 -0.000126121
10.48 -0.000752779
10.49 -0.0012451
10.5 -0.00159297
10.51 -0.00178493
10.52 -0.00181627
10.53 -0.00168982
10.54 -0.0014163
10.55 -0.00100413
10.56 -0.000495115
10.57 7.36659e-05
10.58 0.000661511
10.59 0.00122366
10.6 0.00171301
10.61 0.00207563
10.62 0.00225278
10.63 0.00221394
10.64 0.00192475
10.65 0.00135903
10.66 0.000500285
10.67 -0.000657018
10.68 -0.00213146
10.69 -0.00388123
10.7 -0.00586482
10.71 -0.0080371
10.72 -0.0103429
10.73 -0.0127185
10.74 -0.0150919
10.75 -0.017374
10.76 -0.0194909
10.77 -0.0213694
10.78 -0.0229416
10.79 -0.0241471
10.8 -0.0249359
10.81 -0.0252322
10.82 -0.0250316
10.83 -0.0243481
10.84 -0.0231951
10.85 -0.0216023
10.86 -0.0196158
10.87 -0.0172921
10.88 -0.0146936
10.89 -0.0119398
10.9 -0.00912502
10.91 -0.00634746
10.92 -0.00370615
10.93 -0.00129737
10.94 0.000760787
10.95 0.00238437
10.96 0.00352527
10.97 0.00413477
10.98 0.0041817
10.99 0.00365378
11 0.00255583
11.01 0.000861864
11.02 -0.00131369
11.03 -0.00390295
11.04 -0.00682319
11.05 -0.00997954
11.06 -0.0132681
11.07 -0.0165738
11.08 -0.0197678
11.09 -0.0227416
11.1 -0.0253935
11.11 -0.0276319
11.12 -0.0293786
11.13 -0.0305709
11.14 -0.0310951
11.15 -0.0309897
11.16 -0.0302592
11.17 -0.0289242
11.18 -0.0270245
11.19 -0.0246177
11.2 -0.0217613
11.21 -0.0185476
11.22 -0.0151046
11.23 -0.0115364
11.24 -0.00794856
11.25 -0.00444527
11.26 -0.00112533
11.27 0.0018858
11.28 0.00452564
11.29 0.00673879
11.3 0.00848126
11.31 0.00972661
11.32 0.0104664
11.33 0.0106938
11.34 0.0104195
11.35 0.00973039
11.36 0.00868581
11.37 0.0073557
11.38 0.00581759
11.39 0.00415356
11.4 0.00245067
11.41 0.000802186
11.42 -0.000716366
11.43 -0.00203887
11.44 -0.00311001
11.45 -0.00388713
11.46 -0.00433339
11.47 -0.00441199
11.48 -0.00415849
11.49 -0.00359235
11.5 -0.00274615
11.51 -0.001664
11.52 -0.000399509
11.53 0.000990757
11.54 0.00242784
11.55 0.00384038
11.56 0.00516338
11.57 0.00633637
11.58 0.00730573
11.59 0.00802309
11.6 0.00842621
11.61 0.00852332
11.62 0.00830886
11.63 0.00779016
11.64 0.00698706
11.65 0.00593091
11.66 0.00465274
11.67 0.0032142
11.68 0.00168328
11.69 0.000120754
11.7 -0.00141182
11.71 -0.00285458
11.72 -0.00415129
11.73 -0.00522542
11.74 -0.00605624
11.75 -0.00661516
11.76 -0.00688475
11.77 -0.00685936
11.78 -0.00654522
11.79 -0.00594681
11.8 -0.00509683
11.81 -0.00405214
11.82 -0.00286031
11.83 -0.00157425
