# xPDFsuite Configuration #
[PDF]
wavelength = 0.1
dataformat = QA
inputfile = BiMsol6_insitu_700 C-00316.xy
backgroundfile = Quartz2mm-dist500-00000.xy
mode = xray
bgscale = 0.0042
composition = Bi2Fe4O9
outputtype = gr
qmaxinst = 24.998449118
qmin = 0.1
qmax = 21.4986662415
rmax = 80.0
rmin = 0.0
rstep = 0.01
rpoly = 0.9

[Misc]
inputdir = C:/Data/Seafile/CPH/Beamtime/Desy Oct 20/In situ data/Processed/BiMsol6/PDF
savedir = C:/Data/Seafile/CPH/Beamtime/Desy Oct 20/In situ data/PDF/BiMsol6
backgroundfilefull = C:/Data/Seafile/CPH/Beamtime/Desy Oct 20/In situ data/Processed/Standard_Empty_Cap/Quartz2mm-dist500-00000.xy

#### start data
#S 1
#L r($\AA$)  G($\AA^{-2}$)
0 0
0.01 0.00638225
0.02 0.0124029
0.03 0.0177526
0.04 0.0221539
0.05 0.0253739
0.06 0.0272353
0.07 0.0275446
0.08 0.026246
0.09 0.0234835
0.1 0.0193758
0.11 0.0141067
0.12 0.00791676
0.13 0.00109284
0.14 -0.00604201
0.15 -0.0130835
0.16 -0.0196902
0.17 -0.0255422
0.18 -0.0303534
0.19 -0.033885
0.2 -0.0358926
0.21 -0.0362108
0.22 -0.034941
0.23 -0.0321532
0.24 -0.0279958
0.25 -0.022691
0.26 -0.0165262
0.27 -0.0098303
0.28 -0.00306993
0.29 0.00333914
0.3 0.00899341
0.31 0.0135102
0.32 0.0165463
0.33 0.0177549
0.34 0.0167977
0.35 0.0137339
0.36 0.0085667
0.37 0.00140491
0.38 -0.00753539
0.39 -0.017934
0.4 -0.0294181
0.41 -0.0413558
0.42 -0.0531277
0.43 -0.0641034
0.44 -0.0736315
0.45 -0.0810636
0.46 -0.0857138
0.47 -0.0866977
0.48 -0.0838288
0.49 -0.0767518
0.5 -0.0652364
0.51 -0.049192
0.52 -0.0286774
0.53 -0.00362562
0.54 0.0253959
0.55 0.0576412
0.56 0.0924174
0.57 0.128915
0.58 0.166229
0.59 0.203375
0.6 0.239095
0.61 0.272406
0.62 0.302317
0.63 0.3279
0.64 0.348319
0.65 0.362859
0.66 0.370522
0.67 0.370904
0.68 0.364188
0.69 0.350381
0.7 0.329682
0.71 0.302472
0.72 0.269309
0.73 0.230405
0.74 0.187303
0.75 0.141005
0.76 0.0925747
0.77 0.0431144
0.78 -0.006263
0.79 -0.0543549
0.8 -0.0999511
0.81 -0.142225
0.82 -0.180381
0.83 -0.213765
0.84 -0.241879
0.85 -0.264397
0.86 -0.28057
0.87 -0.290973
0.88 -0.295918
0.89 -0.295789
0.9 -0.29111
0.91 -0.282514
0.92 -0.270631
0.93 -0.256274
0.94 -0.240504
0.95 -0.224141
0.96 -0.207974
0.97 -0.192737
0.98 -0.179087
0.99 -0.167824
1 -0.159278
1.01 -0.153685
1.02 -0.151204
1.03 -0.151866
1.04 -0.155579
1.05 -0.162211
1.06 -0.171556
1.07 -0.182957
1.08 -0.195945
1.09 -0.210015
1.1 -0.224647
1.11 -0.239323
1.12 -0.253478
1.13 -0.266637
1.14 -0.278447
1.15 -0.288617
1.16 -0.296936
1.17 -0.303283
1.18 -0.30759
1.19 -0.309769
1.2 -0.310173
1.21 -0.309022
1.22 -0.30659
1.23 -0.30319
1.24 -0.299158
1.25 -0.294841
1.26 -0.290625
1.27 -0.28682
1.28 -0.283683
1.29 -0.28142
1.3 -0.280175
1.31 -0.280032
1.32 -0.281112
1.33 -0.283214
1.34 -0.286205
1.35 -0.289892
1.36 -0.294045
1.37 -0.298398
1.38 -0.302649
1.39 -0.306467
1.4 -0.309591
1.41 -0.311781
1.42 -0.312835
1.43 -0.312604
1.44 -0.310997
1.45 -0.307832
1.46 -0.303317
1.47 -0.297582
1.48 -0.290811
1.49 -0.283243
1.5 -0.275162
1.51 -0.266891
1.52 -0.25882
1.53 -0.2513
1.54 -0.244656
1.55 -0.239187
1.56 -0.23515
1.57 -0.232749
1.58 -0.232308
1.59 -0.233741
1.6 -0.236989
1.61 -0.241947
1.62 -0.248434
1.63 -0.2562
1.64 -0.264953
1.65 -0.274301
1.66 -0.283762
1.67 -0.292907
1.68 -0.301307
1.69 -0.308543
1.7 -0.314226
1.71 -0.317814
1.72 -0.319114
1.73 -0.31798
1.74 -0.314292
1.75 -0.308014
1.76 -0.299197
1.77 -0.287921
1.78 -0.274297
1.79 -0.258852
1.8 -0.241954
1.81 -0.224018
1.82 -0.205491
1.83 -0.186838
1.84 -0.168586
1.85 -0.151224
1.86 -0.135139
1.87 -0.120684
1.88 -0.108151
1.89 -0.0977595
1.9 -0.0896836
1.91 -0.0841836
1.92 -0.0809759
1.93 -0.0799332
1.94 -0.0808555
1.95 -0.0834785
1.96 -0.0874852
1.97 -0.0925611
1.98 -0.0982476
1.99 -0.104105
2 -0.109752
2.01 -0.114834
2.02 -0.119033
2.03 -0.122079
2.04 -0.123601
2.05 -0.123621
2.06 -0.122098
2.07 -0.119067
2.08 -0.114636
2.09 -0.108984
2.1 -0.102312
2.11 -0.0949626
2.12 -0.087335
2.13 -0.0797948
2.14 -0.0727172
2.15 -0.0664722
2.16 -0.0614108
2.17 -0.0580462
2.18 -0.0565154
2.19 -0.0570081
2.2 -0.0596602
2.21 -0.0645375
2.22 -0.071633
2.23 -0.0809577
2.24 -0.0923831
2.25 -0.105528
2.26 -0.120111
2.27 -0.135806
2.28 -0.152257
2.29 -0.169088
2.3 -0.185881
2.31 -0.202223
2.32 -0.217772
2.33 -0.232217
2.34 -0.245295
2.35 -0.256795
2.36 -0.266502
2.37 -0.274236
2.38 -0.280137
2.39 -0.284262
2.4 -0.286724
2.41 -0.287693
2.42 -0.28738
2.43 -0.285971
2.44 -0.283834
2.45 -0.281293
2.46 -0.278637
2.47 -0.276149
2.48 -0.27409
2.49 -0.272711
2.5 -0.27229
2.51 -0.272899
2.52 -0.274631
2.53 -0.277528
2.54 -0.281585
2.55 -0.286749
2.56 -0.29299
2.57 -0.300114
2.58 -0.30791
2.59 -0.316182
2.6 -0.324725
2.61 -0.333326
2.62 -0.341772
2.63 -0.34981
2.64 -0.357284
2.65 -0.364043
2.66 -0.369965
2.67 -0.374959
2.68 -0.378964
2.69 -0.381887
2.7 -0.38375
2.71 -0.384639
2.72 -0.384613
2.73 -0.383744
2.74 -0.382117
2.75 -0.379821
2.76 -0.376884
2.77 -0.373461
2.78 -0.369618
2.79 -0.365401
2.8 -0.360839
2.81 -0.355939
2.82 -0.350665
2.83 -0.344969
2.84 -0.338812
2.85 -0.332119
2.86 -0.324803
2.87 -0.316771
2.88 -0.307931
2.89 -0.298087
2.9 -0.287244
2.91 -0.275353
2.92 -0.262378
2.93 -0.248307
2.94 -0.233156
2.95 -0.21693
2.96 -0.199689
2.97 -0.18162
2.98 -0.162858
2.99 -0.143562
3 -0.123906
3.01 -0.104078
3.02 -0.0842904
3.03 -0.064755
3.04 -0.0456524
3.05 -0.027149
3.06 -0.00939064
3.07 0.00750276
3.08 0.0234084
3.09 0.0382119
3.1 0.0519825
3.11 0.0647416
3.12 0.0765445
3.13 0.087477
3.14 0.0976529
3.15 0.107169
3.16 0.116234
3.17 0.125033
3.18 0.133735
3.19 0.142507
3.2 0.151502
3.21 0.160869
3.22 0.170774
3.23 0.181262
3.24 0.192386
3.25 0.204165
3.26 0.216587
3.27 0.229608
3.28 0.243184
3.29 0.257176
3.3 0.271433
3.31 0.285805
3.32 0.300133
3.33 0.314251
3.34 0.327991
3.35 0.341126
3.36 0.353558
3.37 0.365167
3.38 0.375853
3.39 0.385547
3.4 0.394203
3.41 0.401743
3.42 0.408198
3.43 0.413675
3.44 0.41825
3.45 0.42202
3.46 0.425098
3.47 0.427611
3.48 0.429657
3.49 0.431432
3.5 0.433068
3.51 0.434683
3.52 0.436384
3.53 0.438258
3.54 0.440388
3.55 0.442825
3.56 0.445566
3.57 0.448604
3.58 0.451905
3.59 0.455418
3.6 0.459075
3.61 0.462787
3.62 0.466447
3.63 0.469953
3.64 0.473206
3.65 0.476111
3.66 0.478583
3.67 0.480521
3.68 0.48184
3.69 0.482541
3.7 0.482605
3.71 0.482031
3.72 0.480837
3.73 0.47906
3.74 0.476705
3.75 0.473883
3.76 0.470682
3.77 0.467179
3.78 0.463456
3.79 0.459589
3.8 0.45565
3.81 0.451703
3.82 0.447799
3.83 0.443962
3.84 0.440204
3.85 0.436513
3.86 0.432864
3.87 0.429203
3.88 0.425458
3.89 0.42155
3.9 0.417386
3.91 0.412868
3.92 0.407892
3.93 0.402342
3.94 0.396053
3.95 0.38899
3.96 0.381074
3.97 0.372237
3.98 0.36243
3.99 0.35162
4 0.339721
4.01 0.326769
4.02 0.312842
4.03 0.297987
4.04 0.282268
4.05 0.265766
4.06 0.248565
4.07 0.230718
4.08 0.212406
4.09 0.193739
4.1 0.174827
4.11 0.155777
4.12 0.136689
4.13 0.117669
4.14 0.0988131
4.15 0.0801914
4.16 0.0618675
4.17 0.0438947
4.18 0.0263168
4.19 0.00916856
4.2 -0.00746895
4.21 -0.0236241
4.22 -0.0392842
4.23 -0.0544375
4.24 -0.0690739
4.25 -0.0831836
4.26 -0.0967288
4.27 -0.109685
4.28 -0.122073
4.29 -0.133875
4.3 -0.145073
4.31 -0.155645
4.32 -0.165569
4.33 -0.174756
4.34 -0.183242
4.35 -0.191025
4.36 -0.198095
4.37 -0.204451
4.38 -0.210097
4.39 -0.215023
4.4 -0.219232
4.41 -0.222813
4.42 -0.225813
4.43 -0.228288
4.44 -0.2303
4.45 -0.231921
4.46 -0.233203
4.47 -0.234256
4.48 -0.235166
4.49 -0.23601
4.5 -0.236861
4.51 -0.237784
4.52 -0.238843
4.53 -0.240098
4.54 -0.241569
4.55 -0.243273
4.56 -0.245214
4.57 -0.247383
4.58 -0.249756
4.59 -0.252306
4.6 -0.254972
4.61 -0.25769
4.62 -0.260394
4.63 -0.263017
4.64 -0.265488
4.65 -0.267735
4.66 -0.269661
4.67 -0.271234
4.68 -0.27241
4.69 -0.273152
4.7 -0.273439
4.71 -0.273264
4.72 -0.272603
4.73 -0.271493
4.74 -0.269993
4.75 -0.268157
4.76 -0.266046
4.77 -0.263734
4.78 -0.261301
4.79 -0.258838
4.8 -0.256444
4.81 -0.254207
4.82 -0.252209
4.83 -0.250528
4.84 -0.249233
4.85 -0.248413
4.86 -0.248122
4.87 -0.248367
4.88 -0.249164
4.89 -0.25052
4.9 -0.252425
4.91 -0.254858
4.92 -0.257835
4.93 -0.261251
4.94 -0.265047
4.95 -0.269158
4.96 -0.273512
4.97 -0.278035
4.98 -0.28265
4.99 -0.287266
5 -0.2918
5.01 -0.296179
5.02 -0.300331
5.03 -0.304189
5.04 -0.307692
5.05 -0.310738
5.06 -0.313308
5.07 -0.315366
5.08 -0.316877
5.09 -0.317811
5.1 -0.318143
5.11 -0.317831
5.12 -0.316828
5.13 -0.315175
5.14 -0.312866
5.15 -0.309897
5.16 -0.306267
5.17 -0.301977
5.18 -0.296972
5.19 -0.291299
5.2 -0.284983
5.21 -0.278032
5.22 -0.270457
5.23 -0.262268
5.24 -0.253463
5.25 -0.244015
5.26 -0.233994
5.27 -0.223414
5.28 -0.212288
5.29 -0.20063
5.3 -0.188453
5.31 -0.175732
5.32 -0.162501
5.33 -0.14879
5.34 -0.134612
5.35 -0.119976
5.36 -0.104895
5.37 -0.0893731
5.38 -0.073388
5.39 -0.0569998
5.4 -0.040227
5.41 -0.0230928
5.42 -0.00562527
5.43 0.0121408
5.44 0.0301766
5.45 0.0484185
5.46 0.0667908
5.47 0.0852204
5.48 0.103624
5.49 0.121906
5.5 0.139962
5.51 0.157625
5.52 0.174798
5.53 0.191349
5.54 0.207141
5.55 0.222037
5.56 0.235896
5.57 0.248512
5.58 0.259727
5.59 0.269496
5.6 0.277716
5.61 0.284298
5.62 0.28917
5.63 0.292282
5.64 0.293414
5.65 0.292743
5.66 0.290312
5.67 0.286174
5.68 0.280404
5.69 0.2731
5.7 0.264325
5.71 0.2542
5.72 0.24298
5.73 0.230831
5.74 0.217921
5.75 0.204423
5.76 0.190506
5.77 0.176326
5.78 0.162069
5.79 0.147877
5.8 0.133869
5.81 0.120143
5.82 0.10678
5.83 0.0938525
5.84 0.0814215
5.85 0.0694619
5.86 0.057966
5.87 0.0469104
5.88 0.0362587
5.89 0.0259653
5.9 0.0160007
5.91 0.00628901
5.92 -0.00322807
5.93 -0.0125919
5.94 -0.0218331
5.95 -0.0309683
5.96 -0.0399951
5.97 -0.0488819
5.98 -0.0575967
5.99 -0.0660782
6 -0.074247
6.01 -0.0820077
6.02 -0.0892507
6.03 -0.0957985
6.04 -0.101527
6.05 -0.106336
6.06 -0.110098
6.07 -0.112697
6.08 -0.114029
6.09 -0.11399
6.1 -0.112373
6.11 -0.109289
6.12 -0.104731
6.13 -0.0987219
6.14 -0.0913123
6.15 -0.0825838
6.16 -0.0725776
6.17 -0.0614662
6.18 -0.0494769
6.19 -0.036791
6.2 -0.0236033
6.21 -0.010116
6.22 0.00346566
6.23 0.0169044
6.24 0.0300037
6.25 0.0425883
6.26 0.0545028
6.27 0.065615
6.28 0.0758196
6.29 0.084986
6.3 0.0930546
6.31 0.100083
6.32 0.106095
6.33 0.111143
6.34 0.115305
6.35 0.11868
6.36 0.12133
6.37 0.123466
6.38 0.125238
6.39 0.126791
6.4 0.128268
6.41 0.129804
6.42 0.131536
6.43 0.133599
6.44 0.136063
6.45 0.138994
6.46 0.142437
6.47 0.146413
6.48 0.150923
6.49 0.155991
6.5 0.161535
6.51 0.167484
6.52 0.173769
6.53 0.18031
6.54 0.187024
6.55 0.193827
6.56 0.200627
6.57 0.207344
6.58 0.213914
6.59 0.220284
6.6 0.226416
6.61 0.232286
6.62 0.237861
6.63 0.243163
6.64 0.248221
6.65 0.25307
6.66 0.257749
6.67 0.262305
6.68 0.266788
6.69 0.271254
6.7 0.275752
6.71 0.280323
6.72 0.284993
6.73 0.289782
6.74 0.29469
6.75 0.299714
6.76 0.304815
6.77 0.309942
6.78 0.315033
6.79 0.320012
6.8 0.324793
6.81 0.329275
6.82 0.333302
6.83 0.336803
6.84 0.33967
6.85 0.341799
6.86 0.343094
6.87 0.343466
6.88 0.342772
6.89 0.340946
6.9 0.338
6.91 0.333903
6.92 0.328644
6.93 0.322223
6.94 0.314658
6.95 0.305857
6.96 0.295995
6.97 0.285128
6.98 0.273321
6.99 0.26064
7 0.247157
7.01 0.23291
7.02 0.217968
7.03 0.202445
7.04 0.186404
7.05 0.169898
7.06 0.15298
7.07 0.135693
7.08 0.118045
7.09 0.100103
7.1 0.0819016
7.11 0.0634682
7.12 0.0448307
7.13 0.0260184
7.14 0.00705944
7.15 -0.0120077
7.16 -0.0311281
7.17 -0.0502504
7.18 -0.0693157
7.19 -0.0882574
7.2 -0.107001
7.21 -0.125431
7.22 -0.143469
7.23 -0.161028
7.24 -0.178015
7.25 -0.194335
7.26 -0.209896
7.27 -0.224585
7.28 -0.238256
7.29 -0.250918
7.3 -0.262517
7.31 -0.27301
7.32 -0.282372
7.33 -0.290593
7.34 -0.297592
7.35 -0.303448
7.36 -0.308246
7.37 -0.312047
7.38 -0.314922
7.39 -0.316955
7.4 -0.318228
7.41 -0.318797
7.42 -0.318838
7.43 -0.318455
7.44 -0.317745
7.45 -0.316803
7.46 -0.315714
7.47 -0.314553
7.48 -0.313392
7.49 -0.312282
7.5 -0.311255
7.51 -0.310328
7.52 -0.309506
7.53 -0.308781
7.54 -0.308135
7.55 -0.307523
7.56 -0.306902
7.57 -0.306222
7.58 -0.305431
7.59 -0.304473
7.6 -0.303276
7.61 -0.301781
7.62 -0.299954
7.63 -0.297755
7.64 -0.295151
7.65 -0.292119
7.66 -0.288642
7.67 -0.284666
7.68 -0.280244
7.69 -0.275394
7.7 -0.270138
7.71 -0.264508
7.72 -0.258538
7.73 -0.252258
7.74 -0.245712
7.75 -0.238966
7.76 -0.232068
7.77 -0.225063
7.78 -0.217995
7.79 -0.210905
7.8 -0.203839
7.81 -0.196834
7.82 -0.189919
7.83 -0.183122
7.84 -0.176468
7.85 -0.169978
7.86 -0.163678
7.87 -0.157595
7.88 -0.151729
7.89 -0.146095
7.9 -0.140707
7.91 -0.135576
7.92 -0.130718
7.93 -0.126173
7.94 -0.121937
7.95 -0.118017
7.96 -0.114426
7.97 -0.111175
7.98 -0.108276
7.99 -0.105747
8 -0.103618
8.01 -0.101861
8.02 -0.100474
8.03 -0.099454
8.04 -0.0987931
8.05 -0.0984802
8.06 -0.0985253
8.07 -0.098894
8.08 -0.0995521
8.09 -0.100476
8.1 -0.101641
8.11 -0.10302
8.12 -0.10459
8.13 -0.106339
8.14 -0.108222
8.15 -0.110219
8.16 -0.112311
8.17 -0.114482
8.18 -0.116717
8.19 -0.119008
8.2 -0.121345
8.21 -0.123716
8.22 -0.126114
8.23 -0.128532
8.24 -0.13096
8.25 -0.133387
8.26 -0.135792
8.27 -0.138154
8.28 -0.140446
8.29 -0.142634
8.3 -0.144676
8.31 -0.146526
8.32 -0.14811
8.33 -0.149356
8.34 -0.15021
8.35 -0.150602
8.36 -0.150455
8.37 -0.149695
8.38 -0.148245
8.39 -0.145944
8.4 -0.142798
8.41 -0.138754
8.42 -0.133765
8.43 -0.127796
8.44 -0.120824
8.45 -0.112794
8.46 -0.103689
8.47 -0.0936062
8.48 -0.0825864
8.49 -0.0706837
8.5 -0.0579653
8.51 -0.0445098
8.52 -0.0303507
8.53 -0.0156462
8.54 -0.000508499
8.55 0.0149612
8.56 0.0306633
8.57 0.0465023
8.58 0.0623884
8.59 0.0782307
8.6 0.0939606
8.61 0.109525
8.62 0.124884
8.63 0.140011
8.64 0.154892
8.65 0.169506
8.66 0.18388
8.67 0.198042
8.68 0.212021
8.69 0.225847
8.7 0.239553
8.71 0.253166
8.72 0.266711
8.73 0.280209
8.74 0.293666
8.75 0.307073
8.76 0.320408
8.77 0.333632
8.78 0.346675
8.79 0.359462
8.8 0.371912
8.81 0.383925
8.82 0.395391
8.83 0.40619
8.84 0.416188
8.85 0.425156
8.86 0.433057
8.87 0.439772
8.88 0.445191
8.89 0.449218
8.9 0.451771
8.91 0.452679
8.92 0.451914
8.93 0.449536
8.94 0.445544
8.95 0.439961
8.96 0.432827
8.97 0.4242
8.98 0.414004
8.99 0.402504
9 0.389804
9.01 0.376018
9.02 0.36126
9.03 0.345649
9.04 0.329268
9.05 0.31224
9.06 0.294713
9.07 0.276782
9.08 0.258531
9.09 0.240032
9.1 0.221347
9.11 0.202517
9.12 0.183599
9.13 0.164623
9.14 0.145613
9.15 0.126589
9.16 0.10757
9.17 0.088576
9.18 0.0696348
9.19 0.0507735
9.2 0.0320297
9.21 0.0134499
9.22 -0.0049086
9.23 -0.0229775
9.24 -0.0406334
9.25 -0.0578017
9.26 -0.074389
9.27 -0.0902864
9.28 -0.10538
9.29 -0.119554
9.3 -0.132657
9.31 -0.144499
9.32 -0.155067
9.33 -0.16427
9.34 -0.172027
9.35 -0.178276
9.36 -0.182969
9.37 -0.185944
9.38 -0.187282
9.39 -0.187052
9.4 -0.185293
9.41 -0.182065
9.42 -0.177442
9.43 -0.171491
9.44 -0.164238
9.45 -0.155925
9.46 -0.14667
9.47 -0.136599
9.48 -0.125834
9.49 -0.114495
9.5 -0.102666
9.51 -0.0904802
9.52 -0.0780448
9.53 -0.0654372
9.54 -0.0527213
9.55 -0.0399476
9.56 -0.0271539
9.57 -0.0143688
9.58 -0.00160714
9.59 0.0111251
9.6 0.0238269
9.61 0.0365001
9.62 0.0491459
9.63 0.0617608
9.64 0.0743364
9.65 0.0868576
9.66 0.0992983
9.67 0.111621
9.68 0.123777
9.69 0.135706
9.7 0.147291
9.71 0.158475
9.72 0.169165
9.73 0.179263
9.74 0.188666
9.75 0.197273
9.76 0.204934
9.77 0.211527
9.78 0.217033
9.79 0.221383
9.8 0.224525
9.81 0.226425
9.82 0.227067
9.83 0.226329
9.84 0.224358
9.85 0.221222
9.86 0.216991
9.87 0.211755
9.88 0.205617
9.89 0.198668
9.9 0.191027
9.91 0.182885
9.92 0.174376
9.93 0.165631
9.94 0.156774
9.95 0.147922
9.96 0.139194
9.97 0.130681
9.98 0.122447
9.99 0.11454
10 0.106991
10.01 0.0998117
10.02 0.0930063
10.03 0.0865676
10.04 0.0804236
10.05 0.0745231
10.06 0.0688062
10.07 0.0632078
10.08 0.0576607
10.09 0.0520917
10.1 0.0464319
10.11 0.0406288
10.12 0.0346384
10.13 0.0284287
10.14 0.0219802
10.15 0.015283
10.16 0.00832936
10.17 0.00116904
10.18 -0.00615989
10.19 -0.0136086
10.2 -0.0211191
10.21 -0.028627
10.22 -0.036053
10.23 -0.0433186
10.24 -0.050359
10.25 -0.0571099
10.26 -0.0635138
10.27 -0.069522
10.28 -0.0750928
10.29 -0.0801506
10.3 -0.0847336
10.31 -0.0888442
10.32 -0.0924975
10.33 -0.0957206
10.34 -0.0985509
10.35 -0.101018
10.36 -0.103186
10.37 -0.105135
10.38 -0.106927
10.39 -0.108625
10.4 -0.110289
10.41 -0.111976
10.42 -0.113748
10.43 -0.115642
10.44 -0.11769
10.45 -0.119913
10.46 -0.122321
10.47 -0.124918
10.48 -0.127701
10.49 -0.130655
10.5 -0.13374
10.51 -0.136926
10.52 -0.140177
10.53 -0.143455
10.54 -0.146723
10.55 -0.149934
10.56 -0.153056
10.57 -0.15606
10.58 -0.158925
10.59 -0.161633
10.6 -0.164173
10.61 -0.166538
10.62 -0.168725
10.63 -0.170759
10.64 -0.172657
10.65 -0.17444
10.66 -0.17613
10.67 -0.177754
10.68 -0.179335
10.69 -0.180903
10.7 -0.182479
10.71 -0.184082
10.72 -0.185725
10.73 -0.187414
10.74 -0.189153
10.75 -0.190942
10.76 -0.192765
10.77 -0.194608
10.78 -0.196454
10.79 -0.19828
10.8 -0.200066
10.81 -0.20178
10.82 -0.203402
10.83 -0.204914
10.84 -0.206301
10.85 -0.207552
10.86 -0.20866
10.87 -0.209623
10.88 -0.210436
10.89 -0.211125
10.9 -0.211707
10.91 -0.212204
10.92 -0.21264
10.93 -0.213043
10.94 -0.213441
10.95 -0.213864
10.96 -0.214335
10.97 -0.214873
10.98 -0.21549
10.99 -0.216193
11 -0.216979
11.01 -0.217844
11.02 -0.218757
11.03 -0.219686
11.04 -0.220592
11.05 -0.221427
11.06 -0.222139
11.07 -0.222653
11.08 -0.222896
11.09 -0.222816
11.1 -0.222348
11.11 -0.221434
11.12 -0.220017
11.13 -0.21805
11.14 -0.215425
11.15 -0.212172
11.16 -0.208283
11.17 -0.203756
11.18 -0.198602
11.19 -0.192846
11.2 -0.186501
11.21 -0.179612
11.22 -0.17228
11.23 -0.164577
11.24 -0.156578
11.25 -0.148365
11.26 -0.140023
11.27 -0.131637
11.28 -0.123302
11.29 -0.115093
11.3 -0.107078
11.31 -0.0993153
11.32 -0.0918541
11.33 -0.0847445
11.34 -0.0780303
11.35 -0.0716925
11.36 -0.0657278
11.37 -0.0601212
11.38 -0.0548467
11.39 -0.0498683
11.4 -0.0451593
11.41 -0.0406464
11.42 -0.0362655
11.43 -0.0319566
11.44 -0.0276594
11.45 -0.0233142
11.46 -0.0188603
11.47 -0.0142279
11.48 -0.0093822
11.49 -0.00428423
11.5 0.00109743
11.51 0.00678653
11.52 0.0127989
11.53 0.0191684
11.54 0.0258822
11.55 0.0329195
11.56 0.0402669
11.57 0.0479062
11.58 0.0558157
11.59 0.0639734
11.6 0.0723695
11.61 0.0809517
11.62 0.0896931
11.63 0.0985673
11.64 0.10755
11.65 0.116618
11.66 0.125752
11.67 0.134931
11.68 0.144133
11.69 0.153342
11.7 0.162543
11.71 0.171721
11.72 0.180859
11.73 0.189933
11.74 0.198928
11.75 0.207822
11.76 0.216592
11.77 0.22521
11.78 0.233648
11.79 0.241857
11.8 0.249795
11.81 0.257435
11.82 0.264736
11.83 0.271657
11.84 0.278153
11.85 0.284183
11.86 0.289645
11.87 0.294545
11.88 0.298851
11.89 0.302529
11.9 0.305552
11.91 0.307893
11.92 0.309502
11.93 0.310342
11.94 0.310457
11.95 0.309845
11.96 0.308508
11.97 0.306454
11.98 0.303695
11.99 0.30018
12 0.295986
12.01 0.291147
12.02 0.285688
12.03 0.279636
12.04 0.273017
12.05 0.265841
12.06 0.258117
12.07 0.249917
12.08 0.24127
12.09 0.232207
12.1 0.222757
12.11 0.212953
12.12 0.202802
12.13 0.192362
12.14 0.181678
12.15 0.170791
12.16 0.159743
12.17 0.14858
12.18 0.137348
12.19 0.126106
12.2 0.114914
