# xPDFsuite Configuration #
[PDF]
wavelength = 0.1
dataformat = QA
inputfile = BiMsol6_insitu_700 C-00721.xy
backgroundfile = Quartz2mm-dist500-00000.xy
mode = xray
bgscale = 0.0042
composition = Bi2Fe4O9
outputtype = gr
qmaxinst = 24.998449118
qmin = 0.1
qmax = 21.4986662415
rmax = 80.0
rmin = 0.0
rstep = 0.01
rpoly = 0.9

[Misc]
inputdir = C:/Data/Seafile/CPH/Beamtime/Desy Oct 20/In situ data/Processed/BiMsol6/PDF
savedir = C:/Data/Seafile/CPH/Beamtime/Desy Oct 20/In situ data/PDF/BiMsol6
backgroundfilefull = C:/Data/Seafile/CPH/Beamtime/Desy Oct 20/In situ data/Processed/Standard_Empty_Cap/Quartz2mm-dist500-00000.xy

#### start data
#S 1
#L r($\AA$)  G($\AA^{-2}$)
0 0
0.01 0.0065688
0.02 0.0127677
0.03 0.0182801
0.04 0.0228219
0.05 0.0261542
0.06 0.0280948
0.07 0.0284443
0.08 0.0271436
0.09 0.0243384
0.1 0.0201479
0.11 0.0147578
0.12 0.00841196
0.13 0.00140176
0.14 -0.00594614
0.15 -0.0132178
0.16 -0.0200642
0.17 -0.0261576
0.18 -0.031204
0.19 -0.0349567
0.2 -0.0371624
0.21 -0.0376466
0.22 -0.0365063
0.23 -0.0338063
0.24 -0.0296908
0.25 -0.0243789
0.26 -0.0181564
0.27 -0.0113471
0.28 -0.00442267
0.29 0.00219716
0.3 0.00810486
0.31 0.0129124
0.32 0.0162702
0.33 0.0178242
0.34 0.0172274
0.35 0.0145275
0.36 0.00971758
0.37 0.0028961
0.38 -0.00573173
0.39 -0.0158567
0.4 -0.0271218
0.41 -0.0389048
0.42 -0.0505946
0.43 -0.0615704
0.44 -0.0711894
0.45 -0.0788107
0.46 -0.0837573
0.47 -0.0851586
0.48 -0.082821
0.49 -0.0763902
0.5 -0.0656353
0.51 -0.0504628
0.52 -0.0309266
0.53 -0.00695887
0.54 0.020887
0.55 0.0518819
0.56 0.0853476
0.57 0.120491
0.58 0.156427
0.59 0.19219
0.6 0.226548
0.61 0.258541
0.62 0.2872
0.63 0.311622
0.64 0.330992
0.65 0.344615
0.66 0.351524
0.67 0.351334
0.68 0.344232
0.69 0.330236
0.7 0.309551
0.71 0.282562
0.72 0.249825
0.73 0.211569
0.74 0.169305
0.75 0.124019
0.76 0.0767564
0.77 0.0285986
0.78 -0.0193654
0.79 -0.065956
0.8 -0.109994
0.81 -0.150686
0.82 -0.187266
0.83 -0.219104
0.84 -0.245731
0.85 -0.26684
0.86 -0.281717
0.87 -0.290944
0.88 -0.294842
0.89 -0.293804
0.9 -0.288355
0.91 -0.279126
0.92 -0.266748
0.93 -0.252024
0.94 -0.235992
0.95 -0.219456
0.96 -0.203186
0.97 -0.187898
0.98 -0.174227
0.99 -0.162953
1 -0.154387
1.01 -0.148747
1.02 -0.146181
1.03 -0.146709
1.04 -0.150234
1.05 -0.156619
1.06 -0.165657
1.07 -0.176701
1.08 -0.189293
1.09 -0.202939
1.1 -0.217132
1.11 -0.23137
1.12 -0.245107
1.13 -0.257885
1.14 -0.269365
1.15 -0.279267
1.16 -0.287392
1.17 -0.293622
1.18 -0.297897
1.19 -0.30013
1.2 -0.300659
1.21 -0.299694
1.22 -0.297494
1.23 -0.294352
1.24 -0.290585
1.25 -0.286511
1.26 -0.28249
1.27 -0.278808
1.28 -0.275699
1.29 -0.273349
1.3 -0.271883
1.31 -0.271372
1.32 -0.27191
1.33 -0.273314
1.34 -0.275451
1.35 -0.278143
1.36 -0.281172
1.37 -0.284296
1.38 -0.287235
1.39 -0.289695
1.4 -0.291453
1.41 -0.292303
1.42 -0.292079
1.43 -0.290666
1.44 -0.288003
1.45 -0.283957
1.46 -0.27874
1.47 -0.272498
1.48 -0.265419
1.49 -0.257742
1.5 -0.249741
1.51 -0.241728
1.52 -0.234068
1.53 -0.227064
1.54 -0.221006
1.55 -0.216146
1.56 -0.212696
1.57 -0.210813
1.58 -0.210759
1.59 -0.212409
1.6 -0.215668
1.61 -0.220399
1.62 -0.226397
1.63 -0.233398
1.64 -0.241095
1.65 -0.249092
1.66 -0.256946
1.67 -0.264262
1.68 -0.270645
1.69 -0.275726
1.7 -0.279169
1.71 -0.280494
1.72 -0.279579
1.73 -0.276342
1.74 -0.270721
1.75 -0.262738
1.76 -0.252491
1.77 -0.240108
1.78 -0.225756
1.79 -0.209943
1.8 -0.193039
1.81 -0.175443
1.82 -0.157575
1.83 -0.139856
1.84 -0.122772
1.85 -0.106724
1.86 -0.0920163
1.87 -0.0789182
1.88 -0.0676338
1.89 -0.0582952
1.9 -0.0509873
1.91 -0.0458508
1.92 -0.0425647
1.93 -0.0409466
1.94 -0.0407558
1.95 -0.0417041
1.96 -0.0434684
1.97 -0.0457125
1.98 -0.0480282
1.99 -0.0500607
2 -0.0515039
2.01 -0.0520936
2.02 -0.0516185
2.03 -0.0499252
2.04 -0.0467919
2.05 -0.042375
2.06 -0.0367648
2.07 -0.0301239
2.08 -0.022681
2.09 -0.0147233
2.1 -0.00659785
2.11 0.00126308
2.12 0.0084575
2.13 0.0145895
2.14 0.0192769
2.15 0.022166
2.16 0.0229455
2.17 0.0210785
2.18 0.0166114
2.19 0.00946668
2.2 -0.00037054
2.21 -0.0128334
2.22 -0.0277741
2.23 -0.0450568
2.24 -0.0643855
2.25 -0.0852325
2.26 -0.107183
2.27 -0.129792
2.28 -0.152597
2.29 -0.175132
2.3 -0.196834
2.31 -0.217296
2.32 -0.236166
2.33 -0.253133
2.34 -0.267952
2.35 -0.280449
2.36 -0.290445
2.37 -0.297811
2.38 -0.302827
2.39 -0.305644
2.4 -0.306475
2.41 -0.305589
2.42 -0.303298
2.43 -0.299884
2.44 -0.295818
2.45 -0.291495
2.46 -0.287269
2.47 -0.283469
2.48 -0.280391
2.49 -0.278311
2.5 -0.277527
2.51 -0.278069
2.52 -0.279997
2.53 -0.283314
2.54 -0.287962
2.55 -0.293829
2.56 -0.300818
2.57 -0.308659
2.58 -0.317069
2.59 -0.32579
2.6 -0.334559
2.61 -0.343111
2.62 -0.351188
2.63 -0.358472
2.64 -0.364829
2.65 -0.370107
2.66 -0.374198
2.67 -0.377037
2.68 -0.378608
2.69 -0.37886
2.7 -0.377893
2.71 -0.375888
2.72 -0.37299
2.73 -0.369365
2.74 -0.365198
2.75 -0.360677
2.76 -0.355998
2.77 -0.351373
2.78 -0.346965
2.79 -0.342914
2.8 -0.33933
2.81 -0.336298
2.82 -0.333899
2.83 -0.332155
2.84 -0.331005
2.85 -0.330397
2.86 -0.330256
2.87 -0.330486
2.88 -0.330975
2.89 -0.331603
2.9 -0.332217
2.91 -0.332695
2.92 -0.33292
2.93 -0.33279
2.94 -0.332216
2.95 -0.331102
2.96 -0.329375
2.97 -0.327045
2.98 -0.324101
2.99 -0.320548
3 -0.316402
3.01 -0.311688
3.02 -0.306386
3.03 -0.300567
3.04 -0.294264
3.05 -0.287487
3.06 -0.280233
3.07 -0.272484
3.08 -0.26418
3.09 -0.255223
3.1 -0.245574
3.11 -0.235134
3.12 -0.223787
3.13 -0.211406
3.14 -0.197857
3.15 -0.182885
3.16 -0.166413
3.17 -0.14837
3.18 -0.12866
3.19 -0.107212
3.2 -0.0839852
3.21 -0.0589375
3.22 -0.0319789
3.23 -0.00336586
3.24 0.0267742
3.25 0.0582725
3.26 0.0909202
3.27 0.124472
3.28 0.158673
3.29 0.193154
3.3 0.227561
3.31 0.261553
3.32 0.29479
3.33 0.326932
3.34 0.357637
3.35 0.386398
3.36 0.413103
3.37 0.437516
3.38 0.459441
3.39 0.478722
3.4 0.49525
3.41 0.508779
3.42 0.519318
3.43 0.527055
3.44 0.53206
3.45 0.534443
3.46 0.53434
3.47 0.531913
3.48 0.527116
3.49 0.520408
3.5 0.511989
3.51 0.502061
3.52 0.490815
3.53 0.478436
3.54 0.465053
3.55 0.450831
3.56 0.435963
3.57 0.420566
3.58 0.404737
3.59 0.388559
3.6 0.372101
3.61 0.355404
3.62 0.338545
3.63 0.321572
3.64 0.304532
3.65 0.287476
3.66 0.270461
3.67 0.253559
3.68 0.236868
3.69 0.220468
3.7 0.204464
3.71 0.188971
3.72 0.174116
3.73 0.160032
3.74 0.146958
3.75 0.134991
3.76 0.124251
3.77 0.114873
3.78 0.106986
3.79 0.100704
3.8 0.0961803
3.81 0.0936081
3.82 0.0928908
3.83 0.0940597
3.84 0.0971226
3.85 0.102063
3.86 0.108841
3.87 0.117535
3.88 0.127961
3.89 0.139954
3.9 0.153393
3.91 0.168146
3.92 0.184072
3.93 0.201039
3.94 0.218951
3.95 0.23756
3.96 0.256722
3.97 0.276299
3.98 0.296157
3.99 0.316174
4 0.336227
4.01 0.356195
4.02 0.375979
4.03 0.39549
4.04 0.414641
4.05 0.433354
4.06 0.451546
4.07 0.469072
4.08 0.485913
4.09 0.501992
4.1 0.517231
4.11 0.531548
4.12 0.544859
4.13 0.557008
4.14 0.567898
4.15 0.577506
4.16 0.585749
4.17 0.592547
4.18 0.597825
4.19 0.60152
4.2 0.603383
4.21 0.603549
4.22 0.601998
4.23 0.598718
4.24 0.593712
4.25 0.586999
4.26 0.578535
4.27 0.568349
4.28 0.55662
4.29 0.543426
4.3 0.528853
4.31 0.512997
4.32 0.495954
4.33 0.477724
4.34 0.45851
4.35 0.438422
4.36 0.417547
4.37 0.395965
4.38 0.373747
4.39 0.350934
4.4 0.327561
4.41 0.303711
4.42 0.279415
4.43 0.254698
4.44 0.229577
4.45 0.204071
4.46 0.178162
4.47 0.151899
4.48 0.125317
4.49 0.0984513
4.5 0.0713466
4.51 0.0440606
4.52 0.0166632
4.53 -0.0107499
4.54 -0.0380683
4.55 -0.0651781
4.56 -0.0919542
4.57 -0.118263
4.58 -0.143965
4.59 -0.168845
4.6 -0.192777
4.61 -0.215653
4.62 -0.237348
4.63 -0.257749
4.64 -0.27676
4.65 -0.294282
4.66 -0.310127
4.67 -0.324423
4.68 -0.337171
4.69 -0.348402
4.7 -0.358168
4.71 -0.366549
4.72 -0.373563
4.73 -0.379375
4.74 -0.384184
4.75 -0.388136
4.76 -0.391386
4.77 -0.394088
4.78 -0.396392
4.79 -0.398432
4.8 -0.400378
4.81 -0.402343
4.82 -0.404421
4.83 -0.406688
4.84 -0.409194
4.85 -0.411985
4.86 -0.415066
4.87 -0.4184
4.88 -0.421948
4.89 -0.425654
4.9 -0.42945
4.91 -0.433254
4.92 -0.436962
4.93 -0.440484
4.94 -0.443732
4.95 -0.446623
4.96 -0.449081
4.97 -0.45104
4.98 -0.45242
4.99 -0.453163
5 -0.453285
5.01 -0.452779
5.02 -0.45165
5.03 -0.449915
5.04 -0.4476
5.05 -0.444691
5.06 -0.441277
5.07 -0.437412
5.08 -0.43314
5.09 -0.428501
5.1 -0.423532
5.11 -0.418253
5.12 -0.412675
5.13 -0.406835
5.14 -0.400736
5.15 -0.394373
5.16 -0.387735
5.17 -0.380806
5.18 -0.373535
5.19 -0.365917
5.2 -0.357943
5.21 -0.349596
5.22 -0.34087
5.23 -0.331765
5.24 -0.322285
5.25 -0.312437
5.26 -0.302296
5.27 -0.291919
5.28 -0.281375
5.29 -0.270746
5.3 -0.260126
5.31 -0.249634
5.32 -0.239389
5.33 -0.229499
5.34 -0.220075
5.35 -0.211222
5.36 -0.20304
5.37 -0.195628
5.38 -0.189141
5.39 -0.183551
5.4 -0.17889
5.41 -0.175171
5.42 -0.172386
5.43 -0.170504
5.44 -0.16953
5.45 -0.169368
5.46 -0.16989
5.47 -0.170993
5.48 -0.172569
5.49 -0.174502
5.5 -0.176673
5.51 -0.178967
5.52 -0.181248
5.53 -0.183416
5.54 -0.185381
5.55 -0.187067
5.56 -0.188411
5.57 -0.189345
5.58 -0.189835
5.59 -0.189893
5.6 -0.189523
5.61 -0.188737
5.62 -0.18756
5.63 -0.186018
5.64 -0.184112
5.65 -0.181907
5.66 -0.179434
5.67 -0.176711
5.68 -0.173749
5.69 -0.170546
5.7 -0.167076
5.71 -0.163299
5.72 -0.159188
5.73 -0.15469
5.74 -0.14974
5.75 -0.144264
5.76 -0.138186
5.77 -0.131353
5.78 -0.123734
5.79 -0.115276
5.8 -0.105922
5.81 -0.0956316
5.82 -0.0843803
5.83 -0.072134
5.84 -0.0588696
5.85 -0.0447177
5.86 -0.0297519
5.87 -0.0140688
5.88 0.00221334
5.89 0.0189571
5.9 0.0360212
5.91 0.0532014
5.92 0.070315
5.93 0.0871873
5.94 0.103648
5.95 0.119534
5.96 0.134679
5.97 0.148878
5.98 0.162099
5.99 0.17427
6 0.185343
6.01 0.1953
6.02 0.204154
6.03 0.21187
6.04 0.218561
6.05 0.224369
6.06 0.229405
6.07 0.233797
6.08 0.237679
6.09 0.241189
6.1 0.244454
6.11 0.247636
6.12 0.250842
6.13 0.254162
6.14 0.257662
6.15 0.261382
6.16 0.265347
6.17 0.269527
6.18 0.273855
6.19 0.278249
6.2 0.282598
6.21 0.286774
6.22 0.290631
6.23 0.293932
6.24 0.296552
6.25 0.298326
6.26 0.299094
6.27 0.298709
6.28 0.297042
6.29 0.293909
6.3 0.289204
6.31 0.282975
6.32 0.275214
6.33 0.265942
6.34 0.255215
6.35 0.24312
6.36 0.229654
6.37 0.215095
6.38 0.199624
6.39 0.183422
6.4 0.166679
6.41 0.149589
6.42 0.132345
6.43 0.115156
6.44 0.098199
6.45 0.0816196
6.46 0.0655423
6.47 0.0500656
6.48 0.0352601
6.49 0.0212364
6.5 0.00795221
6.51 -0.00463092
6.52 -0.0165604
6.53 -0.0279057
6.54 -0.0387549
6.55 -0.0492019
6.56 -0.0593584
6.57 -0.0693734
6.58 -0.0793616
6.59 -0.089431
6.6 -0.0996786
6.61 -0.110186
6.62 -0.121048
6.63 -0.132293
6.64 -0.143921
6.65 -0.155924
6.66 -0.168265
6.67 -0.180887
6.68 -0.193713
6.69 -0.206638
6.7 -0.219525
6.71 -0.232245
6.72 -0.244661
6.73 -0.25663
6.74 -0.26801
6.75 -0.2786
6.76 -0.288272
6.77 -0.296943
6.78 -0.304508
6.79 -0.310877
6.8 -0.315981
6.81 -0.319752
6.82 -0.322015
6.83 -0.3229
6.84 -0.322406
6.85 -0.32055
6.86 -0.317355
6.87 -0.312859
6.88 -0.30703
6.89 -0.29993
6.9 -0.291679
6.91 -0.282327
6.92 -0.27192
6.93 -0.260501
6.94 -0.248105
6.95 -0.234659
6.96 -0.220293
6.97 -0.205025
6.98 -0.188863
6.99 -0.171812
7 -0.153874
7.01 -0.135003
7.02 -0.115181
7.03 -0.0944704
7.04 -0.0728747
7.05 -0.050405
7.06 -0.0270793
7.07 -0.00292467
7.08 0.0220989
7.09 0.0478656
7.1 0.0743021
7.11 0.101335
7.12 0.128879
7.13 0.156839
7.14 0.185117
7.15 0.213592
7.16 0.242118
7.17 0.270569
7.18 0.298817
7.19 0.32673
7.2 0.354178
7.21 0.380969
7.22 0.407002
7.23 0.432177
7.24 0.456382
7.25 0.479513
7.26 0.501474
7.27 0.52214
7.28 0.54134
7.29 0.55912
7.3 0.575417
7.31 0.59018
7.32 0.60336
7.33 0.614918
7.34 0.624684
7.35 0.632698
7.36 0.638998
7.37 0.643564
7.38 0.646381
7.39 0.647436
7.4 0.646691
7.41 0.643993
7.42 0.63952
7.43 0.633278
7.44 0.625275
7.45 0.615528
7.46 0.604058
7.47 0.590777
7.48 0.575769
7.49 0.55916
7.5 0.541005
7.51 0.52137
7.52 0.500331
7.53 0.477965
7.54 0.454251
7.55 0.429441
7.56 0.403651
7.57 0.377007
7.58 0.349642
7.59 0.321696
7.6 0.293298
7.61 0.264623
7.62 0.23585
7.63 0.207137
7.64 0.178638
7.65 0.15051
7.66 0.122904
7.67 0.0960584
7.68 0.0700567
7.69 0.0450264
7.7 0.0210896
7.71 -0.00164225
7.72 -0.0230696
7.73 -0.0430359
7.74 -0.0614286
7.75 -0.0782917
7.76 -0.093587
7.77 -0.107292
7.78 -0.119401
7.79 -0.129923
7.8 -0.13873
7.81 -0.146001
7.82 -0.151818
7.83 -0.156252
7.84 -0.159383
7.85 -0.161304
7.86 -0.162076
7.87 -0.161776
7.88 -0.160602
7.89 -0.158665
7.9 -0.156076
7.91 -0.152941
7.92 -0.149364
7.93 -0.145419
7.94 -0.141222
7.95 -0.136859
7.96 -0.132391
7.97 -0.127872
7.98 -0.123339
7.99 -0.118819
8 -0.11433
8.01 -0.109868
8.02 -0.105424
8.03 -0.100979
8.04 -0.0965076
8.05 -0.091979
8.06 -0.0873511
8.07 -0.0825901
8.08 -0.0776697
8.09 -0.0725645
8.1 -0.067256
8.11 -0.0617342
8.12 -0.0559962
8.13 -0.050038
8.14 -0.0439076
8.15 -0.0376427
8.16 -0.0312927
8.17 -0.0249172
8.18 -0.018585
8.19 -0.0123864
8.2 -0.00641287
8.21 -0.000742433
8.22 0.00454132
8.23 0.00935833
8.24 0.0136349
8.25 0.0173042
8.26 0.0202359
8.27 0.0224652
8.28 0.0239729
8.29 0.0247572
8.3 0.024834
8.31 0.0242369
8.32 0.0229857
8.33 0.0211577
8.34 0.0188748
8.35 0.0162329
8.36 0.0133359
8.37 0.0102926
8.38 0.00721352
8.39 0.00422576
8.4 0.00143256
8.41 -0.00107751
8.42 -0.00322907
8.43 -0.00496328
8.44 -0.00624023
8.45 -0.00701918
8.46 -0.00729378
8.47 -0.00712912
8.48 -0.00657739
8.49 -0.00571087
8.5 -0.0046199
8.51 -0.00341027
8.52 -0.0022126
8.53 -0.00116862
8.54 -0.00040947
8.55 -6.55148e-05
8.56 -0.000261827
8.57 -0.00111409
8.58 -0.00275381
8.59 -0.00531683
8.6 -0.00879883
8.61 -0.0132371
8.62 -0.0186452
8.63 -0.0250117
8.64 -0.0323014
8.65 -0.0405232
8.66 -0.0495336
8.67 -0.0592024
8.68 -0.0694102
8.69 -0.0800261
8.7 -0.0909119
8.71 -0.101926
8.72 -0.11291
8.73 -0.123721
8.74 -0.13424
8.75 -0.144359
8.76 -0.153986
8.77 -0.163053
8.78 -0.171461
8.79 -0.179202
8.8 -0.186303
8.81 -0.192785
8.82 -0.198687
8.83 -0.204067
8.84 -0.208991
8.85 -0.213516
8.86 -0.217779
8.87 -0.22187
8.88 -0.225879
8.89 -0.229889
8.9 -0.233973
8.91 -0.238206
8.92 -0.242634
8.93 -0.247277
8.94 -0.252138
8.95 -0.257204
8.96 -0.262445
8.97 -0.267811
8.98 -0.273234
8.99 -0.278619
9 -0.283877
9.01 -0.288908
9.02 -0.293614
9.03 -0.297896
9.04 -0.301626
9.05 -0.304702
9.06 -0.307084
9.07 -0.308719
9.08 -0.309565
9.09 -0.309601
9.1 -0.308826
9.11 -0.307176
9.12 -0.30477
9.13 -0.301674
9.14 -0.297961
9.15 -0.293717
9.16 -0.289038
9.17 -0.284017
9.18 -0.278766
9.19 -0.273416
9.2 -0.268066
9.21 -0.262811
9.22 -0.257733
9.23 -0.252905
9.24 -0.248417
9.25 -0.244291
9.26 -0.240542
9.27 -0.237176
9.28 -0.234184
9.29 -0.231543
9.3 -0.229225
9.31 -0.227193
9.32 -0.225365
9.33 -0.223681
9.34 -0.222079
9.35 -0.220498
9.36 -0.21888
9.37 -0.217162
9.38 -0.215297
9.39 -0.213255
9.4 -0.211013
9.41 -0.208555
9.42 -0.205878
9.43 -0.202985
9.44 -0.199879
9.45 -0.196603
9.46 -0.193187
9.47 -0.189664
9.48 -0.186067
9.49 -0.182427
9.5 -0.178775
9.51 -0.175136
9.52 -0.171525
9.53 -0.167949
9.54 -0.164401
9.55 -0.160868
9.56 -0.157324
9.57 -0.153722
9.58 -0.150018
9.59 -0.146156
9.6 -0.142073
9.61 -0.137703
9.62 -0.132977
9.63 -0.127794
9.64 -0.122079
9.65 -0.115794
9.66 -0.108881
9.67 -0.101293
9.68 -0.0929902
9.69 -0.0839442
9.7 -0.0740495
9.71 -0.063389
9.72 -0.0519731
9.73 -0.0398221
9.74 -0.0269662
9.75 -0.0134451
9.76 0.000723273
9.77 0.0154847
9.78 0.0307406
9.79 0.0464298
9.8 0.0624903
9.81 0.0788608
9.82 0.0954819
9.83 0.112311
9.84 0.129274
9.85 0.146318
9.86 0.163401
9.87 0.180481
9.88 0.197522
9.89 0.214486
9.9 0.231329
9.91 0.248026
9.92 0.264543
9.93 0.280843
9.94 0.296888
9.95 0.312633
9.96 0.327994
9.97 0.342935
9.98 0.357404
9.99 0.371337
10 0.384668
10.01 0.397325
10.02 0.409214
10.03 0.420205
10.04 0.430297
10.05 0.439428
10.06 0.447542
10.07 0.454594
10.08 0.460547
10.09 0.465289
10.1 0.468866
10.11 0.471332
10.12 0.472718
10.13 0.473072
10.14 0.472457
10.15 0.470942
10.16 0.46857
10.17 0.465541
10.18 0.461975
10.19 0.458002
10.2 0.453755
10.21 0.449369
10.22 0.444983
10.23 0.440742
10.24 0.436759
10.25 0.433136
10.26 0.429959
10.27 0.427297
10.28 0.425203
10.29 0.423767
10.3 0.422926
10.31 0.422659
10.32 0.422923
10.33 0.423658
10.34 0.424783
10.35 0.426212
10.36 0.427817
10.37 0.42946
10.38 0.431013
10.39 0.432346
10.4 0.433327
10.41 0.43383
10.42 0.433656
10.43 0.432753
10.44 0.431028
10.45 0.428403
10.46 0.424817
10.47 0.420223
10.48 0.414544
10.49 0.407751
10.5 0.399929
10.51 0.391104
10.52 0.38132
10.53 0.370633
10.54 0.359107
10.55 0.346747
10.56 0.333709
10.57 0.320086
10.58 0.305962
10.59 0.291419
10.6 0.276534
10.61 0.261372
10.62 0.245996
10.63 0.230483
10.64 0.214876
10.65 0.199213
10.66 0.183519
10.67 0.167814
10.68 0.152108
10.69 0.136403
10.7 0.120696
10.71 0.104978
10.72 0.0892389
10.73 0.0734664
10.74 0.0576472
10.75 0.0417662
10.76 0.0258206
10.77 0.00980746
10.78 -0.00627176
10.79 -0.0224105
10.8 -0.0385971
10.81 -0.0548148
10.82 -0.0710367
10.83 -0.0872336
10.84 -0.103374
10.85 -0.119423
10.86 -0.135345
10.87 -0.151099
10.88 -0.166626
10.89 -0.181908
10.9 -0.196912
10.91 -0.211609
10.92 -0.225971
10.93 -0.23998
10.94 -0.253591
10.95 -0.2668
10.96 -0.279621
10.97 -0.292054
10.98 -0.304103
10.99 -0.315775
11 -0.32708
11.01 -0.337994
11.02 -0.348571
11.03 -0.358825
11.04 -0.368766
11.05 -0.378406
11.06 -0.387749
11.07 -0.396782
11.08 -0.405499
11.09 -0.413909
11.1 -0.421996
11.11 -0.42974
11.12 -0.437115
11.13 -0.444088
11.14 -0.450571
11.15 -0.456563
11.16 -0.462024
11.17 -0.466906
11.18 -0.471162
11.19 -0.474745
11.2 -0.477574
11.21 -0.479581
11.22 -0.48078
11.23 -0.481137
11.24 -0.480624
11.25 -0.479223
11.26 -0.476918
11.27 -0.473616
11.28 -0.469393
11.29 -0.464279
11.3 -0.458295
11.31 -0.451467
11.32 -0.443829
11.33 -0.435397
11.34 -0.426187
11.35 -0.416313
11.36 -0.405827
11.37 -0.394782
11.38 -0.383232
11.39 -0.371232
11.4 -0.358803
11.41 -0.346022
11.42 -0.332947
11.43 -0.319617
11.44 -0.306071
11.45 -0.292339
11.46 -0.278447
11.47 -0.26441
11.48 -0.250261
11.49 -0.236016
11.5 -0.221686
11.51 -0.207283
11.52 -0.192817
11.53 -0.178295
11.54 -0.163734
11.55 -0.14915
11.56 -0.134562
11.57 -0.11999
11.58 -0.105462
11.59 -0.0910091
11.6 -0.0766842
11.61 -0.0625207
11.62 -0.0485657
11.63 -0.0348702
11.64 -0.0214883
11.65 -0.00847656
11.66 0.00407529
11.67 0.016108
11.68 0.0275886
11.69 0.0384652
11.7 0.0486906
11.71 0.0582237
11.72 0.0670293
11.73 0.0749953
11.74 0.0821926
11.75 0.0886182
11.76 0.0942793
11.77 0.0991938
11.78 0.10339
11.79 0.106871
11.8 0.109687
11.81 0.111937
11.82 0.113682
11.83 0.114989
11.84 0.115928
11.85 0.116566
11.86 0.116955
11.87 0.117187
11.88 0.117322
11.89 0.117409
11.9 0.117491
11.91 0.117596
11.92 0.117748
11.93 0.117954
11.94 0.118203
11.95 0.118475
11.96 0.118736
11.97 0.118946
11.98 0.11905
11.99 0.118965
12 0.118627
12.01 0.117966
12.02 0.116906
12.03 0.11537
12.04 0.113282
12.05 0.11055
12.06 0.107062
12.07 0.102816
12.08 0.0977635
12.09 0.0918668
12.1 0.0850987
12.11 0.0774434
12.12 0.0688208
12.13 0.05929
12.14 0.0489005
12.15 0.0376846
12.16 0.0256841
12.17 0.0129496
