# xPDFsuite Configuration #
[PDF]
wavelength = 0.1
dataformat = QA
inputfile = BiMsol6_insitu_700 C-00010.xy
backgroundfile = Quartz2mm-dist500-00000.xy
mode = xray
bgscale = 0.0042
composition = Bi2Fe4O9
outputtype = gr
qmaxinst = 24.998449118
qmin = 0.1
qmax = 21.4986662415
rmax = 80.0
rmin = 0.0
rstep = 0.01
rpoly = 0.9

[Misc]
inputdir = C:/Data/Seafile/CPH/Beamtime/Desy Oct 20/In situ data/Processed/BiMsol6/PDF
savedir = C:/Data/Seafile/CPH/Beamtime/Desy Oct 20/In situ data/PDF/BiMsol6
backgroundfilefull = C:/Data/Seafile/CPH/Beamtime/Desy Oct 20/In situ data/Processed/Standard_Empty_Cap/Quartz2mm-dist500-00000.xy

#### start data
#S 1
#L r($\AA$)  G($\AA^{-2}$)
0 0
0.01 0.00710151
0.02 0.0138093
0.03 0.0197862
0.04 0.0247295
0.05 0.0283848
0.06 0.0305576
0.07 0.0310344
0.08 0.0297514
0.09 0.0268625
0.1 0.0224933
0.11 0.01684
0.12 0.010161
0.13 0.00276487
0.14 -0.00500296
0.15 -0.0127017
0.16 -0.0199599
0.17 -0.0264288
0.18 -0.0317944
0.19 -0.0357928
0.2 -0.0381524
0.21 -0.0386844
0.22 -0.0374878
0.23 -0.0346272
0.24 -0.0302514
0.25 -0.0245886
0.26 -0.0179376
0.27 -0.0106347
0.28 -0.00317825
0.29 0.003989
0.3 0.0104371
0.31 0.0157558
0.32 0.0195745
0.33 0.021518
0.34 0.021217
0.35 0.018715
0.36 0.0139988
0.37 0.00716552
0.38 -0.00157593
0.39 -0.0119079
0.4 -0.0234655
0.41 -0.0356026
0.42 -0.0476843
0.43 -0.0590666
0.44 -0.0690821
0.45 -0.0770656
0.46 -0.0823149
0.47 -0.08393
0.48 -0.0817061
0.49 -0.0752767
0.5 -0.0644032
0.51 -0.0489904
0.52 -0.0290961
0.53 -0.00465564
0.54 0.0237558
0.55 0.0553824
0.56 0.0895194
0.57 0.125344
0.58 0.16194
0.59 0.198307
0.6 0.23317
0.61 0.265545
0.62 0.294437
0.63 0.318921
0.64 0.338166
0.65 0.351468
0.66 0.357847
0.67 0.356924
0.68 0.348914
0.69 0.333857
0.7 0.311986
0.71 0.28372
0.72 0.249654
0.73 0.210063
0.74 0.166505
0.75 0.120011
0.76 0.0716651
0.77 0.022588
0.78 -0.0261001
0.79 -0.073182
0.8 -0.117455
0.81 -0.158134
0.82 -0.194454
0.83 -0.225798
0.84 -0.251714
0.85 -0.271924
0.86 -0.285739
0.87 -0.2938
0.88 -0.296476
0.89 -0.294211
0.9 -0.287576
0.91 -0.277252
0.92 -0.26392
0.93 -0.248433
0.94 -0.231849
0.95 -0.214991
0.96 -0.198642
0.97 -0.183519
0.98 -0.170247
0.99 -0.159603
1 -0.151849
1.01 -0.147156
1.02 -0.145622
1.03 -0.147215
1.04 -0.15178
1.05 -0.159117
1.06 -0.168944
1.07 -0.180569
1.08 -0.193487
1.09 -0.207164
1.1 -0.221063
1.11 -0.234665
1.12 -0.24739
1.13 -0.258804
1.14 -0.268608
1.15 -0.276557
1.16 -0.282499
1.17 -0.286379
1.18 -0.2882
1.19 -0.28796
1.2 -0.286085
1.21 -0.282864
1.22 -0.278633
1.23 -0.273759
1.24 -0.268623
1.25 -0.263634
1.26 -0.259186
1.27 -0.255572
1.28 -0.253035
1.29 -0.251754
1.3 -0.251832
1.31 -0.253303
1.32 -0.256238
1.33 -0.260336
1.34 -0.265382
1.35 -0.271108
1.36 -0.277201
1.37 -0.283319
1.38 -0.289071
1.39 -0.294055
1.4 -0.297975
1.41 -0.300553
1.42 -0.301565
1.43 -0.300851
1.44 -0.298324
1.45 -0.293782
1.46 -0.287514
1.47 -0.279701
1.48 -0.270588
1.49 -0.26048
1.5 -0.249734
1.51 -0.238754
1.52 -0.228018
1.53 -0.217957
1.54 -0.208967
1.55 -0.20141
1.56 -0.195599
1.57 -0.191781
1.58 -0.190358
1.59 -0.191227
1.6 -0.194328
1.61 -0.199547
1.62 -0.20668
1.63 -0.215444
1.64 -0.225516
1.65 -0.236453
1.66 -0.24769
1.67 -0.258735
1.68 -0.269094
1.69 -0.278284
1.7 -0.285853
1.71 -0.291182
1.72 -0.29403
1.73 -0.294209
1.74 -0.291562
1.75 -0.286026
1.76 -0.277633
1.77 -0.266441
1.78 -0.252541
1.79 -0.236494
1.8 -0.218682
1.81 -0.199538
1.82 -0.179529
1.83 -0.159144
1.84 -0.138918
1.85 -0.119377
1.86 -0.100937
1.87 -0.0839731
1.88 -0.0687908
1.89 -0.0556222
1.9 -0.0446495
1.91 -0.0361278
1.92 -0.0297865
1.93 -0.0254973
1.94 -0.0230575
1.95 -0.0221998
1.96 -0.0226051
1.97 -0.0239509
1.98 -0.0257849
1.99 -0.0276823
2 -0.0292763
2.01 -0.0302314
2.02 -0.0302581
2.03 -0.0291194
2.04 -0.0264956
2.05 -0.0224565
2.06 -0.0170157
2.07 -0.0102667
2.08 -0.00237987
2.09 0.00640377
2.1 0.0157937
2.11 0.0253764
2.12 0.034721
2.13 0.0434129
2.14 0.0510357
2.15 0.0571879
2.16 0.0614981
2.17 0.0633721
2.18 0.062749
2.19 0.0594658
2.2 0.0534218
2.21 0.0445998
2.22 0.0330671
2.23 0.0188696
2.24 0.00222208
2.25 -0.016374
2.26 -0.0365391
2.27 -0.0578477
2.28 -0.0798417
2.29 -0.102045
2.3 -0.123908
2.31 -0.144939
2.32 -0.164719
2.33 -0.182869
2.34 -0.199065
2.35 -0.21305
2.36 -0.224554
2.37 -0.233345
2.38 -0.239616
2.39 -0.243439
2.4 -0.244955
2.41 -0.244371
2.42 -0.241949
2.43 -0.237896
2.44 -0.232687
2.45 -0.226733
2.46 -0.220403
2.47 -0.214058
2.48 -0.208037
2.49 -0.202669
2.5 -0.198316
2.51 -0.195115
2.52 -0.193216
2.53 -0.19271
2.54 -0.193631
2.55 -0.195953
2.56 -0.199692
2.57 -0.204652
2.58 -0.210602
2.59 -0.217338
2.6 -0.224633
2.61 -0.232246
2.62 -0.239936
2.63 -0.247423
2.64 -0.254491
2.65 -0.260948
2.66 -0.266633
2.67 -0.271417
2.68 -0.27521
2.69 -0.277887
2.7 -0.27945
2.71 -0.279979
2.72 -0.279532
2.73 -0.278193
2.74 -0.276067
2.75 -0.273271
2.76 -0.269887
2.77 -0.266121
2.78 -0.262098
2.79 -0.257934
2.8 -0.253731
2.81 -0.249575
2.82 -0.245537
2.83 -0.24167
2.84 -0.237981
2.85 -0.23447
2.86 -0.231118
2.87 -0.22789
2.88 -0.224741
2.89 -0.221615
2.9 -0.218449
2.91 -0.215185
2.92 -0.211776
2.93 -0.208178
2.94 -0.20436
2.95 -0.200295
2.96 -0.19597
2.97 -0.191416
2.98 -0.186657
2.99 -0.18173
3 -0.176679
3.01 -0.171553
3.02 -0.16641
3.03 -0.161308
3.04 -0.156292
3.05 -0.1514
3.06 -0.146657
3.07 -0.142075
3.08 -0.137654
3.09 -0.133375
3.1 -0.129183
3.11 -0.125022
3.12 -0.120818
3.13 -0.116489
3.14 -0.111943
3.15 -0.107046
3.16 -0.101704
3.17 -0.0958336
3.18 -0.0893475
3.19 -0.0821702
3.2 -0.0742411
3.21 -0.0654999
3.22 -0.0558604
3.23 -0.0454028
3.24 -0.0341506
3.25 -0.0221478
3.26 -0.00945689
3.27 0.00384364
3.28 0.0176926
3.29 0.0319582
3.3 0.0465118
3.31 0.0612471
3.32 0.0760626
3.33 0.0908658
3.34 0.105575
3.35 0.120105
3.36 0.134428
3.37 0.148524
3.38 0.162394
3.39 0.176059
3.4 0.18956
3.41 0.202953
3.42 0.216321
3.43 0.229751
3.44 0.243331
3.45 0.257143
3.46 0.271268
3.47 0.285771
3.48 0.30076
3.49 0.316215
3.5 0.332137
3.51 0.348499
3.52 0.365249
3.53 0.382305
3.54 0.399557
3.55 0.416846
3.56 0.433993
3.57 0.450815
3.58 0.46711
3.59 0.482672
3.6 0.497291
3.61 0.510615
3.62 0.522536
3.63 0.532887
3.64 0.541513
3.65 0.548282
3.66 0.553092
3.67 0.555793
3.68 0.556276
3.69 0.55471
3.7 0.55114
3.71 0.545646
3.72 0.538338
3.73 0.529353
3.74 0.518728
3.75 0.506768
3.76 0.493705
3.77 0.479735
3.78 0.465062
3.79 0.449879
3.8 0.434371
3.81 0.418723
3.82 0.403113
3.83 0.387673
3.84 0.372512
3.85 0.357719
3.86 0.343358
3.87 0.329514
3.88 0.316186
3.89 0.303358
3.9 0.291016
3.91 0.279132
3.92 0.267671
3.93 0.256596
3.94 0.245887
3.95 0.23546
3.96 0.225276
3.97 0.215299
3.98 0.205497
3.99 0.195849
4 0.186347
4.01 0.176978
4.02 0.167736
4.03 0.158623
4.04 0.149648
4.05 0.140818
4.06 0.132145
4.07 0.123655
4.08 0.115334
4.09 0.107183
4.1 0.099197
4.11 0.091366
4.12 0.0836748
4.13 0.0761086
4.14 0.0686384
4.15 0.0612298
4.16 0.0538538
4.17 0.0464826
4.18 0.0390906
4.19 0.0316567
4.2 0.024159
4.21 0.0165977
4.22 0.00897763
4.23 0.00131362
4.24 -0.00636915
4.25 -0.0140353
4.26 -0.0216338
4.27 -0.0291001
4.28 -0.0363769
4.29 -0.0433983
4.3 -0.0500966
4.31 -0.0564053
4.32 -0.0622613
4.33 -0.0675512
4.34 -0.0722689
4.35 -0.07639
4.36 -0.079896
4.37 -0.0827838
4.38 -0.0850665
4.39 -0.0867537
4.4 -0.0878778
4.41 -0.0885482
4.42 -0.0888419
4.43 -0.0888465
4.44 -0.0886568
4.45 -0.0883722
4.46 -0.0881025
4.47 -0.0879559
4.48 -0.0880212
4.49 -0.0883774
4.5 -0.0890902
4.51 -0.0902099
4.52 -0.0917811
4.53 -0.0938454
4.54 -0.0963518
4.55 -0.0992699
4.56 -0.102552
4.57 -0.106132
4.58 -0.109934
4.59 -0.113869
4.6 -0.117822
4.61 -0.121686
4.62 -0.125359
4.63 -0.128746
4.64 -0.131757
4.65 -0.134308
4.66 -0.136283
4.67 -0.13769
4.68 -0.138503
4.69 -0.138717
4.7 -0.138348
4.71 -0.137428
4.72 -0.135978
4.73 -0.134084
4.74 -0.131852
4.75 -0.129371
4.76 -0.126738
4.77 -0.124048
4.78 -0.121401
4.79 -0.11891
4.8 -0.116652
4.81 -0.114695
4.82 -0.113098
4.83 -0.111901
4.84 -0.111132
4.85 -0.110826
4.86 -0.110975
4.87 -0.111531
4.88 -0.112457
4.89 -0.113706
4.9 -0.115225
4.91 -0.116953
4.92 -0.118837
4.93 -0.120793
4.94 -0.122761
4.95 -0.124689
4.96 -0.126532
4.97 -0.128252
4.98 -0.129816
4.99 -0.131204
5 -0.132425
5.01 -0.133485
5.02 -0.134402
5.03 -0.1352
5.04 -0.135906
5.05 -0.136551
5.06 -0.137176
5.07 -0.137814
5.08 -0.138494
5.09 -0.139237
5.1 -0.140061
5.11 -0.140977
5.12 -0.141987
5.13 -0.143073
5.14 -0.144216
5.15 -0.145389
5.16 -0.14656
5.17 -0.147693
5.18 -0.148736
5.19 -0.149651
5.2 -0.1504
5.21 -0.150952
5.22 -0.151276
5.23 -0.151355
5.24 -0.151168
5.25 -0.150696
5.26 -0.149974
5.27 -0.14902
5.28 -0.147864
5.29 -0.146541
5.3 -0.145091
5.31 -0.143559
5.32 -0.142002
5.33 -0.140468
5.34 -0.139
5.35 -0.137636
5.36 -0.136404
5.37 -0.135327
5.38 -0.134428
5.39 -0.133685
5.4 -0.13308
5.41 -0.132584
5.42 -0.132157
5.43 -0.13175
5.44 -0.131302
5.45 -0.130744
5.46 -0.130014
5.47 -0.129054
5.48 -0.127806
5.49 -0.126222
5.5 -0.124264
5.51 -0.121858
5.52 -0.11904
5.53 -0.115818
5.54 -0.112214
5.55 -0.108268
5.56 -0.104032
5.57 -0.0995666
5.58 -0.0949598
5.59 -0.0903119
5.6 -0.0857133
5.61 -0.0812548
5.62 -0.0770237
5.63 -0.0731002
5.64 -0.0696009
5.65 -0.0665466
5.66 -0.063968
5.67 -0.0618804
5.68 -0.0602788
5.69 -0.0591373
5.7 -0.0584252
5.71 -0.0580755
5.72 -0.0579721
5.73 -0.0580156
5.74 -0.0580967
5.75 -0.0581003
5.76 -0.0579102
5.77 -0.0573727
5.78 -0.0563962
5.79 -0.0548975
5.8 -0.0528042
5.81 -0.0500639
5.82 -0.0466468
5.83 -0.0425254
5.84 -0.0376918
5.85 -0.0322545
5.86 -0.0262878
5.87 -0.0198868
5.88 -0.0131642
5.89 -0.00624647
5.9 0.000723229
5.91 0.00758402
5.92 0.0141966
5.93 0.0204306
5.94 0.0261681
5.95 0.031308
5.96 0.035754
5.97 0.0393927
5.98 0.0422682
5.99 0.0443865
6 0.0457818
6.01 0.0465152
6.02 0.0466724
6.03 0.0463358
6.04 0.0456661
6.05 0.0448237
6.06 0.0439569
6.07 0.0432148
6.08 0.0427418
6.09 0.0426785
6.1 0.0432067
6.11 0.0443744
6.12 0.0462505
6.13 0.048877
6.14 0.0522667
6.15 0.0564032
6.16 0.0612807
6.17 0.0668033
6.18 0.0728298
6.19 0.0792355
6.2 0.0858802
6.21 0.0926131
6.22 0.099278
6.23 0.105675
6.24 0.11167
6.25 0.117129
6.26 0.121934
6.27 0.125991
6.28 0.129231
6.29 0.131565
6.3 0.132969
6.31 0.133521
6.32 0.133271
6.33 0.13229
6.34 0.130675
6.35 0.128538
6.36 0.125978
6.37 0.123179
6.38 0.120284
6.39 0.117426
6.4 0.114726
6.41 0.112297
6.42 0.110249
6.43 0.108677
6.44 0.107593
6.45 0.107016
6.46 0.106938
6.47 0.107329
6.48 0.108135
6.49 0.109308
6.5 0.110722
6.51 0.112265
6.52 0.113829
6.53 0.115303
6.54 0.116581
6.55 0.11755
6.56 0.118092
6.57 0.118166
6.58 0.117726
6.59 0.116744
6.6 0.115214
6.61 0.113155
6.62 0.110567
6.63 0.107544
6.64 0.104178
6.65 0.100561
6.66 0.0967914
6.67 0.0929716
6.68 0.0892076
6.69 0.0856213
6.7 0.0822921
6.71 0.0792931
6.72 0.076681
6.73 0.0744942
6.74 0.0727507
6.75 0.0714782
6.76 0.070635
6.77 0.070154
6.78 0.0699716
6.79 0.0700103
6.8 0.0701824
6.81 0.0703934
6.82 0.0705299
6.83 0.0704972
6.84 0.07021
6.85 0.0695946
6.86 0.0685917
6.87 0.0671591
6.88 0.0652461
6.89 0.0628556
6.9 0.0600366
6.91 0.0568326
6.92 0.0533048
6.93 0.0495296
6.94 0.0455961
6.95 0.0416063
6.96 0.0376789
6.97 0.033915
6.98 0.0304101
6.99 0.0272499
7 0.0245066
7.01 0.0222616
7.02 0.0205613
7.03 0.0193825
7.04 0.0187115
7.05 0.0185126
7.06 0.0187291
7.07 0.0192855
7.08 0.0201044
7.09 0.0210462
7.1 0.0219927
7.11 0.0228264
7.12 0.0234317
7.13 0.0236994
7.14 0.0235109
7.15 0.0227543
7.16 0.0214067
7.17 0.0194323
7.18 0.0168198
7.19 0.013583
7.2 0.00976079
7.21 0.00537629
7.22 0.000563986
7.23 -0.0045536
7.24 -0.00985194
7.25 -0.015196
7.26 -0.0204451
7.27 -0.0254468
7.28 -0.0300236
7.29 -0.0340741
7.3 -0.0374886
7.31 -0.0401766
7.32 -0.0420694
7.33 -0.0431233
7.34 -0.0432519
7.35 -0.0425092
7.36 -0.0409693
7.37 -0.0386998
7.38 -0.035791
7.39 -0.0323523
7.4 -0.0285039
7.41 -0.0243776
7.42 -0.0201543
7.43 -0.0159771
7.44 -0.0119846
7.45 -0.00830574
7.46 -0.00505662
7.47 -0.00237901
7.48 -0.000347695
7.49 0.00101208
7.5 0.00167301
7.51 0.00163148
7.52 0.000906897
7.53 -0.000463166
7.54 -0.0024702
7.55 -0.00496293
7.56 -0.00784827
7.57 -0.0110249
7.58 -0.014387
7.59 -0.0178287
7.6 -0.02124
7.61 -0.0245123
7.62 -0.0275661
7.63 -0.0303336
7.64 -0.0327623
7.65 -0.0348167
7.66 -0.0364784
7.67 -0.0377039
7.68 -0.0385546
7.69 -0.0390661
7.7 -0.039284
7.71 -0.0392633
7.72 -0.0390659
7.73 -0.0387553
7.74 -0.0384064
7.75 -0.0380892
7.76 -0.037861
7.77 -0.0377713
7.78 -0.0378597
7.79 -0.0381551
7.8 -0.0386972
7.81 -0.0394699
7.82 -0.0404591
7.83 -0.0416436
7.84 -0.0429926
7.85 -0.0444677
7.86 -0.0460258
7.87 -0.0476132
7.88 -0.0491748
7.89 -0.0506628
7.9 -0.0520325
7.91 -0.0532447
7.92 -0.0542667
7.93 -0.0550528
7.94 -0.0555996
7.95 -0.0559077
7.96 -0.0559801
7.97 -0.0558278
7.98 -0.0554684
7.99 -0.0549211
8 -0.0542068
8.01 -0.0533718
8.02 -0.0524465
8.03 -0.0514598
8.04 -0.0504377
8.05 -0.0494027
8.06 -0.0483733
8.07 -0.047362
8.08 -0.0463728
8.09 -0.0454049
8.1 -0.0444522
8.11 -0.0435046
8.12 -0.0425487
8.13 -0.0415657
8.14 -0.0405419
8.15 -0.0394645
8.16 -0.0383238
8.17 -0.0371146
8.18 -0.0358374
8.19 -0.0344961
8.2 -0.0331089
8.21 -0.0317019
8.22 -0.0303043
8.23 -0.0289517
8.24 -0.0276837
8.25 -0.0265438
8.26 -0.0256004
8.27 -0.0248807
8.28 -0.0244238
8.29 -0.0242633
8.3 -0.024425
8.31 -0.0249251
8.32 -0.0257879
8.33 -0.0270047
8.34 -0.0285308
8.35 -0.0303294
8.36 -0.032351
8.37 -0.0345344
8.38 -0.036808
8.39 -0.0390838
8.4 -0.0412658
8.41 -0.0432647
8.42 -0.0449922
8.43 -0.0463635
8.44 -0.0473008
8.45 -0.0477105
8.46 -0.0475158
8.47 -0.046717
8.48 -0.0452941
8.49 -0.0432456
8.5 -0.0405881
8.51 -0.0373566
8.52 -0.0335595
8.53 -0.0293173
8.54 -0.024726
8.55 -0.0198826
8.56 -0.0148915
8.57 -0.00986156
8.58 -0.00490865
8.59 -0.000162044
8.6 0.00428782
8.61 0.00835358
8.62 0.0119612
8.63 0.0150523
8.64 0.0175856
8.65 0.0194878
8.66 0.0207913
8.67 0.0215336
8.68 0.0217523
8.69 0.0215004
8.7 0.0208445
8.71 0.0198562
8.72 0.0186151
8.73 0.0172402
8.74 0.0158209
8.75 0.0144433
8.76 0.013187
8.77 0.012122
8.78 0.0113293
8.79 0.0108482
8.8 0.0106934
8.81 0.0108747
8.82 0.011386
8.83 0.0122066
8.84 0.0133051
8.85 0.0146501
8.86 0.0161566
8.87 0.0177617
8.88 0.0194
8.89 0.021006
8.9 0.0225174
8.91 0.0238646
8.92 0.0249954
8.93 0.0258835
8.94 0.0265061
8.95 0.0268533
8.96 0.0269287
8.97 0.0267484
8.98 0.0263192
8.99 0.0257118
9 0.0249757
9.01 0.0241661
9.02 0.023341
9.03 0.0225589
9.04 0.021884
9.05 0.021375
9.06 0.0210659
9.07 0.0209873
9.08 0.0211579
9.09 0.0215838
9.1 0.0222583
9.11 0.023182
9.12 0.0242953
9.13 0.0255497
9.14 0.0268905
9.15 0.0282569
9.16 0.0295842
9.17 0.0307994
9.18 0.0318249
9.19 0.0326125
9.2 0.0331133
9.21 0.0332891
9.22 0.0331141
9.23 0.0325762
9.24 0.0316447
9.25 0.0303685
9.26 0.0287904
9.27 0.0269588
9.28 0.024933
9.29 0.0227814
9.3 0.0205798
9.31 0.0184185
9.32 0.0163787
9.33 0.0145347
9.34 0.0129537
9.35 0.0116935
9.36 0.0108
9.37 0.0103401
9.38 0.0103084
9.39 0.0106874
9.4 0.0114559
9.41 0.0125771
9.42 0.014
9.43 0.0156637
9.44 0.0174959
9.45 0.0193919
9.46 0.0212652
9.47 0.0230297
9.48 0.0246024
9.49 0.0259071
9.5 0.0268485
9.51 0.0273775
9.52 0.0274738
9.53 0.0271188
9.54 0.0263113
9.55 0.0250674
9.56 0.0234172
9.57 0.0213825
9.58 0.0190724
9.59 0.0165639
9.6 0.0139419
9.61 0.011296
9.62 0.00871661
9.63 0.00630716
9.64 0.00416007
9.65 0.00233663
9.66 0.000894788
9.67 -0.000122235
9.68 -0.000687542
9.69 -0.000791562
9.7 -0.000393003
9.71 0.000425358
9.72 0.00161695
9.73 0.00312201
9.74 0.00486928
9.75 0.00677881
9.76 0.00876433
9.77 0.010725
9.78 0.0125717
9.79 0.0142251
9.8 0.0156151
9.81 0.0166828
9.82 0.0173839
9.83 0.017647
9.84 0.0174985
9.85 0.016954
9.86 0.0160408
9.87 0.0148022
9.88 0.0132956
9.89 0.0115857
9.9 0.00975892
9.91 0.00791531
9.92 0.00614232
9.93 0.00452572
9.94 0.00314622
9.95 0.00207637
9.96 0.00141684
9.97 0.00119256
9.98 0.00142248
9.99 0.00211752
10 0.00327119
10.01 0.00485973
10.02 0.00685274
10.03 0.00920561
10.04 0.0118131
10.05 0.0145942
10.06 0.0174615
10.07 0.0203239
10.08 0.0230902
10.09 0.02565
10.1 0.0279211
10.11 0.0298407
10.12 0.0313511
10.13 0.0324091
10.14 0.0329866
10.15 0.0330631
10.16 0.0326066
10.17 0.0316904
10.18 0.0303537
10.19 0.0286481
10.2 0.0266357
10.21 0.0243866
10.22 0.0219703
10.23 0.0194793
10.24 0.0169969
10.25 0.0145949
10.26 0.0123386
10.27 0.0102846
10.28 0.0084805
10.29 0.00699181
10.3 0.00580775
10.31 0.00493277
10.32 0.0043588
10.33 0.00406611
10.34 0.00402466
10.35 0.00420567
10.36 0.00455543
10.37 0.00501174
10.38 0.00552282
10.39 0.00603776
10.4 0.00650877
10.41 0.00689303
10.42 0.00713734
10.43 0.00722605
10.44 0.0071431
10.45 0.00688133
10.46 0.00644292
10.47 0.00583881
10.48 0.00508197
10.49 0.00420013
10.5 0.00323462
10.51 0.00221975
10.52 0.00119069
10.53 0.0001816
10.54 -0.000776135
10.55 -0.00164535
10.56 -0.00241069
10.57 -0.00306115
10.58 -0.00359219
10.59 -0.00400715
10.6 -0.00431703
10.61 -0.00453756
10.62 -0.00469443
10.63 -0.0048242
10.64 -0.0049595
10.65 -0.00513384
10.66 -0.00537973
10.67 -0.00572684
10.68 -0.00621341
10.69 -0.00685093
10.7 -0.00764483
10.71 -0.00859508
10.72 -0.00969233
10.73 -0.0109178
10.74 -0.0122453
10.75 -0.013637
10.76 -0.0150394
10.77 -0.0164029
10.78 -0.0176747
10.79 -0.0188016
10.8 -0.0197318
10.81 -0.0203943
10.82 -0.0207538
10.83 -0.0207892
10.84 -0.0204804
10.85 -0.0198198
10.86 -0.0188123
10.87 -0.017472
10.88 -0.0158112
10.89 -0.0139108
10.9 -0.0118303
10.91 -0.00963842
10.92 -0.0074113
10.93 -0.00522975
10.94 -0.00319125
10.95 -0.00138626
10.96 0.000116004
10.97 0.00124738
10.98 0.00195023
10.99 0.0021798
11 0.00190387
11.01 0.00105361
11.02 -0.00030503
11.03 -0.00214566
11.04 -0.00442474
11.05 -0.00708271
11.06 -0.0100456
11.07 -0.0132339
11.08 -0.0165361
11.09 -0.0198363
11.1 -0.023029
11.11 -0.0260095
11.12 -0.0286782
11.13 -0.0309429
11.14 -0.0326619
11.15 -0.0338146
11.16 -0.0343581
11.17 -0.0342642
11.18 -0.0335235
11.19 -0.0321462
11.2 -0.0301354
11.21 -0.0275342
11.22 -0.0244527
11.23 -0.0209721
11.24 -0.0171844
11.25 -0.0131894
11.26 -0.00909143
11.27 -0.0050067
11.28 -0.00104874
11.29 0.00268708
11.3 0.00611452
11.31 0.00915914
11.32 0.0117605
11.33 0.0138552
11.34 0.0153893
11.35 0.0163965
11.36 0.0168867
11.37 0.0168852
11.38 0.0164315
11.39 0.0155775
11.4 0.0143615
11.41 0.0128822
11.42 0.0112238
11.43 0.00946177
11.44 0.00766984
11.45 0.00591726
11.46 0.0042704
11.47 0.00279933
11.48 0.00153362
11.49 0.000501503
11.5 -0.000281091
11.51 -0.000810578
11.52 -0.00109522
11.53 -0.00113911
11.54 -0.000984767
11.55 -0.000679532
11.56 -0.000267118
11.57 0.000205678
11.58 0.00069121
11.59 0.00114214
11.6 0.00150403
11.61 0.00174574
11.62 0.00183913
11.63 0.00176471
11.64 0.00151235
11.65 0.0010817
11.66 0.000472228
11.67 -0.000290758
11.68 -0.00116973
11.69 -0.00212899
11.7 -0.00312782
11.71 -0.00412219
11.72 -0.00506655
11.73 -0.00590053
11.74 -0.00658993
11.75 -0.00709874
11.76 -0.00739752
11.77 -0.00746469
11.78 -0.00728747
11.79 -0.00684931
11.8 -0.00615743
11.81 -0.00524567
11.82 -0.00414125
11.83 -0.00287908
11.84 -0.00150045
