# xPDFsuite Configuration #
[PDF]
wavelength = 0.1
dataformat = QA
inputfile = BiMsol6_insitu_700 C-00532.xy
backgroundfile = Quartz2mm-dist500-00000.xy
mode = xray
bgscale = 0.0042
composition = Bi2Fe4O9
outputtype = gr
qmaxinst = 24.998449118
qmin = 0.1
qmax = 21.4986662415
rmax = 80.0
rmin = 0.0
rstep = 0.01
rpoly = 0.9

[Misc]
inputdir = C:/Data/Seafile/CPH/Beamtime/Desy Oct 20/In situ data/Processed/BiMsol6/PDF
savedir = C:/Data/Seafile/CPH/Beamtime/Desy Oct 20/In situ data/PDF/BiMsol6
backgroundfilefull = C:/Data/Seafile/CPH/Beamtime/Desy Oct 20/In situ data/Processed/Standard_Empty_Cap/Quartz2mm-dist500-00000.xy

#### start data
#S 1
#L r($\AA$)  G($\AA^{-2}$)
0 0
0.01 0.006018
0.02 0.0116926
0.03 0.01673
0.04 0.0208667
0.05 0.0238817
0.06 0.0256069
0.07 0.0258587
0.08 0.0245845
0.09 0.0219214
0.1 0.0179826
0.11 0.012943
0.12 0.00703155
0.13 0.000521013
0.14 -0.00628116
0.15 -0.0129911
0.16 -0.0192847
0.17 -0.0248583
0.18 -0.0294403
0.19 -0.0328047
0.2 -0.0347199
0.21 -0.0350297
0.22 -0.0338315
0.23 -0.0311927
0.24 -0.0272554
0.25 -0.0222315
0.26 -0.0163949
0.27 -0.0100589
0.28 -0.00366714
0.29 0.00238567
0.3 0.00771642
0.31 0.0119621
0.32 0.0147978
0.33 0.015895
0.34 0.0149341
0.35 0.0119733
0.36 0.00701735
0.37 0.000171796
0.38 -0.00835629
0.39 -0.018261
0.4 -0.0291856
0.41 -0.0405292
0.42 -0.0517031
0.43 -0.0621085
0.44 -0.0711269
0.45 -0.0781437
0.46 -0.082509
0.47 -0.083385
0.48 -0.0805986
0.49 -0.0738158
0.5 -0.0628221
0.51 -0.0475357
0.52 -0.0280171
0.53 -0.00420861
0.54 0.0233464
0.55 0.0539364
0.56 0.0869
0.57 0.121466
0.58 0.156773
0.59 0.191884
0.6 0.225603
0.61 0.256999
0.62 0.285136
0.63 0.309135
0.64 0.328206
0.65 0.341676
0.66 0.348601
0.67 0.348607
0.68 0.341871
0.69 0.32841
0.7 0.308416
0.71 0.282258
0.72 0.250468
0.73 0.213257
0.74 0.172089
0.75 0.127918
0.76 0.0817521
0.77 0.0346386
0.78 -0.0123684
0.79 -0.058129
0.8 -0.101499
0.81 -0.141699
0.82 -0.17798
0.83 -0.209725
0.84 -0.236469
0.85 -0.257904
0.86 -0.273329
0.87 -0.28329
0.88 -0.288086
0.89 -0.288084
0.9 -0.283781
0.91 -0.275776
0.92 -0.264668
0.93 -0.251223
0.94 -0.236442
0.95 -0.2211
0.96 -0.20594
0.97 -0.191652
0.98 -0.178855
0.99 -0.1683
1 -0.160297
1.01 -0.155066
1.02 -0.152758
1.03 -0.1534
1.04 -0.156907
1.05 -0.163154
1.06 -0.17195
1.07 -0.182678
1.08 -0.194901
1.09 -0.208148
1.1 -0.221932
1.11 -0.23577
1.12 -0.249138
1.13 -0.26159
1.14 -0.2728
1.15 -0.282492
1.16 -0.29047
1.17 -0.296619
1.18 -0.300874
1.19 -0.303146
1.2 -0.30376
1.21 -0.302913
1.22 -0.300852
1.23 -0.29786
1.24 -0.294238
1.25 -0.290295
1.26 -0.286377
1.27 -0.282763
1.28 -0.279681
1.29 -0.277312
1.3 -0.275782
1.31 -0.275159
1.32 -0.275538
1.33 -0.276745
1.34 -0.278654
1.35 -0.281094
1.36 -0.283856
1.37 -0.286708
1.38 -0.289376
1.39 -0.291576
1.4 -0.293093
1.41 -0.293723
1.42 -0.293308
1.43 -0.291732
1.44 -0.288936
1.45 -0.28479
1.46 -0.2795
1.47 -0.273208
1.48 -0.266101
1.49 -0.258412
1.5 -0.250411
1.51 -0.242408
1.52 -0.234765
1.53 -0.227785
1.54 -0.221755
1.55 -0.216932
1.56 -0.213528
1.57 -0.211706
1.58 -0.211735
1.59 -0.213495
1.6 -0.216899
1.61 -0.221814
1.62 -0.228044
1.63 -0.235327
1.64 -0.243364
1.65 -0.25176
1.66 -0.260069
1.67 -0.267889
1.68 -0.27482
1.69 -0.280484
1.7 -0.28453
1.71 -0.286465
1.72 -0.286146
1.73 -0.283473
1.74 -0.278365
1.75 -0.270823
1.76 -0.260929
1.77 -0.248791
1.78 -0.234551
1.79 -0.218719
1.8 -0.201656
1.81 -0.183762
1.82 -0.165459
1.83 -0.147179
1.84 -0.12941
1.85 -0.112584
1.86 -0.097032
1.87 -0.0830512
1.88 -0.0708773
1.89 -0.0606753
1.9 -0.0525657
1.91 -0.046735
1.92 -0.0428869
1.93 -0.0408677
1.94 -0.0404607
1.95 -0.0413967
1.96 -0.0433656
1.97 -0.0460518
1.98 -0.0490404
1.99 -0.051954
2 -0.054468
2.01 -0.056292
2.02 -0.0571822
2.03 -0.0569471
2.04 -0.0553217
2.05 -0.0524061
2.06 -0.0482422
2.07 -0.0429443
2.08 -0.0366948
2.09 -0.0297376
2.1 -0.0223663
2.11 -0.014976
2.12 -0.00796048
2.13 -0.00170147
2.14 0.00342381
2.15 0.00705725
2.16 0.0088737
2.17 0.00833957
2.18 0.00543744
2.19 4.73351e-05
2.2 -0.00789228
2.21 -0.0183654
2.22 -0.031278
2.23 -0.0465521
2.24 -0.063955
2.25 -0.0830073
2.26 -0.10334
2.27 -0.124546
2.28 -0.146194
2.29 -0.167843
2.3 -0.188969
2.31 -0.209148
2.32 -0.228011
2.33 -0.245229
2.34 -0.260531
2.35 -0.273709
2.36 -0.284544
2.37 -0.292861
2.38 -0.29888
2.39 -0.302699
2.4 -0.304482
2.41 -0.304452
2.42 -0.302877
2.43 -0.299987
2.44 -0.296232
2.45 -0.291993
2.46 -0.287617
2.47 -0.283434
2.48 -0.279749
2.49 -0.276855
2.5 -0.275073
2.51 -0.274486
2.52 -0.275201
2.53 -0.277266
2.54 -0.280675
2.55 -0.285365
2.56 -0.291302
2.57 -0.298264
2.58 -0.306002
2.59 -0.314293
2.6 -0.322897
2.61 -0.331567
2.62 -0.340054
2.63 -0.348061
2.64 -0.355407
2.65 -0.361915
2.66 -0.367443
2.67 -0.371884
2.68 -0.375172
2.69 -0.377205
2.7 -0.378019
2.71 -0.377734
2.72 -0.376439
2.73 -0.374249
2.74 -0.3713
2.75 -0.36774
2.76 -0.363691
2.77 -0.359378
2.78 -0.354947
2.79 -0.350535
2.8 -0.34626
2.81 -0.34222
2.82 -0.338509
2.83 -0.335182
2.84 -0.332239
2.85 -0.329674
2.86 -0.327459
2.87 -0.325549
2.88 -0.323883
2.89 -0.322398
2.9 -0.320989
2.91 -0.319571
2.92 -0.318064
2.93 -0.31639
2.94 -0.314482
2.95 -0.312265
2.96 -0.309675
2.97 -0.306701
2.98 -0.303318
2.99 -0.299513
3 -0.295276
3.01 -0.290605
3.02 -0.285454
3.03 -0.279852
3.04 -0.273796
3.05 -0.267267
3.06 -0.260235
3.07 -0.252658
3.08 -0.244456
3.09 -0.235514
3.1 -0.225795
3.11 -0.215203
3.12 -0.20363
3.13 -0.190967
3.14 -0.177101
3.15 -0.161804
3.16 -0.145036
3.17 -0.126759
3.18 -0.106914
3.19 -0.0854662
3.2 -0.0624094
3.21 -0.0377388
3.22 -0.0114144
3.23 0.0163042
3.24 0.0452722
3.25 0.0753099
3.26 0.106205
3.27 0.137714
3.28 0.169576
3.29 0.201451
3.3 0.233023
3.31 0.263987
3.32 0.294039
3.33 0.322884
3.34 0.350228
3.35 0.375617
3.36 0.398999
3.37 0.42019
3.38 0.439043
3.39 0.455452
3.4 0.469354
3.41 0.480568
3.42 0.489139
3.43 0.495271
3.44 0.499061
3.45 0.500634
3.46 0.50014
3.47 0.497747
3.48 0.493457
3.49 0.48767
3.5 0.480576
3.51 0.472354
3.52 0.463176
3.53 0.453197
3.54 0.442532
3.55 0.43131
3.56 0.41967
3.57 0.407692
3.58 0.395436
3.59 0.382949
3.6 0.370263
3.61 0.357384
3.62 0.344349
3.63 0.331173
3.64 0.317874
3.65 0.304475
3.66 0.291007
3.67 0.277517
3.68 0.264072
3.69 0.250748
3.7 0.237635
3.71 0.224837
3.72 0.212472
3.73 0.200665
3.74 0.189631
3.75 0.179477
3.76 0.170327
3.77 0.162317
3.78 0.155575
3.79 0.150218
3.8 0.146394
3.81 0.144288
3.82 0.143824
3.83 0.145038
3.84 0.147938
3.85 0.152512
3.86 0.158721
3.87 0.16663
3.88 0.176066
3.89 0.186873
3.9 0.19893
3.91 0.212107
3.92 0.226264
3.93 0.24127
3.94 0.257012
3.95 0.273269
3.96 0.289899
3.97 0.306768
3.98 0.323753
3.99 0.340736
4 0.357599
4.01 0.374235
4.02 0.390568
4.03 0.406522
4.04 0.422031
4.05 0.437032
4.06 0.451464
4.07 0.4652
4.08 0.47825
4.09 0.490558
4.1 0.502065
4.11 0.512712
4.12 0.522433
4.13 0.531097
4.14 0.538626
4.15 0.545007
4.16 0.550165
4.17 0.554032
4.18 0.55654
4.19 0.557628
4.2 0.55707
4.21 0.554981
4.22 0.551338
4.23 0.546125
4.24 0.53934
4.25 0.530996
4.26 0.521049
4.27 0.509523
4.28 0.496583
4.29 0.482304
4.3 0.466769
4.31 0.450071
4.32 0.432309
4.33 0.413499
4.34 0.393839
4.35 0.373445
4.36 0.352413
4.37 0.330834
4.38 0.308789
4.39 0.286338
4.4 0.263538
4.41 0.240468
4.42 0.217166
4.43 0.193663
4.44 0.169981
4.45 0.146137
4.46 0.122132
4.47 0.0979872
4.48 0.073721
4.49 0.0493504
4.5 0.0248987
4.51 0.000397346
4.52 -0.0241113
4.53 -0.0485644
4.54 -0.0728958
4.55 -0.0970284
4.56 -0.120874
4.57 -0.144337
4.58 -0.167313
4.59 -0.189636
4.6 -0.211206
4.61 -0.231935
4.62 -0.251718
4.63 -0.270458
4.64 -0.288069
4.65 -0.304456
4.66 -0.319451
4.67 -0.333143
4.68 -0.345519
4.69 -0.356585
4.7 -0.36637
4.71 -0.37492
4.72 -0.382228
4.73 -0.388414
4.74 -0.393636
4.75 -0.398005
4.76 -0.40164
4.77 -0.404662
4.78 -0.407193
4.79 -0.409326
4.8 -0.411223
4.81 -0.412985
4.82 -0.414697
4.83 -0.416433
4.84 -0.418248
4.85 -0.420188
4.86 -0.422276
4.87 -0.424506
4.88 -0.426861
4.89 -0.429314
4.9 -0.431824
4.91 -0.434343
4.92 -0.436802
4.93 -0.439143
4.94 -0.441305
4.95 -0.44323
4.96 -0.444865
4.97 -0.446165
4.98 -0.447069
4.99 -0.447536
5 -0.447574
5.01 -0.447173
5.02 -0.446332
5.03 -0.445056
5.04 -0.443358
5.05 -0.441215
5.06 -0.438681
5.07 -0.435782
5.08 -0.432535
5.09 -0.428951
5.1 -0.425039
5.11 -0.42079
5.12 -0.41618
5.13 -0.411223
5.14 -0.405899
5.15 -0.400182
5.16 -0.394042
5.17 -0.387447
5.18 -0.380318
5.19 -0.372651
5.2 -0.364435
5.21 -0.355653
5.22 -0.346298
5.23 -0.336375
5.24 -0.325888
5.25 -0.314841
5.26 -0.303337
5.27 -0.291444
5.28 -0.279243
5.29 -0.266831
5.3 -0.254314
5.31 -0.241818
5.32 -0.229483
5.33 -0.217432
5.34 -0.205789
5.35 -0.194672
5.36 -0.184189
5.37 -0.17445
5.38 -0.165618
5.39 -0.157672
5.4 -0.150651
5.41 -0.144572
5.42 -0.139428
5.43 -0.135192
5.44 -0.131869
5.45 -0.129365
5.46 -0.127547
5.47 -0.126315
5.48 -0.125557
5.49 -0.125159
5.5 -0.125001
5.51 -0.124968
5.52 -0.12493
5.53 -0.124787
5.54 -0.124456
5.55 -0.123869
5.56 -0.122975
5.57 -0.12172
5.58 -0.120087
5.59 -0.118106
5.6 -0.115799
5.61 -0.113201
5.62 -0.110361
5.63 -0.107332
5.64 -0.104164
5.65 -0.100934
5.66 -0.0976959
5.67 -0.0944951
5.68 -0.0913656
5.69 -0.0883277
5.7 -0.0853902
5.71 -0.0825396
5.72 -0.079735
5.73 -0.0769262
5.74 -0.0740479
5.75 -0.0710217
5.76 -0.067759
5.77 -0.0641226
5.78 -0.0600287
5.79 -0.0553886
5.8 -0.0501131
5.81 -0.0441244
5.82 -0.0373594
5.83 -0.0297453
5.84 -0.0212158
5.85 -0.0118474
5.86 -0.00167212
5.87 0.00925275
5.88 0.0208454
5.89 0.0330011
5.9 0.0456201
5.91 0.0585159
5.92 0.0715182
5.93 0.0844627
5.94 0.0971837
5.95 0.109519
5.96 0.121301
5.97 0.132324
5.98 0.142528
5.99 0.151823
6 0.160143
6.01 0.167453
6.02 0.173749
6.03 0.178983
6.04 0.183255
6.05 0.186692
6.06 0.189405
6.07 0.191522
6.08 0.193184
6.09 0.194542
6.1 0.195752
6.11 0.19699
6.12 0.198393
6.13 0.200081
6.14 0.202153
6.15 0.204684
6.16 0.207752
6.17 0.211362
6.18 0.215462
6.19 0.219993
6.2 0.224866
6.21 0.229964
6.22 0.235146
6.23 0.240222
6.24 0.245004
6.25 0.249308
6.26 0.252943
6.27 0.255728
6.28 0.25749
6.29 0.258004
6.3 0.257105
6.31 0.25477
6.32 0.250933
6.33 0.245559
6.34 0.238647
6.35 0.230233
6.36 0.220244
6.37 0.208931
6.38 0.196448
6.39 0.182953
6.4 0.168623
6.41 0.153651
6.42 0.138222
6.43 0.122557
6.44 0.106878
6.45 0.0913663
6.46 0.0761848
6.47 0.0614766
6.48 0.0473599
6.49 0.033997
6.5 0.0214031
6.51 0.00958819
6.52 -0.00145066
6.53 -0.0117431
6.54 -0.0213429
6.55 -0.0303089
6.56 -0.0387179
6.57 -0.0467286
6.58 -0.0544543
6.59 -0.0620091
6.6 -0.0695041
6.61 -0.0770421
6.62 -0.0847317
6.63 -0.0926475
6.64 -0.100835
6.65 -0.109324
6.66 -0.118121
6.67 -0.127209
6.68 -0.136554
6.69 -0.146102
6.7 -0.155744
6.71 -0.165383
6.72 -0.174907
6.73 -0.184196
6.74 -0.193126
6.75 -0.201528
6.76 -0.209275
6.77 -0.216277
6.78 -0.22243
6.79 -0.227644
6.8 -0.231843
6.81 -0.234958
6.82 -0.236834
6.83 -0.237568
6.84 -0.237156
6.85 -0.235611
6.86 -0.232959
6.87 -0.229234
6.88 -0.224424
6.89 -0.218594
6.9 -0.211856
6.91 -0.204265
6.92 -0.195873
6.93 -0.186727
6.94 -0.176869
6.95 -0.166254
6.96 -0.154984
6.97 -0.14307
6.98 -0.130516
6.99 -0.117313
7 -0.103449
7.01 -0.088868
7.02 -0.0735335
7.03 -0.0574671
7.04 -0.0406472
7.05 -0.023057
7.06 -0.00468669
7.07 0.0144643
7.08 0.0344621
7.09 0.0552087
7.1 0.076651
7.11 0.0987315
7.12 0.121377
7.13 0.144499
7.14 0.168005
7.15 0.191772
7.16 0.215643
7.17 0.239479
7.18 0.263138
7.19 0.286473
7.2 0.309336
7.21 0.331513
7.22 0.352891
7.23 0.373357
7.24 0.392791
7.25 0.411087
7.26 0.428153
7.27 0.443873
7.28 0.458094
7.29 0.470893
7.3 0.48224
7.31 0.492123
7.32 0.500541
7.33 0.507504
7.34 0.512916
7.35 0.516874
7.36 0.519461
7.37 0.520711
7.38 0.52066
7.39 0.519342
7.4 0.516765
7.41 0.512857
7.42 0.507761
7.43 0.501491
7.44 0.494052
7.45 0.485447
7.46 0.475674
7.47 0.464644
7.48 0.452375
7.49 0.438916
7.5 0.42426
7.51 0.40841
7.52 0.391372
7.53 0.373155
7.54 0.353672
7.55 0.333097
7.56 0.311488
7.57 0.28892
7.58 0.265483
7.59 0.241284
7.6 0.216417
7.61 0.191043
7.62 0.165353
7.63 0.139513
7.64 0.113697
7.65 0.0880848
7.66 0.0628609
7.67 0.0382921
7.68 0.0145137
7.69 -0.00830742
7.7 -0.030012
7.71 -0.0504554
7.72 -0.0695096
7.73 -0.0869902
7.74 -0.102767
7.75 -0.116888
7.76 -0.12932
7.77 -0.140056
7.78 -0.149111
7.79 -0.156525
7.8 -0.162209
7.81 -0.166391
7.82 -0.169202
7.83 -0.170759
7.84 -0.171192
7.85 -0.170638
7.86 -0.169214
7.87 -0.167048
7.88 -0.164346
7.89 -0.161236
7.9 -0.157841
7.91 -0.154266
7.92 -0.150607
7.93 -0.146944
7.94 -0.143344
7.95 -0.139841
7.96 -0.136458
7.97 -0.133198
7.98 -0.130048
7.99 -0.126984
8 -0.123968
8.01 -0.120945
8.02 -0.117862
8.03 -0.114666
8.04 -0.111302
8.05 -0.107723
8.06 -0.103862
8.07 -0.0996914
8.08 -0.0952035
8.09 -0.0903916
8.1 -0.0852635
8.11 -0.0798415
8.12 -0.0741596
8.13 -0.0682584
8.14 -0.06223
8.15 -0.0561514
8.16 -0.0501077
8.17 -0.0441891
8.18 -0.0384887
8.19 -0.0331263
8.2 -0.0281969
8.21 -0.0237641
8.22 -0.0198969
8.23 -0.0166511
8.24 -0.0140675
8.25 -0.0121719
8.26 -0.0110441
8.27 -0.0105867
8.28 -0.0107618
8.29 -0.0115137
8.3 -0.0127698
8.31 -0.0144428
8.32 -0.0164447
8.33 -0.0186495
8.34 -0.0209232
8.35 -0.0231483
8.36 -0.0252096
8.37 -0.0269979
8.38 -0.028413
8.39 -0.0293091
8.4 -0.0296571
8.41 -0.029412
8.42 -0.0285452
8.43 -0.0270493
8.44 -0.0249386
8.45 -0.0222254
8.46 -0.0189633
8.47 -0.0152734
8.48 -0.0112518
8.49 -0.00700736
8.5 -0.0026592
8.51 0.00166745
8.52 0.0058174
8.53 0.00966265
8.54 0.0130869
8.55 0.0159805
8.56 0.0182465
8.57 0.0198035
8.58 0.0205598
8.59 0.0204281
8.6 0.0194552
8.61 0.0176437
8.62 0.0150163
8.63 0.0116148
8.64 0.00749805
8.65 0.00269183
8.66 -0.00266854
8.67 -0.00846702
8.68 -0.0146016
8.69 -0.0209688
8.7 -0.027467
8.71 -0.0339986
8.72 -0.040461
8.73 -0.0467784
8.74 -0.0528901
8.75 -0.0587498
8.76 -0.0643273
8.77 -0.0696079
8.78 -0.0745716
8.79 -0.0792494
8.8 -0.0836859
8.81 -0.0879247
8.82 -0.0920176
8.83 -0.0960227
8.84 -0.100001
8.85 -0.104025
8.86 -0.108153
8.87 -0.112436
8.88 -0.116919
8.89 -0.121634
8.9 -0.126602
8.91 -0.131851
8.92 -0.13737
8.93 -0.143124
8.94 -0.149081
8.95 -0.155198
8.96 -0.16142
8.97 -0.167688
8.98 -0.173925
8.99 -0.180058
9 -0.186018
9.01 -0.19174
9.02 -0.197162
9.03 -0.202231
9.04 -0.20688
9.05 -0.211066
9.06 -0.214797
9.07 -0.218065
9.08 -0.220875
9.09 -0.223245
9.1 -0.225201
9.11 -0.226745
9.12 -0.227963
9.13 -0.22891
9.14 -0.22964
9.15 -0.230208
9.16 -0.230666
9.17 -0.231063
9.18 -0.231449
9.19 -0.23186
9.2 -0.232321
9.21 -0.232848
9.22 -0.233446
9.23 -0.234109
9.24 -0.234824
9.25 -0.235559
9.26 -0.236279
9.27 -0.236944
9.28 -0.237509
9.29 -0.237928
9.3 -0.238148
9.31 -0.238104
9.32 -0.237777
9.33 -0.237131
9.34 -0.23614
9.35 -0.234788
9.36 -0.233067
9.37 -0.230946
9.38 -0.228458
9.39 -0.225638
9.4 -0.222515
9.41 -0.219124
9.42 -0.215505
9.43 -0.211701
9.44 -0.20775
9.45 -0.203711
9.46 -0.199623
9.47 -0.19552
9.48 -0.191428
9.49 -0.187363
9.5 -0.183336
9.51 -0.17934
9.52 -0.175355
9.53 -0.171354
9.54 -0.167298
9.55 -0.163139
9.56 -0.158819
9.57 -0.154246
9.58 -0.149371
9.59 -0.144123
9.6 -0.138435
9.61 -0.132238
9.62 -0.125472
9.63 -0.118038
9.64 -0.109889
9.65 -0.101024
9.66 -0.0914225
9.67 -0.0810721
9.68 -0.069975
9.69 -0.0581453
9.7 -0.0455321
9.71 -0.032259
9.72 -0.0183774
9.73 -0.00394639
9.74 0.0109683
9.75 0.0262954
9.76 0.0419737
9.77 0.0579188
9.78 0.0740333
9.79 0.0902431
9.8 0.106478
9.81 0.12267
9.82 0.138761
9.83 0.154672
9.84 0.170366
9.85 0.185804
9.86 0.200951
9.87 0.215778
9.88 0.23026
9.89 0.244362
9.9 0.258049
9.91 0.271335
9.92 0.284205
9.93 0.296645
9.94 0.308641
9.95 0.320175
9.96 0.331184
9.97 0.341677
9.98 0.351644
9.99 0.36106
10 0.369901
10.01 0.378141
10.02 0.385735
10.03 0.392619
10.04 0.398825
10.05 0.404336
10.06 0.409138
10.07 0.413224
10.08 0.416591
10.09 0.419184
10.1 0.421052
10.11 0.42224
10.12 0.422775
10.13 0.422692
10.14 0.422031
10.15 0.420829
10.16 0.419107
10.17 0.416972
10.18 0.414482
10.19 0.411697
10.2 0.408676
10.21 0.405477
10.22 0.402152
10.23 0.398762
10.24 0.39536
10.25 0.391987
10.26 0.388679
10.27 0.385464
10.28 0.382367
10.29 0.379418
10.3 0.37661
10.31 0.373946
10.32 0.371421
10.33 0.369024
10.34 0.36674
10.35 0.364554
10.36 0.362437
10.37 0.360356
10.38 0.358281
10.39 0.356177
10.4 0.35401
10.41 0.351742
10.42 0.349314
10.43 0.346698
10.44 0.343851
10.45 0.340733
10.46 0.337299
10.47 0.333505
10.48 0.329286
10.49 0.324582
10.5 0.319376
10.51 0.313627
10.52 0.307292
10.53 0.300335
10.54 0.292718
10.55 0.284337
10.56 0.275224
10.57 0.26537
10.58 0.254764
10.59 0.2434
10.6 0.231284
10.61 0.218402
10.62 0.204752
10.63 0.190428
10.64 0.175475
10.65 0.159947
10.66 0.143908
10.67 0.127428
10.68 0.110559
10.69 0.0934184
10.7 0.0761018
10.71 0.0586975
10.72 0.0412931
10.73 0.0239737
10.74 0.00682683
10.75 -0.010049
10.76 -0.0266059
10.77 -0.0427899
10.78 -0.0585578
10.79 -0.0738784
10.8 -0.0887331
10.81 -0.103078
10.82 -0.116944
10.83 -0.130368
10.84 -0.143383
10.85 -0.156029
10.86 -0.168355
10.87 -0.180411
10.88 -0.192244
10.89 -0.203938
10.9 -0.215549
10.91 -0.22713
10.92 -0.238728
10.93 -0.250382
10.94 -0.262128
10.95 -0.273985
10.96 -0.285951
10.97 -0.298019
10.98 -0.310168
10.99 -0.322367
11 -0.33457
11.01 -0.346713
11.02 -0.358732
11.03 -0.370556
11.04 -0.38211
11.05 -0.393319
11.06 -0.404104
11.07 -0.414358
11.08 -0.423997
11.09 -0.432987
11.1 -0.441272
11.11 -0.448803
11.12 -0.455543
11.13 -0.461463
11.14 -0.466451
11.15 -0.470587
11.16 -0.47388
11.17 -0.476342
11.18 -0.477992
11.19 -0.478854
11.2 -0.478924
11.21 -0.478219
11.22 -0.476827
11.23 -0.474777
11.24 -0.472099
11.25 -0.468819
11.26 -0.464957
11.27 -0.460475
11.28 -0.455429
11.29 -0.449831
11.3 -0.443682
11.31 -0.436972
11.32 -0.429694
11.33 -0.421812
11.34 -0.413282
11.35 -0.404139
11.36 -0.39437
11.37 -0.383965
11.38 -0.372921
11.39 -0.361239
11.4 -0.348872
11.41 -0.335877
11.42 -0.322298
11.43 -0.308169
11.44 -0.293533
11.45 -0.278439
11.46 -0.262936
11.47 -0.247074
11.48 -0.230957
11.49 -0.214658
11.5 -0.19825
11.51 -0.181807
11.52 -0.1654
11.53 -0.149112
11.54 -0.133012
11.55 -0.117152
11.56 -0.101582
11.57 -0.0863464
11.58 -0.0714791
11.59 -0.057013
11.6 -0.0430062
11.61 -0.0294267
11.62 -0.0162776
11.63 -0.00355614
11.64 0.00874521
11.65 0.0206374
11.66 0.0321085
11.67 0.043181
11.68 0.0538892
11.69 0.0642454
11.7 0.0742598
11.71 0.0839393
11.72 0.0932866
11.73 0.102263
11.74 0.1109
11.75 0.119189
11.76 0.127116
11.77 0.134665
11.78 0.141817
11.79 0.148531
11.8 0.15478
11.81 0.160571
11.82 0.165888
11.83 0.170718
11.84 0.175049
11.85 0.178876
11.86 0.182142
11.87 0.184901
11.88 0.187167
11.89 0.188952
11.9 0.190272
11.91 0.191148
11.92 0.191581
11.93 0.191586
11.94 0.191214
11.95 0.190487
11.96 0.189419
11.97 0.188024
11.98 0.186308
11.99 0.184244
12 0.181847
12.01 0.17911
12.02 0.176012
12.03 0.172526
12.04 0.168616
12.05 0.164226
12.06 0.159279
12.07 0.153765
12.08 0.147634
12.09 0.140836
12.1 0.133322
12.11 0.125048
12.12 0.115904
12.13 0.105898
12.14 0.0950343
12.15 0.0833035
12.16 0.0707068
12.17 0.0572583
12.18 0.042968
