# xPDFsuite Configuration #
[PDF]
wavelength = 0.1
dataformat = QA
inputfile = BiMsol6_insitu_700 C-00707.xy
backgroundfile = Quartz2mm-dist500-00000.xy
mode = xray
bgscale = 0.0042
composition = Bi2Fe4O9
outputtype = gr
qmaxinst = 24.998449118
qmin = 0.1
qmax = 21.4986662415
rmax = 80.0
rmin = 0.0
rstep = 0.01
rpoly = 0.9

[Misc]
inputdir = C:/Data/Seafile/CPH/Beamtime/Desy Oct 20/In situ data/Processed/BiMsol6/PDF
savedir = C:/Data/Seafile/CPH/Beamtime/Desy Oct 20/In situ data/PDF/BiMsol6
backgroundfilefull = C:/Data/Seafile/CPH/Beamtime/Desy Oct 20/In situ data/Processed/Standard_Empty_Cap/Quartz2mm-dist500-00000.xy

#### start data
#S 1
#L r($\AA$)  G($\AA^{-2}$)
0 0
0.01 0.00644488
0.02 0.0125272
0.03 0.0179364
0.04 0.022394
0.05 0.0256658
0.06 0.0275729
0.07 0.0279194
0.08 0.0266473
0.09 0.0238988
0.1 0.0197905
0.11 0.014504
0.12 0.00827797
0.13 0.00139768
0.14 -0.0058173
0.15 -0.012961
0.16 -0.0196913
0.17 -0.0256869
0.18 -0.0306589
0.19 -0.0343653
0.2 -0.0365571
0.21 -0.0370624
0.22 -0.0359752
0.23 -0.0333579
0.24 -0.0293509
0.25 -0.0241679
0.26 -0.0180881
0.27 -0.0114275
0.28 -0.00464817
0.29 0.00183868
0.3 0.00763368
0.31 0.0123563
0.32 0.0156632
0.33 0.0172068
0.34 0.0166457
0.35 0.0140249
0.36 0.00933608
0.37 0.00267383
0.38 -0.00576242
0.39 -0.0156713
0.4 -0.0267053
0.41 -0.0382556
0.42 -0.0497241
0.43 -0.0605026
0.44 -0.0699614
0.45 -0.0774718
0.46 -0.0823693
0.47 -0.0837994
0.48 -0.0815691
0.49 -0.0753285
0.5 -0.0648479
0.51 -0.0500322
0.52 -0.0309303
0.53 -0.00747032
0.54 0.0198094
0.55 0.0501973
0.56 0.0830324
0.57 0.117541
0.58 0.152856
0.59 0.188035
0.6 0.221876
0.61 0.253432
0.62 0.281755
0.63 0.305957
0.64 0.325236
0.65 0.338909
0.66 0.346026
0.67 0.346201
0.68 0.339614
0.69 0.326275
0.7 0.30638
0.71 0.280301
0.72 0.248575
0.73 0.211419
0.74 0.170309
0.75 0.126206
0.76 0.0801295
0.77 0.0331355
0.78 -0.0137133
0.79 -0.0592675
0.8 -0.102376
0.81 -0.142261
0.82 -0.178173
0.83 -0.209499
0.84 -0.235778
0.85 -0.256715
0.86 -0.271616
0.87 -0.281046
0.88 -0.285321
0.89 -0.284825
0.9 -0.280072
0.91 -0.27168
0.92 -0.260268
0.93 -0.246622
0.94 -0.231749
0.95 -0.216432
0.96 -0.20142
0.97 -0.187404
0.98 -0.174999
0.99 -0.164957
1 -0.157567
1.01 -0.153027
1.02 -0.151465
1.03 -0.152886
1.04 -0.157177
1.05 -0.16418
1.06 -0.173669
1.07 -0.184998
1.08 -0.197705
1.09 -0.21129
1.1 -0.225245
1.11 -0.239071
1.12 -0.252211
1.13 -0.264223
1.14 -0.274788
1.15 -0.283637
1.16 -0.290588
1.17 -0.295545
1.18 -0.298466
1.19 -0.299289
1.2 -0.298386
1.21 -0.295997
1.22 -0.292407
1.23 -0.287943
1.24 -0.282948
1.25 -0.277783
1.26 -0.272833
1.27 -0.268404
1.28 -0.264751
1.29 -0.262076
1.3 -0.260518
1.31 -0.260156
1.32 -0.261112
1.33 -0.26317
1.34 -0.266186
1.35 -0.269964
1.36 -0.274265
1.37 -0.278817
1.38 -0.283311
1.39 -0.287411
1.4 -0.290844
1.41 -0.293363
1.42 -0.294756
1.43 -0.294866
1.44 -0.293589
1.45 -0.29073
1.46 -0.286484
1.47 -0.280968
1.48 -0.274349
1.49 -0.266853
1.5 -0.258745
1.51 -0.250328
1.52 -0.241972
1.53 -0.234022
1.54 -0.226794
1.55 -0.220576
1.56 -0.215621
1.57 -0.212129
1.58 -0.210414
1.59 -0.21041
1.6 -0.212076
1.61 -0.215324
1.62 -0.219997
1.63 -0.225873
1.64 -0.232691
1.65 -0.240099
1.66 -0.247657
1.67 -0.254976
1.68 -0.261664
1.69 -0.267345
1.7 -0.271663
1.71 -0.274133
1.72 -0.274578
1.73 -0.272865
1.74 -0.268887
1.75 -0.262612
1.76 -0.254086
1.77 -0.24338
1.78 -0.230596
1.79 -0.2162
1.8 -0.200514
1.81 -0.183904
1.82 -0.166759
1.83 -0.149478
1.84 -0.132511
1.85 -0.116271
1.86 -0.101082
1.87 -0.0872312
1.88 -0.0749496
1.89 -0.0644031
1.9 -0.0557156
1.91 -0.0490681
1.92 -0.0442058
1.93 -0.0409971
1.94 -0.0392519
1.95 -0.0387305
1.96 -0.0391553
1.97 -0.0402441
1.98 -0.041624
1.99 -0.0429562
2 -0.0439518
2.01 -0.0443547
2.02 -0.0439537
2.03 -0.0425876
2.04 -0.0400408
2.05 -0.0364156
2.06 -0.0317707
2.07 -0.0262317
2.08 -0.0199873
2.09 -0.0132824
2.1 -0.00641902
2.11 0.000218938
2.12 0.00626883
2.13 0.0113699
2.14 0.0151701
2.15 0.01734
2.16 0.017586
2.17 0.0154039
2.18 0.0108222
2.19 0.00375656
2.2 -0.00582032
2.21 -0.0178599
2.22 -0.0322381
2.23 -0.0488432
2.24 -0.0674134
2.25 -0.087462
2.26 -0.108608
2.27 -0.13044
2.28 -0.152524
2.29 -0.174425
2.3 -0.195614
2.31 -0.215697
2.32 -0.234332
2.33 -0.251213
2.34 -0.266095
2.35 -0.2788
2.36 -0.289139
2.37 -0.296972
2.38 -0.302545
2.39 -0.305983
2.4 -0.307473
2.41 -0.307253
2.42 -0.305607
2.43 -0.302781
2.44 -0.299219
2.45 -0.295293
2.46 -0.291339
2.47 -0.287669
2.48 -0.284566
2.49 -0.282299
2.5 -0.281154
2.51 -0.281181
2.52 -0.282451
2.53 -0.284983
2.54 -0.288737
2.55 -0.293623
2.56 -0.299569
2.57 -0.306337
2.58 -0.313675
2.59 -0.321354
2.6 -0.329138
2.61 -0.336789
2.62 -0.344074
2.63 -0.350712
2.64 -0.356572
2.65 -0.361518
2.66 -0.36545
2.67 -0.368309
2.68 -0.370079
2.69 -0.370719
2.7 -0.370318
2.71 -0.369035
2.72 -0.367001
2.73 -0.364367
2.74 -0.361295
2.75 -0.357955
2.76 -0.354521
2.77 -0.351175
2.78 -0.348053
2.79 -0.345272
2.8 -0.342919
2.81 -0.341053
2.82 -0.339731
2.83 -0.338949
2.84 -0.338636
2.85 -0.338724
2.86 -0.339124
2.87 -0.339731
2.88 -0.340425
2.89 -0.341063
2.9 -0.341509
2.91 -0.341643
2.92 -0.341357
2.93 -0.340554
2.94 -0.33916
2.95 -0.337088
2.96 -0.334282
2.97 -0.330782
2.98 -0.326601
2.99 -0.321767
3 -0.316324
3.01 -0.310322
3.02 -0.303776
3.03 -0.296782
3.04 -0.289399
3.05 -0.281662
3.06 -0.273588
3.07 -0.265178
3.08 -0.256394
3.09 -0.247159
3.1 -0.237427
3.11 -0.227097
3.12 -0.21605
3.13 -0.204151
3.14 -0.191253
3.15 -0.177091
3.16 -0.161556
3.17 -0.144545
3.18 -0.12593
3.19 -0.10561
3.2 -0.0835096
3.21 -0.0595527
3.22 -0.033607
3.23 -0.0059028
3.24 0.02346
3.25 0.054336
3.26 0.086535
3.27 0.119825
3.28 0.153974
3.29 0.188606
3.3 0.223352
3.31 0.257859
3.32 0.291766
3.33 0.324711
3.34 0.356323
3.35 0.386062
3.36 0.413772
3.37 0.439179
3.38 0.462047
3.39 0.482186
3.4 0.499451
3.41 0.513556
3.42 0.52448
3.43 0.532401
3.44 0.53738
3.45 0.53952
3.46 0.538959
3.47 0.535872
3.48 0.53021
3.49 0.522481
3.5 0.512921
3.51 0.501765
3.52 0.489249
3.53 0.475599
3.54 0.460996
3.55 0.445657
3.56 0.429815
3.57 0.413623
3.58 0.397213
3.59 0.380696
3.6 0.364162
3.61 0.347693
3.62 0.331342
3.63 0.315149
3.64 0.299144
3.65 0.283353
3.66 0.267803
3.67 0.252531
3.68 0.237586
3.69 0.22299
3.7 0.208794
3.71 0.195061
3.72 0.181864
3.73 0.169289
3.74 0.157506
3.75 0.146581
3.76 0.136607
3.77 0.127696
3.78 0.119959
3.79 0.113507
3.8 0.108486
3.81 0.105086
3.82 0.103262
3.83 0.103076
3.84 0.104574
3.85 0.107785
3.86 0.112715
3.87 0.119492
3.88 0.127998
3.89 0.138119
3.9 0.149783
3.91 0.162905
3.92 0.177384
3.93 0.193129
3.94 0.210091
3.95 0.228021
3.96 0.246783
3.97 0.266238
3.98 0.286248
3.99 0.306673
4 0.327385
4.01 0.348224
4.02 0.369046
4.03 0.389723
4.04 0.410129
4.05 0.430143
4.06 0.449642
4.07 0.468434
4.08 0.486465
4.09 0.503627
4.1 0.519815
4.11 0.534927
4.12 0.548865
4.13 0.561453
4.14 0.572594
4.15 0.58228
4.16 0.59044
4.17 0.597009
4.18 0.601933
4.19 0.60517
4.2 0.606493
4.21 0.606072
4.22 0.603912
4.23 0.600028
4.24 0.594444
4.25 0.5872
4.26 0.578271
4.27 0.567701
4.28 0.555671
4.29 0.542262
4.3 0.527559
4.31 0.511649
4.32 0.494621
4.33 0.476465
4.34 0.457363
4.35 0.437408
4.36 0.416669
4.37 0.395209
4.38 0.373084
4.39 0.350317
4.4 0.326929
4.41 0.302999
4.42 0.278555
4.43 0.253618
4.44 0.228211
4.45 0.202359
4.46 0.176053
4.47 0.149359
4.48 0.122331
4.49 0.0950226
4.5 0.0674985
4.51 0.0398358
4.52 0.012126
4.53 -0.0155103
4.54 -0.0429535
4.55 -0.0700777
4.56 -0.0967494
4.57 -0.122831
4.58 -0.148181
4.59 -0.172583
4.6 -0.195924
4.61 -0.218116
4.62 -0.239051
4.63 -0.258639
4.64 -0.276807
4.65 -0.293482
4.66 -0.308508
4.67 -0.32204
4.68 -0.334106
4.69 -0.344761
4.7 -0.354079
4.71 -0.362157
4.72 -0.36904
4.73 -0.374898
4.74 -0.379926
4.75 -0.384268
4.76 -0.388069
4.77 -0.391471
4.78 -0.394607
4.79 -0.397596
4.8 -0.400566
4.81 -0.403601
4.82 -0.406762
4.83 -0.41009
4.84 -0.413604
4.85 -0.417309
4.86 -0.421175
4.87 -0.425144
4.88 -0.429154
4.89 -0.433131
4.9 -0.436991
4.91 -0.440648
4.92 -0.443972
4.93 -0.446899
4.94 -0.449357
4.95 -0.45128
4.96 -0.452613
4.97 -0.453319
4.98 -0.453344
4.99 -0.452669
5 -0.451352
5.01 -0.449424
5.02 -0.446925
5.03 -0.443909
5.04 -0.440434
5.05 -0.436534
5.06 -0.432314
5.07 -0.427845
5.08 -0.423185
5.09 -0.418384
5.1 -0.413482
5.11 -0.408503
5.12 -0.403459
5.13 -0.398351
5.14 -0.393163
5.15 -0.387865
5.16 -0.382418
5.17 -0.376774
5.18 -0.370852
5.19 -0.364605
5.2 -0.357988
5.21 -0.350952
5.22 -0.343459
5.23 -0.335483
5.24 -0.326999
5.25 -0.31798
5.26 -0.3085
5.27 -0.298606
5.28 -0.288362
5.29 -0.277851
5.3 -0.267172
5.31 -0.256442
5.32 -0.245802
5.33 -0.235387
5.34 -0.225327
5.35 -0.215753
5.36 -0.206789
5.37 -0.198559
5.38 -0.191248
5.39 -0.184853
5.4 -0.179431
5.41 -0.175014
5.42 -0.171611
5.43 -0.169208
5.44 -0.167826
5.45 -0.167376
5.46 -0.167724
5.47 -0.168769
5.48 -0.170394
5.49 -0.172476
5.5 -0.174885
5.51 -0.177498
5.52 -0.180152
5.53 -0.18273
5.54 -0.185124
5.55 -0.187238
5.56 -0.188993
5.57 -0.190301
5.58 -0.191109
5.59 -0.19142
5.6 -0.191228
5.61 -0.190537
5.62 -0.189367
5.63 -0.187743
5.64 -0.185657
5.65 -0.183189
5.66 -0.180376
5.67 -0.177247
5.68 -0.173822
5.69 -0.170114
5.7 -0.166107
5.71 -0.161778
5.72 -0.157117
5.73 -0.152084
5.74 -0.146627
5.75 -0.140685
5.76 -0.134191
5.77 -0.127009
5.78 -0.119109
5.79 -0.110441
5.8 -0.100953
5.81 -0.0906014
5.82 -0.0793622
5.83 -0.0671995
5.84 -0.0540877
5.85 -0.0401449
5.86 -0.0254373
5.87 -0.010053
5.88 0.00589807
5.89 0.0222875
5.9 0.0389819
5.91 0.0557867
5.92 0.0725271
5.93 0.0890343
5.94 0.105143
5.95 0.120695
5.96 0.135527
5.97 0.149435
5.98 0.162389
5.99 0.174313
6 0.185157
6.01 0.194903
6.02 0.203557
6.03 0.211081
6.04 0.217586
6.05 0.223207
6.06 0.228052
6.07 0.232246
6.08 0.235921
6.09 0.239211
6.1 0.242242
6.11 0.245177
6.12 0.248125
6.13 0.251178
6.14 0.254406
6.15 0.257852
6.16 0.261548
6.17 0.26547
6.18 0.269559
6.19 0.273738
6.2 0.277906
6.21 0.28194
6.22 0.285701
6.23 0.288968
6.24 0.291614
6.25 0.293478
6.26 0.294406
6.27 0.294252
6.28 0.292888
6.29 0.290133
6.3 0.28588
6.31 0.280167
6.32 0.27298
6.33 0.264333
6.34 0.254273
6.35 0.242875
6.36 0.230127
6.37 0.216289
6.38 0.20153
6.39 0.186015
6.4 0.16992
6.41 0.153427
6.42 0.13671
6.43 0.119964
6.44 0.103357
6.45 0.0870273
6.46 0.0710928
6.47 0.0556467
6.48 0.0407575
6.49 0.0265256
6.5 0.012921
6.51 -8.54994e-05
6.52 -0.0125318
6.53 -0.0244755
6.54 -0.0359901
6.55 -0.0471537
6.56 -0.0580592
6.57 -0.0688312
6.58 -0.0795639
6.59 -0.0903442
6.6 -0.101249
6.61 -0.11234
6.62 -0.123684
6.63 -0.135297
6.64 -0.14717
6.65 -0.159284
6.66 -0.171597
6.67 -0.184049
6.68 -0.196561
6.69 -0.209026
6.7 -0.221331
6.71 -0.233361
6.72 -0.244994
6.73 -0.256111
6.74 -0.266593
6.75 -0.276263
6.76 -0.285025
6.77 -0.292822
6.78 -0.299575
6.79 -0.305221
6.8 -0.309709
6.81 -0.312996
6.82 -0.314938
6.83 -0.315661
6.84 -0.315172
6.85 -0.313486
6.86 -0.310627
6.87 -0.30662
6.88 -0.30143
6.89 -0.295096
6.9 -0.287709
6.91 -0.27929
6.92 -0.269859
6.93 -0.259427
6.94 -0.248001
6.95 -0.235466
6.96 -0.221927
6.97 -0.207374
6.98 -0.191794
6.99 -0.175173
7 -0.157496
7.01 -0.1387
7.02 -0.118761
7.03 -0.0977558
7.04 -0.075697
7.05 -0.0526102
7.06 -0.0285329
7.07 -0.00351587
7.08 0.0224587
7.09 0.0492234
7.1 0.0766711
7.11 0.104695
7.12 0.133176
7.13 0.161989
7.14 0.191
7.15 0.220053
7.16 0.248992
7.17 0.277675
7.18 0.305962
7.19 0.333717
7.2 0.360813
7.21 0.387046
7.22 0.412344
7.23 0.436628
7.24 0.45981
7.25 0.481813
7.26 0.502569
7.27 0.521982
7.28 0.539917
7.29 0.556452
7.3 0.571555
7.31 0.585199
7.32 0.597361
7.33 0.60802
7.34 0.617032
7.35 0.624444
7.36 0.630293
7.37 0.634558
7.38 0.637219
7.39 0.638255
7.4 0.637616
7.41 0.635141
7.42 0.630977
7.43 0.62511
7.44 0.617528
7.45 0.608228
7.46 0.597213
7.47 0.584378
7.48 0.569789
7.49 0.553563
7.5 0.535749
7.51 0.516408
7.52 0.495617
7.53 0.473455
7.54 0.449904
7.55 0.425231
7.56 0.399563
7.57 0.373037
7.58 0.345798
7.59 0.318
7.6 0.289784
7.61 0.261337
7.62 0.232842
7.63 0.204458
7.64 0.176343
7.65 0.148649
7.66 0.12152
7.67 0.0951877
7.68 0.0697165
7.69 0.0452179
7.7 0.0217962
7.71 -0.000456296
7.72 -0.0214593
7.73 -0.0410794
7.74 -0.0592257
7.75 -0.0759512
7.76 -0.0912291
7.77 -0.105044
7.78 -0.117394
7.79 -0.128286
7.8 -0.137596
7.81 -0.145479
7.82 -0.151998
7.83 -0.157203
7.84 -0.161149
7.85 -0.1639
7.86 -0.165485
7.87 -0.165945
7.88 -0.165448
7.89 -0.164077
7.9 -0.161916
7.91 -0.15905
7.92 -0.155564
7.93 -0.151501
7.94 -0.146985
7.95 -0.142107
7.96 -0.136939
7.97 -0.131548
7.98 -0.125994
7.99 -0.120329
8 -0.1146
8.01 -0.108853
8.02 -0.103117
8.03 -0.0974149
8.04 -0.0917617
8.05 -0.0861666
8.06 -0.0806384
8.07 -0.0751735
8.08 -0.0697653
8.09 -0.0644078
8.1 -0.0590948
8.11 -0.0538208
8.12 -0.0485827
8.13 -0.0433835
8.14 -0.0382244
8.15 -0.033115
8.16 -0.02807
8.17 -0.0231096
8.18 -0.0182591
8.19 -0.0135607
8.2 -0.00905194
8.21 -0.00476384
8.22 -0.00073641
8.23 0.00299005
8.24 0.00637645
8.25 0.009385
8.26 0.0119354
8.27 0.0140469
8.28 0.0157024
8.29 0.0168937
8.3 0.0176215
8.31 0.0178969
8.32 0.0177181
8.33 0.0171205
8.34 0.0161724
8.35 0.0149241
8.36 0.0134324
8.37 0.0117589
8.38 0.00996829
8.39 0.00812717
8.4 0.00631036
8.41 0.00457668
8.42 0.00297795
8.43 0.00155728
8.44 0.000347287
8.45 -0.000620574
8.46 -0.00133352
8.47 -0.0018187
8.48 -0.00210055
8.49 -0.00221719
8.5 -0.00221959
8.51 -0.00217025
8.52 -0.00215153
8.53 -0.00225186
8.54 -0.00255692
8.55 -0.00315472
8.56 -0.00413227
8.57 -0.00557279
8.58 -0.0075739
8.59 -0.0102405
8.6 -0.0135794
8.61 -0.0176292
8.62 -0.0224133
8.63 -0.0279392
8.64 -0.0341974
8.65 -0.0412203
8.66 -0.0489179
8.67 -0.0572093
8.68 -0.0660223
8.69 -0.0752744
8.7 -0.0848752
8.71 -0.0947323
8.72 -0.104746
8.73 -0.114797
8.74 -0.124793
8.75 -0.134646
8.76 -0.144279
8.77 -0.153625
8.78 -0.162598
8.79 -0.171164
8.8 -0.179313
8.81 -0.187033
8.82 -0.194324
8.83 -0.201199
8.84 -0.207676
8.85 -0.213757
8.86 -0.219522
8.87 -0.225014
8.88 -0.230275
8.89 -0.235348
8.9 -0.240273
8.91 -0.245076
8.92 -0.249791
8.93 -0.254437
8.94 -0.259023
8.95 -0.263545
8.96 -0.267991
8.97 -0.272338
8.98 -0.276539
8.99 -0.280564
9 -0.284369
9.01 -0.287908
9.02 -0.29113
9.03 -0.293988
9.04 -0.296409
9.05 -0.298343
9.06 -0.299783
9.07 -0.300703
9.08 -0.301085
9.09 -0.300923
9.1 -0.30022
9.11 -0.298935
9.12 -0.297145
9.13 -0.29489
9.14 -0.292212
9.15 -0.289157
9.16 -0.285779
9.17 -0.282122
9.18 -0.278246
9.19 -0.274224
9.2 -0.27011
9.21 -0.265953
9.22 -0.261796
9.23 -0.257678
9.24 -0.253639
9.25 -0.249699
9.26 -0.245873
9.27 -0.242169
9.28 -0.238591
9.29 -0.235136
9.3 -0.231802
9.31 -0.228582
9.32 -0.225455
9.33 -0.22241
9.34 -0.219434
9.35 -0.216518
9.36 -0.213652
9.37 -0.210836
9.38 -0.208064
9.39 -0.205338
9.4 -0.202659
9.41 -0.200035
9.42 -0.197471
9.43 -0.194978
9.44 -0.192567
9.45 -0.190237
9.46 -0.187986
9.47 -0.185812
9.48 -0.183704
9.49 -0.181648
9.5 -0.179621
9.51 -0.177588
9.52 -0.175509
9.53 -0.173341
9.54 -0.171032
9.55 -0.168528
9.56 -0.165767
9.57 -0.162649
9.58 -0.159142
9.59 -0.155186
9.6 -0.150723
9.61 -0.145701
9.62 -0.140075
9.63 -0.133764
9.64 -0.12674
9.65 -0.119022
9.66 -0.110601
9.67 -0.101479
9.68 -0.0916695
9.69 -0.0811921
9.7 -0.0700066
9.71 -0.058226
9.72 -0.0458938
9.73 -0.033056
9.74 -0.0197601
9.75 -0.006054
9.76 0.00803198
9.77 0.0224526
9.78 0.0371458
9.79 0.0520778
9.8 0.0672205
9.81 0.082551
9.82 0.0980516
9.83 0.113725
9.84 0.129547
9.85 0.145509
9.86 0.161606
9.87 0.17783
9.88 0.194171
9.89 0.210619
9.9 0.227152
9.91 0.243732
9.92 0.260319
9.93 0.276862
9.94 0.293303
9.95 0.309572
9.96 0.325557
9.97 0.341176
9.98 0.356339
9.99 0.370945
10 0.384891
10.01 0.398074
10.02 0.410366
10.03 0.421608
10.04 0.431797
10.05 0.440863
10.06 0.448754
10.07 0.455435
10.08 0.460889
10.09 0.465022
10.1 0.467921
10.11 0.469681
10.12 0.470371
10.13 0.47008
10.14 0.468913
10.15 0.466976
10.16 0.464366
10.17 0.461293
10.18 0.457896
10.19 0.454317
10.2 0.450687
10.21 0.447134
10.22 0.443793
10.23 0.440767
10.24 0.438126
10.25 0.435926
10.26 0.434202
10.27 0.432969
10.28 0.432223
10.29 0.431979
10.3 0.432131
10.31 0.432611
10.32 0.433336
10.33 0.434214
10.34 0.435142
10.35 0.436004
10.36 0.436677
10.37 0.437059
10.38 0.437051
10.39 0.436564
10.4 0.435516
10.41 0.433841
10.42 0.431403
10.43 0.428235
10.44 0.424318
10.45 0.419645
10.46 0.41422
10.47 0.408061
10.48 0.40116
10.49 0.393544
10.5 0.385301
10.51 0.376473
10.52 0.367104
10.53 0.357234
10.54 0.346902
10.55 0.336098
10.56 0.324889
10.57 0.313299
10.58 0.301339
10.59 0.289014
10.6 0.276321
10.61 0.263241
10.62 0.249745
10.63 0.23585
10.64 0.221546
10.65 0.206821
10.66 0.191671
10.67 0.176094
10.68 0.160062
10.69 0.14362
10.7 0.126805
10.71 0.109653
10.72 0.0922104
10.73 0.0745306
10.74 0.0566733
10.75 0.0387102
10.76 0.0207305
10.77 0.00281079
10.78 -0.0149721
10.79 -0.0325435
10.8 -0.0498333
10.81 -0.0667458
10.82 -0.0832351
10.83 -0.0992725
10.84 -0.114828
10.85 -0.129886
10.86 -0.144441
10.87 -0.158496
10.88 -0.172036
10.89 -0.185146
10.9 -0.197872
10.91 -0.210267
10.92 -0.222388
10.93 -0.234296
10.94 -0.246045
10.95 -0.257705
10.96 -0.269332
10.97 -0.28097
10.98 -0.292653
10.99 -0.3044
11 -0.31622
11.01 -0.328113
11.02 -0.340045
11.03 -0.351979
11.04 -0.363864
11.05 -0.375637
11.06 -0.387225
11.07 -0.398529
11.08 -0.409446
11.09 -0.419905
11.1 -0.429815
11.11 -0.43909
11.12 -0.447649
11.13 -0.45542
11.14 -0.462237
11.15 -0.468134
11.16 -0.47308
11.17 -0.477052
11.18 -0.480039
11.19 -0.482045
11.2 -0.483042
11.21 -0.483039
11.22 -0.482143
11.23 -0.480401
11.24 -0.477865
11.25 -0.47459
11.26 -0.470632
11.27 -0.465988
11.28 -0.460768
11.29 -0.455028
11.3 -0.448806
11.31 -0.442136
11.32 -0.435039
11.33 -0.427516
11.34 -0.419555
11.35 -0.411185
11.36 -0.402395
11.37 -0.393172
11.38 -0.383493
11.39 -0.373339
11.4 -0.362641
11.41 -0.351407
11.42 -0.339634
11.43 -0.327313
11.44 -0.31444
11.45 -0.30102
11.46 -0.287055
11.47 -0.272538
11.48 -0.257554
11.49 -0.242151
11.5 -0.226384
11.51 -0.210317
11.52 -0.194022
11.53 -0.177572
11.54 -0.161065
11.55 -0.144592
11.56 -0.12824
11.57 -0.112092
11.58 -0.0962305
11.59 -0.0807378
11.6 -0.0657327
11.61 -0.0512379
11.62 -0.0373073
11.63 -0.0239858
11.64 -0.0113093
11.65 0.000695777
11.66 0.0119657
11.67 0.0225022
11.68 0.0323421
11.69 0.0414938
11.7 0.0499722
11.71 0.0577974
11.72 0.0649927
11.73 0.0715214
11.74 0.0774859
11.75 0.0829182
11.76 0.0878509
11.77 0.0923165
11.78 0.096347
11.79 0.0999532
11.8 0.103167
11.81 0.106041
11.82 0.108603
11.83 0.110877
11.84 0.112889
11.85 0.11466
11.86 0.116191
11.87 0.117525
11.88 0.118681
11.89 0.119674
11.9 0.120519
11.91 0.121226
11.92 0.121797
11.93 0.122233
11.94 0.122542
11.95 0.122718
11.96 0.12275
11.97 0.122622
11.98 0.12231
11.99 0.121762
12 0.120955
12.01 0.11985
12.02 0.118399
12.03 0.116552
12.04 0.11425
12.05 0.111417
12.06 0.107955
12.07 0.103848
12.08 0.0990377
12.09 0.09347
12.1 0.0870959
12.11 0.0798735
12.12 0.0716916
12.13 0.0625737
12.14 0.0525384
12.15 0.0415891
12.16 0.0297424
12.17 0.0170283
12.18 0.0034737
