# xPDFsuite Configuration #
[PDF]
wavelength = 0.1
dataformat = QA
inputfile = BiMsol6_insitu_700 C-00506.xy
backgroundfile = Quartz2mm-dist500-00000.xy
mode = xray
bgscale = 0.0042
composition = Bi2Fe4O9
outputtype = gr
qmaxinst = 24.998449118
qmin = 0.1
qmax = 21.4986662415
rmax = 80.0
rmin = 0.0
rstep = 0.01
rpoly = 0.9

[Misc]
inputdir = C:/Data/Seafile/CPH/Beamtime/Desy Oct 20/In situ data/Processed/BiMsol6/PDF
savedir = C:/Data/Seafile/CPH/Beamtime/Desy Oct 20/In situ data/PDF/BiMsol6
backgroundfilefull = C:/Data/Seafile/CPH/Beamtime/Desy Oct 20/In situ data/Processed/Standard_Empty_Cap/Quartz2mm-dist500-00000.xy

#### start data
#S 1
#L r($\AA$)  G($\AA^{-2}$)
0 0
0.01 0.00647702
0.02 0.0125889
0.03 0.0180229
0.04 0.0224986
0.05 0.0257804
0.06 0.0276885
0.07 0.0280259
0.08 0.0267349
0.09 0.0239593
0.1 0.0198172
0.11 0.0144922
0.12 0.00822547
0.13 0.00130477
0.14 -0.00594684
0.15 -0.0131207
0.16 -0.0198723
0.17 -0.0258783
0.18 -0.0308483
0.19 -0.0345393
0.2 -0.0367019
0.21 -0.0371644
0.22 -0.0360236
0.23 -0.0333445
0.24 -0.0292704
0.25 -0.024019
0.26 -0.0178736
0.27 -0.0111557
0.28 -0.00433179
0.29 0.00218287
0.3 0.00798515
0.31 0.0126914
0.32 0.0159562
0.33 0.0174297
0.34 0.0167694
0.35 0.0140241
0.36 0.00918829
0.37 0.00236099
0.38 -0.00625305
0.39 -0.016346
0.4 -0.0275619
0.41 -0.0392829
0.42 -0.0509021
0.43 -0.0618028
0.44 -0.0713464
0.45 -0.0788965
0.46 -0.08378
0.47 -0.0851311
0.48 -0.0827577
0.49 -0.0763073
0.5 -0.0655491
0.51 -0.0503889
0.52 -0.0308787
0.53 -0.00694756
0.54 0.0208568
0.55 0.0518115
0.56 0.0852451
0.57 0.120372
0.58 0.156315
0.59 0.192116
0.6 0.226557
0.61 0.25868
0.62 0.287523
0.63 0.312186
0.64 0.331858
0.65 0.345844
0.66 0.353181
0.67 0.353479
0.68 0.346914
0.69 0.333499
0.7 0.313427
0.71 0.28707
0.72 0.254971
0.73 0.217341
0.74 0.175674
0.75 0.130939
0.76 0.0841648
0.77 0.0364176
0.78 -0.0112288
0.79 -0.0576145
0.8 -0.101575
0.81 -0.142318
0.82 -0.179081
0.83 -0.21124
0.84 -0.238322
0.85 -0.260018
0.86 -0.275617
0.87 -0.285678
0.88 -0.290507
0.89 -0.290479
0.9 -0.2861
0.91 -0.277981
0.92 -0.266729
0.93 -0.253124
0.94 -0.238179
0.95 -0.222675
0.96 -0.207363
0.97 -0.192939
0.98 -0.180024
0.99 -0.16937
1 -0.161286
1.01 -0.155987
1.02 -0.153616
1.03 -0.154197
1.04 -0.157635
1.05 -0.163799
1.06 -0.172487
1.07 -0.183077
1.08 -0.19513
1.09 -0.20817
1.1 -0.221708
1.11 -0.235267
1.12 -0.248319
1.13 -0.260432
1.14 -0.271287
1.15 -0.28062
1.16 -0.288249
1.17 -0.294071
1.18 -0.298037
1.19 -0.300078
1.2 -0.300527
1.21 -0.299595
1.22 -0.297538
1.23 -0.294645
1.24 -0.291224
1.25 -0.287591
1.26 -0.284086
1.27 -0.280978
1.28 -0.278485
1.29 -0.276776
1.3 -0.275961
1.31 -0.276092
1.32 -0.277243
1.33 -0.279216
1.34 -0.281867
1.35 -0.285005
1.36 -0.288403
1.37 -0.291813
1.38 -0.294942
1.39 -0.297496
1.4 -0.299258
1.41 -0.300025
1.42 -0.299638
1.43 -0.29799
1.44 -0.295031
1.45 -0.290634
1.46 -0.285034
1.47 -0.278389
1.48 -0.270905
1.49 -0.262835
1.5 -0.254468
1.51 -0.246135
1.52 -0.238216
1.53 -0.231025
1.54 -0.224859
1.55 -0.219982
1.56 -0.21661
1.57 -0.214903
1.58 -0.215136
1.59 -0.21717
1.6 -0.220905
1.61 -0.226195
1.62 -0.232827
1.63 -0.240521
1.64 -0.248958
1.65 -0.257723
1.66 -0.266353
1.67 -0.27443
1.68 -0.281543
1.69 -0.287301
1.7 -0.29135
1.71 -0.29318
1.72 -0.292659
1.73 -0.289692
1.74 -0.284207
1.75 -0.276215
1.76 -0.265813
1.77 -0.253123
1.78 -0.238305
1.79 -0.221892
1.8 -0.204262
1.81 -0.185834
1.82 -0.167045
1.83 -0.148341
1.84 -0.130231
1.85 -0.113154
1.86 -0.0974425
1.87 -0.0833986
1.88 -0.0712574
1.89 -0.0611812
1.9 -0.0532861
1.91 -0.047757
1.92 -0.0442786
1.93 -0.0426858
1.94 -0.0427497
1.95 -0.0441887
1.96 -0.04668
1.97 -0.049896
1.98 -0.053409
1.99 -0.0568318
2 -0.0598315
2.01 -0.0621111
2.02 -0.0634213
2.03 -0.0635665
2.04 -0.0622742
2.05 -0.0596471
2.06 -0.0557262
2.07 -0.0506248
2.08 -0.0445244
2.09 -0.0376676
2.1 -0.030343
2.11 -0.0229423
2.12 -0.0158586
2.13 -0.00946873
2.14 -0.00414454
2.15 -0.000238009
2.16 0.0019321
2.17 0.00184864
2.18 -0.000508495
2.19 -0.00525558
2.2 -0.0124515
2.21 -0.0220796
2.22 -0.0340483
2.23 -0.0482807
2.24 -0.0645524
2.25 -0.0824038
2.26 -0.101483
2.27 -0.121402
2.28 -0.141755
2.29 -0.162125
2.3 -0.182026
2.31 -0.201061
2.32 -0.218892
2.33 -0.235221
2.34 -0.249802
2.35 -0.262452
2.36 -0.272984
2.37 -0.281252
2.38 -0.287464
2.39 -0.291723
2.4 -0.294189
2.41 -0.295072
2.42 -0.294624
2.43 -0.293062
2.44 -0.290788
2.45 -0.288139
2.46 -0.285419
2.47 -0.282911
2.48 -0.280871
2.49 -0.279542
2.5 -0.279181
2.51 -0.279835
2.52 -0.281573
2.53 -0.28441
2.54 -0.288312
2.55 -0.293201
2.56 -0.299011
2.57 -0.305531
2.58 -0.312541
2.59 -0.319839
2.6 -0.327216
2.61 -0.334465
2.62 -0.341382
2.63 -0.34772
2.64 -0.353368
2.65 -0.358205
2.66 -0.362145
2.67 -0.365137
2.68 -0.367164
2.69 -0.368185
2.7 -0.368274
2.71 -0.367562
2.72 -0.366153
2.73 -0.364166
2.74 -0.36173
2.75 -0.358976
2.76 -0.356023
2.77 -0.353022
2.78 -0.350074
2.79 -0.347261
2.8 -0.344641
2.81 -0.342254
2.82 -0.340124
2.83 -0.33824
2.84 -0.336549
2.85 -0.334997
2.86 -0.333517
2.87 -0.332031
2.88 -0.330458
2.89 -0.328688
2.9 -0.326651
2.91 -0.324283
2.92 -0.321527
2.93 -0.318343
2.94 -0.314706
2.95 -0.310589
2.96 -0.305988
2.97 -0.300964
2.98 -0.295554
2.99 -0.289802
3 -0.283757
3.01 -0.277465
3.02 -0.270953
3.03 -0.264269
3.04 -0.257429
3.05 -0.250429
3.06 -0.243241
3.07 -0.235815
3.08 -0.228065
3.09 -0.219856
3.1 -0.211094
3.11 -0.201638
3.12 -0.191336
3.13 -0.180028
3.14 -0.167551
3.15 -0.153625
3.16 -0.138158
3.17 -0.121074
3.18 -0.102281
3.19 -0.0817178
3.2 -0.0593614
3.21 -0.0351949
3.22 -0.00916558
3.23 0.018436
3.24 0.0474451
3.25 0.0776546
3.26 0.108818
3.27 0.140657
3.28 0.172865
3.29 0.205054
3.3 0.236867
3.31 0.267961
3.32 0.297998
3.33 0.326655
3.34 0.353612
3.35 0.378384
3.36 0.400934
3.37 0.421087
3.38 0.438709
3.39 0.453718
3.4 0.466082
3.41 0.475651
3.42 0.482523
3.43 0.486953
3.44 0.489086
3.45 0.489098
3.46 0.487185
3.47 0.483559
3.48 0.478292
3.49 0.471795
3.5 0.464281
3.51 0.455947
3.52 0.446971
3.53 0.437511
3.54 0.427686
3.55 0.417609
3.56 0.407375
3.57 0.397031
3.58 0.3866
3.59 0.37609
3.6 0.365489
3.61 0.354765
3.62 0.3439
3.63 0.332871
3.64 0.321659
3.65 0.310258
3.66 0.298673
3.67 0.286924
3.68 0.275061
3.69 0.263165
3.7 0.251327
3.71 0.23966
3.72 0.22829
3.73 0.21736
3.74 0.207097
3.75 0.197637
3.76 0.189127
3.77 0.181725
3.78 0.175576
3.79 0.170814
3.8 0.167598
3.81 0.166123
3.82 0.166314
3.83 0.168201
3.84 0.171785
3.85 0.17704
3.86 0.18391
3.87 0.192431
3.88 0.202406
3.89 0.213653
3.9 0.226025
3.91 0.239364
3.92 0.253505
3.93 0.268289
3.94 0.283568
3.95 0.299122
3.96 0.314804
3.97 0.330475
3.98 0.346014
3.99 0.361311
4 0.376244
4.01 0.390736
4.02 0.404743
4.03 0.418218
4.04 0.431123
4.05 0.443427
4.06 0.455103
4.07 0.466057
4.08 0.476336
4.09 0.485912
4.1 0.494756
4.11 0.502829
4.12 0.510087
4.13 0.516423
4.14 0.521771
4.15 0.526116
4.16 0.529388
4.17 0.531516
4.18 0.532431
4.19 0.532063
4.2 0.530196
4.21 0.526918
4.22 0.522198
4.23 0.516011
4.24 0.508347
4.25 0.499214
4.26 0.488566
4.27 0.476427
4.28 0.462956
4.29 0.448229
4.3 0.432334
4.31 0.41537
4.32 0.397441
4.33 0.378582
4.34 0.35899
4.35 0.338784
4.36 0.318067
4.37 0.296932
4.38 0.275461
4.39 0.253719
4.4 0.23176
4.41 0.209646
4.42 0.187405
4.43 0.165052
4.44 0.142594
4.45 0.120027
4.46 0.0973342
4.47 0.0745108
4.48 0.0515513
4.49 0.0284514
4.5 0.00521424
4.51 -0.0181471
4.52 -0.0416091
4.53 -0.0651296
4.54 -0.0886421
4.55 -0.112074
4.56 -0.135337
4.57 -0.158332
4.58 -0.180947
4.59 -0.203009
4.6 -0.224398
4.61 -0.245004
4.62 -0.264701
4.63 -0.283371
4.64 -0.300905
4.65 -0.317187
4.66 -0.332022
4.67 -0.345484
4.68 -0.357544
4.69 -0.3682
4.7 -0.377469
4.71 -0.385396
4.72 -0.391968
4.73 -0.397313
4.74 -0.401605
4.75 -0.404968
4.76 -0.40754
4.77 -0.409463
4.78 -0.410879
4.79 -0.411911
4.8 -0.412745
4.81 -0.413505
4.82 -0.4143
4.83 -0.415222
4.84 -0.416343
4.85 -0.417733
4.86 -0.419426
4.87 -0.421409
4.88 -0.423668
4.89 -0.426171
4.9 -0.428867
4.91 -0.431696
4.92 -0.434584
4.93 -0.437436
4.94 -0.440171
4.95 -0.442708
4.96 -0.444968
4.97 -0.44688
4.98 -0.448361
4.99 -0.449341
5 -0.449814
5.01 -0.449754
5.02 -0.449148
5.03 -0.447994
5.04 -0.446302
5.05 -0.444039
5.06 -0.441274
5.07 -0.438046
5.08 -0.434384
5.09 -0.430319
5.1 -0.425877
5.11 -0.42107
5.12 -0.415901
5.13 -0.410406
5.14 -0.404588
5.15 -0.39844
5.16 -0.39195
5.17 -0.3851
5.18 -0.377834
5.19 -0.370147
5.2 -0.362027
5.21 -0.353454
5.22 -0.344412
5.23 -0.334894
5.24 -0.324888
5.25 -0.314378
5.26 -0.303434
5.27 -0.292094
5.28 -0.280411
5.29 -0.268448
5.3 -0.256281
5.31 -0.243991
5.32 -0.231688
5.33 -0.219476
5.34 -0.207453
5.35 -0.195719
5.36 -0.184367
5.37 -0.173493
5.38 -0.163233
5.39 -0.153599
5.4 -0.144638
5.41 -0.136385
5.42 -0.128854
5.43 -0.122046
5.44 -0.115989
5.45 -0.110635
5.46 -0.1059
5.47 -0.101724
5.48 -0.0980409
5.49 -0.0947784
5.5 -0.0918616
5.51 -0.0892373
5.52 -0.0867972
5.53 -0.0844768
5.54 -0.0822202
5.55 -0.0799814
5.56 -0.0777255
5.57 -0.0754266
5.58 -0.0730729
5.59 -0.0706697
5.6 -0.0682293
5.61 -0.0657715
5.62 -0.0633219
5.63 -0.0609093
5.64 -0.0585733
5.65 -0.0563365
5.66 -0.0542193
5.67 -0.0522347
5.68 -0.0503863
5.69 -0.0486666
5.7 -0.0470591
5.71 -0.0455275
5.72 -0.0440163
5.73 -0.0424668
5.74 -0.040811
5.75 -0.0389736
5.76 -0.0368745
5.77 -0.0343912
5.78 -0.0314617
5.79 -0.0280201
5.8 -0.0240025
5.81 -0.0193571
5.82 -0.0140466
5.83 -0.00802833
5.84 -0.00126808
5.85 0.00615298
5.86 0.0141919
5.87 0.0227867
5.88 0.0318582
5.89 0.041312
5.9 0.0510544
5.91 0.0609385
5.92 0.0708341
5.93 0.0806186
5.94 0.0901738
5.95 0.0993889
5.96 0.108154
5.97 0.116337
5.98 0.123923
5.99 0.130871
6 0.137163
6.01 0.142805
6.02 0.147821
6.03 0.152221
6.04 0.156099
6.05 0.159564
6.06 0.162712
6.07 0.165643
6.08 0.168462
6.09 0.171272
6.1 0.174187
6.11 0.177287
6.12 0.180638
6.13 0.184284
6.14 0.188251
6.15 0.19254
6.16 0.197144
6.17 0.202004
6.18 0.207027
6.19 0.212119
6.2 0.217166
6.21 0.222041
6.22 0.226609
6.23 0.230659
6.24 0.23409
6.25 0.236766
6.26 0.238565
6.27 0.239377
6.28 0.239112
6.29 0.237639
6.3 0.234897
6.31 0.23095
6.32 0.225813
6.33 0.219527
6.34 0.212157
6.35 0.20379
6.36 0.194452
6.37 0.184362
6.38 0.173666
6.39 0.162504
6.4 0.151015
6.41 0.139338
6.42 0.127602
6.43 0.115941
6.44 0.104455
6.45 0.0932223
6.46 0.0822994
6.47 0.0717237
6.48 0.0615107
6.49 0.0516879
6.5 0.0422006
6.51 0.0329981
6.52 0.0240254
6.53 0.0152189
6.54 0.00651033
6.55 -0.00217066
6.56 -0.0109003
6.57 -0.0197367
6.58 -0.0287253
6.59 -0.037898
6.6 -0.0472704
6.61 -0.0568415
6.62 -0.0666037
6.63 -0.0765034
6.64 -0.0864765
6.65 -0.0964503
6.66 -0.10634
6.67 -0.116051
6.68 -0.125476
6.69 -0.13447
6.7 -0.142961
6.71 -0.150854
6.72 -0.158065
6.73 -0.16452
6.74 -0.17016
6.75 -0.174877
6.76 -0.178669
6.77 -0.18157
6.78 -0.183595
6.79 -0.18477
6.8 -0.18514
6.81 -0.184752
6.82 -0.183606
6.83 -0.18185
6.84 -0.179553
6.85 -0.176779
6.86 -0.173586
6.87 -0.170024
6.88 -0.166108
6.89 -0.161865
6.9 -0.157315
6.91 -0.152443
6.92 -0.147217
6.93 -0.141591
6.94 -0.135505
6.95 -0.128816
6.96 -0.121495
6.97 -0.113455
6.98 -0.10461
6.99 -0.0948759
7 -0.0841759
7.01 -0.0723904
7.02 -0.0594457
7.03 -0.0453834
7.04 -0.0301967
7.05 -0.0139009
7.06 0.00346561
7.07 0.0218408
7.08 0.0412246
7.09 0.0614133
7.1 0.0822648
7.11 0.103634
7.12 0.125364
7.13 0.14729
7.14 0.169238
7.15 0.191008
7.16 0.21244
7.17 0.23338
7.18 0.253687
7.19 0.273235
7.2 0.291918
7.21 0.309553
7.22 0.326132
7.23 0.341637
7.24 0.356045
7.25 0.369352
7.26 0.381568
7.27 0.392689
7.28 0.402691
7.29 0.411712
7.3 0.419795
7.31 0.426982
7.32 0.433313
7.33 0.438819
7.34 0.443455
7.35 0.447266
7.36 0.450273
7.37 0.452454
7.38 0.453773
7.39 0.45418
7.4 0.453598
7.41 0.451861
7.42 0.448989
7.43 0.444903
7.44 0.439524
7.45 0.432777
7.46 0.424597
7.47 0.414821
7.48 0.40344
7.49 0.39051
7.5 0.376033
7.51 0.360035
7.52 0.342567
7.53 0.323692
7.54 0.303383
7.55 0.281919
7.56 0.259441
7.57 0.23611
7.58 0.2121
7.59 0.187597
7.6 0.162786
7.61 0.137895
7.62 0.113134
7.63 0.0886917
7.64 0.064749
7.65 0.0414745
7.66 0.0190223
7.67 -0.00234977
7.68 -0.0226178
7.69 -0.0416941
7.7 -0.0595063
7.71 -0.0760028
7.72 -0.0911519
7.73 -0.104876
7.74 -0.117155
7.75 -0.128108
7.76 -0.137772
7.77 -0.146196
7.78 -0.153439
7.79 -0.159563
7.8 -0.164539
7.81 -0.168532
7.82 -0.171631
7.83 -0.173902
7.84 -0.175413
7.85 -0.176223
7.86 -0.176371
7.87 -0.175887
7.88 -0.174871
7.89 -0.173364
7.9 -0.171403
7.91 -0.169024
7.92 -0.166257
7.93 -0.163103
7.94 -0.159614
7.95 -0.155829
7.96 -0.151775
7.97 -0.147478
7.98 -0.142967
7.99 -0.138267
8 -0.133404
8.01 -0.128423
8.02 -0.123358
8.03 -0.11824
8.04 -0.113101
8.05 -0.107973
8.06 -0.102891
8.07 -0.0978866
8.08 -0.0929838
8.09 -0.0882068
8.1 -0.0835771
8.11 -0.0791134
8.12 -0.0748344
8.13 -0.0707719
8.14 -0.0669166
8.15 -0.0632757
8.16 -0.0598543
8.17 -0.0566555
8.18 -0.0536805
8.19 -0.0509443
8.2 -0.0484409
8.21 -0.0461565
8.22 -0.0440871
8.23 -0.0422279
8.24 -0.040573
8.25 -0.0391159
8.26 -0.0378676
8.27 -0.0367952
8.28 -0.0358861
8.29 -0.0351251
8.3 -0.0344951
8.31 -0.0339758
8.32 -0.0335479
8.33 -0.0331817
8.34 -0.0328432
8.35 -0.0325015
8.36 -0.0321236
8.37 -0.0316757
8.38 -0.0311233
8.39 -0.0304138
8.4 -0.0295259
8.41 -0.0284315
8.42 -0.0271053
8.43 -0.0255266
8.44 -0.0236808
8.45 -0.0215474
8.46 -0.0191198
8.47 -0.0164274
8.48 -0.0134885
8.49 -0.0103298
8.5 -0.00698621
8.51 -0.00350022
8.52 8.21033e-05
8.53 0.00369064
8.54 0.00726241
8.55 0.0107332
8.56 0.0140374
8.57 0.0171101
8.58 0.0198758
8.59 0.0222508
8.6 0.0242082
8.61 0.0257034
8.62 0.0267
8.63 0.0271711
8.64 0.0271
8.65 0.0264327
8.66 0.025207
8.67 0.0234564
8.68 0.0212071
8.69 0.0184934
8.7 0.0153569
8.71 0.0118374
8.72 0.00796986
8.73 0.00384238
8.74 -0.000491506
8.75 -0.00497999
8.76 -0.00957457
8.77 -0.0142315
8.78 -0.0189125
8.79 -0.0235828
8.8 -0.0282206
8.81 -0.032813
8.82 -0.0373546
8.83 -0.041848
8.84 -0.0463022
8.85 -0.0507328
8.86 -0.0551648
8.87 -0.0596226
8.88 -0.0641319
8.89 -0.0687189
8.9 -0.0734081
8.91 -0.0782308
8.92 -0.0832051
8.93 -0.0883354
8.94 -0.093627
8.95 -0.0990782
8.96 -0.104681
8.97 -0.110419
8.98 -0.116283
8.99 -0.122227
9 -0.128218
9.01 -0.134221
9.02 -0.140196
9.03 -0.146103
9.04 -0.151897
9.05 -0.157534
9.06 -0.162988
9.07 -0.168232
9.08 -0.173243
9.09 -0.178006
9.1 -0.182512
9.11 -0.18673
9.12 -0.190691
9.13 -0.19441
9.14 -0.197902
9.15 -0.20119
9.16 -0.204295
9.17 -0.207238
9.18 -0.210045
9.19 -0.212749
9.2 -0.215373
9.21 -0.217933
9.22 -0.220442
9.23 -0.222906
9.24 -0.225319
9.25 -0.227677
9.26 -0.229964
9.27 -0.23216
9.28 -0.234236
9.29 -0.236161
9.3 -0.237891
9.31 -0.239369
9.32 -0.240573
9.33 -0.241463
9.34 -0.242001
9.35 -0.242153
9.36 -0.24189
9.37 -0.241149
9.38 -0.239934
9.39 -0.23825
9.4 -0.236095
9.41 -0.233476
9.42 -0.230405
9.43 -0.226891
9.44 -0.222932
9.45 -0.218597
9.46 -0.213919
9.47 -0.20893
9.48 -0.203663
9.49 -0.198149
9.5 -0.192401
9.51 -0.186454
9.52 -0.180332
9.53 -0.174047
9.54 -0.167601
9.55 -0.160993
9.56 -0.154209
9.57 -0.14721
9.58 -0.139992
9.59 -0.132524
9.6 -0.124773
9.61 -0.116702
9.62 -0.108276
9.63 -0.0994297
9.64 -0.0901279
9.65 -0.0803621
9.66 -0.0701074
9.67 -0.0593453
9.68 -0.0480646
9.69 -0.036262
9.7 -0.0238847
9.71 -0.0110085
9.72 0.00234091
9.73 0.0161304
9.74 0.0303195
9.75 0.044861
9.76 0.0597141
9.77 0.074816
9.78 0.0900861
9.79 0.105462
9.8 0.12088
9.81 0.136279
9.82 0.151598
9.83 0.16676
9.84 0.181719
9.85 0.19643
9.86 0.21085
9.87 0.224939
9.88 0.238666
9.89 0.251984
9.9 0.26485
9.91 0.277276
9.92 0.289242
9.93 0.300735
9.94 0.311739
9.95 0.322242
9.96 0.332181
9.97 0.341577
9.98 0.350428
9.99 0.358717
10 0.366428
10.01 0.373545
10.02 0.38003
10.03 0.385827
10.04 0.390974
10.05 0.395454
10.06 0.399256
10.07 0.402371
10.08 0.404791
10.09 0.406461
10.1 0.407419
10.11 0.407702
10.12 0.40733
10.13 0.406327
10.14 0.404727
10.15 0.40256
10.16 0.399834
10.17 0.396658
10.18 0.393086
10.19 0.38918
10.2 0.385001
10.21 0.380613
10.22 0.376074
10.23 0.371457
10.24 0.366829
10.25 0.362243
10.26 0.357751
10.27 0.353394
10.28 0.349212
10.29 0.345258
10.3 0.341532
10.31 0.338045
10.32 0.3348
10.33 0.331792
10.34 0.329009
10.35 0.326442
10.36 0.324058
10.37 0.321811
10.38 0.319662
10.39 0.317568
10.4 0.315481
10.41 0.313351
10.42 0.311108
10.43 0.308706
10.44 0.306091
10.45 0.303208
10.46 0.300006
10.47 0.296434
10.48 0.292418
10.49 0.287898
10.5 0.282858
10.51 0.277259
10.52 0.271066
10.53 0.264245
10.54 0.256771
10.55 0.248549
10.56 0.239621
10.57 0.229987
10.58 0.219644
10.59 0.208595
10.6 0.196851
10.61 0.184402
10.62 0.171252
10.63 0.157488
10.64 0.143151
10.65 0.128289
10.66 0.112957
10.67 0.0972165
10.68 0.0811081
10.69 0.0647345
10.7 0.0481792
10.71 0.031519
10.72 0.0148315
10.73 -0.00180709
10.74 -0.0183171
10.75 -0.034607
10.76 -0.0506259
10.77 -0.0663173
10.78 -0.0816329
10.79 -0.0965339
10.8 -0.110991
10.81 -0.124949
10.82 -0.138421
10.83 -0.151431
10.84 -0.163995
10.85 -0.176142
10.86 -0.187906
10.87 -0.199327
10.88 -0.210436
10.89 -0.221322
10.9 -0.232041
10.91 -0.24265
10.92 -0.253204
10.93 -0.263755
10.94 -0.274352
10.95 -0.285037
10.96 -0.295834
10.97 -0.306756
10.98 -0.317807
10.99 -0.32898
11 -0.340253
11.01 -0.351596
11.02 -0.36295
11.03 -0.374257
11.04 -0.385449
11.05 -0.396453
11.06 -0.407188
11.07 -0.417543
11.08 -0.427419
11.09 -0.43675
11.1 -0.445456
11.11 -0.453458
11.12 -0.460685
11.13 -0.467074
11.14 -0.47247
11.15 -0.47692
11.16 -0.480402
11.17 -0.482901
11.18 -0.484411
11.19 -0.48494
11.2 -0.484461
11.21 -0.482986
11.22 -0.480618
11.23 -0.477403
11.24 -0.47339
11.25 -0.468631
11.26 -0.463181
11.27 -0.457035
11.28 -0.450304
11.29 -0.443048
11.3 -0.43531
11.31 -0.427129
11.32 -0.418537
11.33 -0.409548
11.34 -0.400165
11.35 -0.390431
11.36 -0.380348
11.37 -0.369917
11.38 -0.359132
11.39 -0.347984
11.4 -0.336427
11.41 -0.324469
11.42 -0.312108
11.43 -0.299334
11.44 -0.286138
11.45 -0.272517
11.46 -0.25846
11.47 -0.243948
11.48 -0.229033
11.49 -0.213736
11.5 -0.198085
11.51 -0.182115
11.52 -0.165865
11.53 -0.149368
11.54 -0.132693
11.55 -0.115906
11.56 -0.0990682
11.57 -0.0822425
11.58 -0.0654939
11.59 -0.04889
11.6 -0.0325219
11.61 -0.0164355
11.62 -0.000690236
11.63 0.0146585
11.64 0.0295594
11.65 0.0439664
11.66 0.057801
11.67 0.0710322
11.68 0.0836607
11.69 0.0956655
11.7 0.107032
11.71 0.117752
11.72 0.127821
11.73 0.13717
11.74 0.145883
11.75 0.153973
11.76 0.16146
11.77 0.168363
11.78 0.174708
11.79 0.180493
11.8 0.185747
11.81 0.190533
11.82 0.194881
11.83 0.198821
11.84 0.202379
11.85 0.205584
11.86 0.208427
11.87 0.210963
11.88 0.213214
11.89 0.215193
11.9 0.21691
11.91 0.21837
11.92 0.21956
11.93 0.220466
11.94 0.221096
11.95 0.221431
11.96 0.221449
11.97 0.221122
11.98 0.220419
11.99 0.219259
12 0.217629
12.01 0.215494
12.02 0.212808
12.03 0.209525
12.04 0.205599
12.05 0.20096
12.06 0.195523
12.07 0.189306
12.08 0.182275
12.09 0.174402
12.1 0.165665
12.11 0.156047
12.12 0.145466
12.13 0.133975
12.14 0.121614
12.15 0.108407
12.16 0.0943864
