# xPDFsuite Configuration #
[PDF]
wavelength = 0.1
dataformat = QA
inputfile = BiMsol6_insitu_700 C-00408.xy
backgroundfile = Quartz2mm-dist500-00000.xy
mode = xray
bgscale = 0.0042
composition = Bi2Fe4O9
outputtype = gr
qmaxinst = 24.998449118
qmin = 0.1
qmax = 21.4986662415
rmax = 80.0
rmin = 0.0
rstep = 0.01
rpoly = 0.9

[Misc]
inputdir = C:/Data/Seafile/CPH/Beamtime/Desy Oct 20/In situ data/Processed/BiMsol6/PDF
savedir = C:/Data/Seafile/CPH/Beamtime/Desy Oct 20/In situ data/PDF/BiMsol6
backgroundfilefull = C:/Data/Seafile/CPH/Beamtime/Desy Oct 20/In situ data/Processed/Standard_Empty_Cap/Quartz2mm-dist500-00000.xy

#### start data
#S 1
#L r($\AA$)  G($\AA^{-2}$)
0 0
0.01 0.00591271
0.02 0.0114861
0.03 0.0164299
0.04 0.020484
0.05 0.0234306
0.06 0.0251041
0.07 0.0253245
0.08 0.0240413
0.09 0.0213914
0.1 0.0174884
0.11 0.0125072
0.12 0.00667567
0.13 0.00026517
0.14 -0.00641742
0.15 -0.0129931
0.16 -0.0191415
0.17 -0.0245629
0.18 -0.0289901
0.19 -0.0322019
0.2 -0.0339722
0.21 -0.0341511
0.22 -0.0328406
0.23 -0.0301131
0.24 -0.0261154
0.25 -0.0210637
0.26 -0.0152356
0.27 -0.00895163
0.28 -0.00265472
0.29 0.00326013
0.3 0.00840995
0.31 0.012433
0.32 0.0150068
0.33 0.015806
0.34 0.0145153
0.35 0.0112031
0.36 0.00588231
0.37 -0.00133185
0.38 -0.0102215
0.39 -0.0204689
0.4 -0.0317009
0.41 -0.0433031
0.42 -0.0546742
0.43 -0.0652016
0.44 -0.0742535
0.45 -0.0812024
0.46 -0.0853843
0.47 -0.0859403
0.48 -0.0827002
0.49 -0.0753242
0.5 -0.0635941
0.51 -0.0474272
0.52 -0.0268863
0.53 -0.00190951
0.54 0.0269457
0.55 0.0589493
0.56 0.0934241
0.57 0.12958
0.58 0.166534
0.59 0.203327
0.6 0.238732
0.61 0.271788
0.62 0.301531
0.63 0.327051
0.64 0.347533
0.65 0.362273
0.66 0.370292
0.67 0.371188
0.68 0.365132
0.69 0.352121
0.7 0.332338
0.71 0.306142
0.72 0.274067
0.73 0.236294
0.74 0.194328
0.75 0.149134
0.76 0.101741
0.77 0.0532154
0.78 0.0046387
0.79 -0.0428258
0.8 -0.0879993
0.81 -0.130063
0.82 -0.168232
0.83 -0.20186
0.84 -0.230448
0.85 -0.25366
0.86 -0.270756
0.87 -0.282265
0.88 -0.288469
0.89 -0.289724
0.9 -0.286516
0.91 -0.279442
0.92 -0.269095
0.93 -0.256243
0.94 -0.241911
0.95 -0.22689
0.96 -0.21194
0.97 -0.197774
0.98 -0.185032
0.99 -0.174488
1 -0.166481
1.01 -0.161255
1.02 -0.15898
1.03 -0.159703
1.04 -0.163354
1.05 -0.169822
1.06 -0.178928
1.07 -0.190054
1.08 -0.20276
1.09 -0.21657
1.1 -0.230989
1.11 -0.245522
1.12 -0.259632
1.13 -0.272854
1.14 -0.284842
1.15 -0.295303
1.16 -0.304024
1.17 -0.310873
1.18 -0.315772
1.19 -0.318615
1.2 -0.319724
1.21 -0.319295
1.22 -0.317575
1.23 -0.314852
1.24 -0.311437
1.25 -0.307647
1.26 -0.303847
1.27 -0.300337
1.28 -0.297367
1.29 -0.295136
1.3 -0.29379
1.31 -0.29342
1.32 -0.294147
1.33 -0.295804
1.34 -0.298278
1.35 -0.301402
1.36 -0.304972
1.37 -0.30875
1.38 -0.312465
1.39 -0.315816
1.4 -0.318564
1.41 -0.320486
1.42 -0.321396
1.43 -0.321154
1.44 -0.319673
1.45 -0.316785
1.46 -0.312674
1.47 -0.307454
1.48 -0.301291
1.49 -0.2944
1.5 -0.287038
1.51 -0.279499
1.52 -0.272139
1.53 -0.265278
1.54 -0.259215
1.55 -0.254223
1.56 -0.250538
1.57 -0.248348
1.58 -0.247952
1.59 -0.24927
1.6 -0.252252
1.61 -0.256801
1.62 -0.262752
1.63 -0.269876
1.64 -0.277906
1.65 -0.286481
1.66 -0.295158
1.67 -0.303544
1.68 -0.311242
1.69 -0.317868
1.7 -0.323063
1.71 -0.326326
1.72 -0.327479
1.73 -0.326386
1.74 -0.322937
1.75 -0.317096
1.76 -0.30891
1.77 -0.29845
1.78 -0.285818
1.79 -0.2715
1.8 -0.255834
1.81 -0.239202
1.82 -0.222018
1.83 -0.20471
1.84 -0.187764
1.85 -0.171633
1.86 -0.156675
1.87 -0.143218
1.88 -0.131533
1.89 -0.121822
1.9 -0.11425
1.91 -0.109057
1.92 -0.105982
1.93 -0.104908
1.94 -0.10565
1.95 -0.107962
1.96 -0.111549
1.97 -0.116116
1.98 -0.121234
1.99 -0.126491
2 -0.131526
2.01 -0.136002
2.02 -0.139614
2.03 -0.142101
2.04 -0.143099
2.05 -0.142619
2.06 -0.14061
2.07 -0.13709
2.08 -0.132144
2.09 -0.125925
2.1 -0.118597
2.11 -0.110464
2.12 -0.101898
2.13 -0.0932323
2.14 -0.0848127
2.15 -0.0769838
2.16 -0.0700765
2.17 -0.0645601
2.18 -0.0605951
2.19 -0.0583787
2.2 -0.0580614
2.21 -0.0597327
2.22 -0.0634185
2.23 -0.0691661
2.24 -0.0769011
2.25 -0.0863111
2.26 -0.0971754
2.27 -0.109234
2.28 -0.122195
2.29 -0.13575
2.3 -0.149576
2.31 -0.163301
2.32 -0.176627
2.33 -0.189286
2.34 -0.201046
2.35 -0.211715
2.36 -0.221107
2.37 -0.229062
2.38 -0.235658
2.39 -0.240924
2.4 -0.244934
2.41 -0.247806
2.42 -0.249696
2.43 -0.250737
2.44 -0.251209
2.45 -0.251352
2.46 -0.251387
2.47 -0.251524
2.48 -0.251957
2.49 -0.252872
2.5 -0.254467
2.51 -0.256792
2.52 -0.259908
2.53 -0.263835
2.54 -0.268557
2.55 -0.274022
2.56 -0.280186
2.57 -0.286896
2.58 -0.293986
2.59 -0.301306
2.6 -0.308696
2.61 -0.315998
2.62 -0.323054
2.63 -0.329674
2.64 -0.33577
2.65 -0.341245
2.66 -0.346031
2.67 -0.350083
2.68 -0.353383
2.69 -0.355892
2.7 -0.357657
2.71 -0.358771
2.72 -0.359299
2.73 -0.359318
2.74 -0.358905
2.75 -0.358136
2.76 -0.357054
2.77 -0.355752
2.78 -0.354263
2.79 -0.352604
2.8 -0.350768
2.81 -0.348724
2.82 -0.346403
2.83 -0.343714
2.84 -0.340577
2.85 -0.336882
2.86 -0.332512
2.87 -0.327344
2.88 -0.321256
2.89 -0.314015
2.9 -0.305611
2.91 -0.29598
2.92 -0.285067
2.93 -0.272848
2.94 -0.259326
2.95 -0.244485
2.96 -0.228367
2.97 -0.21117
2.98 -0.193027
2.99 -0.174091
3 -0.154538
3.01 -0.134554
3.02 -0.114334
3.03 -0.0941146
3.04 -0.0740907
3.05 -0.0544411
3.06 -0.0353263
3.07 -0.0168844
3.08 0.000745921
3.09 0.0174306
3.1 0.0331979
3.11 0.04804
3.12 0.0619811
3.13 0.0750751
3.14 0.0874026
3.15 0.0990213
3.16 0.110105
3.17 0.120811
3.18 0.131279
3.19 0.14165
3.2 0.152055
3.21 0.16262
3.22 0.173477
3.23 0.18468
3.24 0.196278
3.25 0.208289
3.26 0.220702
3.27 0.233477
3.28 0.24656
3.29 0.259832
3.3 0.27316
3.31 0.286404
3.32 0.299416
3.33 0.312037
3.34 0.324101
3.35 0.335368
3.36 0.34576
3.37 0.35515
3.38 0.363434
3.39 0.37053
3.4 0.376383
3.41 0.380887
3.42 0.384059
3.43 0.386008
3.44 0.386798
3.45 0.386522
3.46 0.385294
3.47 0.383244
3.48 0.380463
3.49 0.3772
3.5 0.373622
3.51 0.369895
3.52 0.366183
3.53 0.36264
3.54 0.359434
3.55 0.356721
3.56 0.354589
3.57 0.353132
3.58 0.352424
3.59 0.352521
3.6 0.353459
3.61 0.355351
3.62 0.358118
3.63 0.361735
3.64 0.366176
3.65 0.371406
3.66 0.377379
3.67 0.384072
3.68 0.391446
3.69 0.39939
3.7 0.407846
3.71 0.416755
3.72 0.426058
3.73 0.435695
3.74 0.445629
3.75 0.455772
3.76 0.466059
3.77 0.476426
3.78 0.486808
3.79 0.497138
3.8 0.507335
3.81 0.517299
3.82 0.526961
3.83 0.536231
3.84 0.545017
3.85 0.553223
3.86 0.560749
3.87 0.567423
3.88 0.573168
3.89 0.577911
3.9 0.581556
3.91 0.584014
3.92 0.5852
3.93 0.585011
3.94 0.58326
3.95 0.58003
3.96 0.575281
3.97 0.568984
3.98 0.561126
3.99 0.551703
4 0.540618
4.01 0.527938
4.02 0.513771
4.03 0.498164
4.04 0.481173
4.05 0.462861
4.06 0.443291
4.07 0.422426
4.08 0.400485
4.09 0.37755
4.1 0.35371
4.11 0.329053
4.12 0.30367
4.13 0.277621
4.14 0.251017
4.15 0.223989
4.16 0.196633
4.17 0.169051
4.18 0.141343
4.19 0.113612
4.2 0.0859858
4.21 0.0585728
4.22 0.0314807
4.23 0.00481765
4.24 -0.0213089
4.25 -0.0467939
4.26 -0.0714944
4.27 -0.0952853
4.28 -0.118132
4.29 -0.139956
4.3 -0.160692
4.31 -0.180287
4.32 -0.198701
4.33 -0.215787
4.34 -0.231645
4.35 -0.246305
4.36 -0.259799
4.37 -0.272172
4.38 -0.283485
4.39 -0.293777
4.4 -0.303111
4.41 -0.31166
4.42 -0.319524
4.43 -0.326807
4.44 -0.333612
4.45 -0.340038
4.46 -0.346159
4.47 -0.352083
4.48 -0.357886
4.49 -0.363618
4.5 -0.369317
4.51 -0.375002
4.52 -0.380675
4.53 -0.386318
4.54 -0.391899
4.55 -0.397373
4.56 -0.402682
4.57 -0.407763
4.58 -0.412545
4.59 -0.416924
4.6 -0.420838
4.61 -0.424238
4.62 -0.427071
4.63 -0.429297
4.64 -0.430887
4.65 -0.431821
4.66 -0.432052
4.67 -0.431675
4.68 -0.430733
4.69 -0.429289
4.7 -0.427417
4.71 -0.425207
4.72 -0.422746
4.73 -0.420159
4.74 -0.417564
4.75 -0.415067
4.76 -0.41277
4.77 -0.410766
4.78 -0.40914
4.79 -0.408014
4.8 -0.407393
4.81 -0.40731
4.82 -0.407778
4.83 -0.408794
4.84 -0.410337
4.85 -0.412395
4.86 -0.414909
4.87 -0.417786
4.88 -0.420954
4.89 -0.424336
4.9 -0.427852
4.91 -0.431424
4.92 -0.434969
4.93 -0.438415
4.94 -0.441706
4.95 -0.444796
4.96 -0.447648
4.97 -0.45024
4.98 -0.452544
4.99 -0.454553
5 -0.456291
5.01 -0.457772
5.02 -0.459009
5.03 -0.460017
5.04 -0.460809
5.05 -0.461368
5.06 -0.461707
5.07 -0.461812
5.08 -0.461653
5.09 -0.461183
5.1 -0.460341
5.11 -0.459031
5.12 -0.457123
5.13 -0.454545
5.14 -0.451179
5.15 -0.446899
5.16 -0.441574
5.17 -0.435073
5.18 -0.42714
5.19 -0.41772
5.2 -0.406743
5.21 -0.394119
5.22 -0.379776
5.23 -0.363663
5.24 -0.345708
5.25 -0.325789
5.26 -0.304102
5.27 -0.2807
5.28 -0.25566
5.29 -0.22908
5.3 -0.201076
5.31 -0.171692
5.32 -0.141142
5.33 -0.10963
5.34 -0.0773103
5.35 -0.0443401
5.36 -0.0108705
5.37 0.0229573
5.38 0.0570135
5.39 0.0911453
5.4 0.125247
5.41 0.159225
5.42 0.193
5.43 0.226504
5.44 0.25965
5.45 0.292386
5.46 0.324679
5.47 0.356481
5.48 0.387739
5.49 0.418392
5.5 0.448368
5.51 0.477484
5.52 0.505717
5.53 0.532943
5.54 0.559024
5.55 0.583805
5.56 0.607112
5.57 0.628659
5.58 0.648207
5.59 0.665659
5.6 0.680812
5.61 0.693471
5.62 0.703449
5.63 0.710578
5.64 0.714373
5.65 0.715005
5.66 0.712424
5.67 0.706587
5.68 0.697491
5.69 0.685175
5.7 0.669587
5.71 0.650784
5.72 0.629167
5.73 0.604942
5.74 0.578346
5.75 0.549645
5.76 0.519123
5.77 0.48696
5.78 0.453616
5.79 0.419425
5.8 0.384685
5.81 0.349678
5.82 0.314669
5.83 0.279912
5.84 0.245666
5.85 0.212079
5.86 0.179291
5.87 0.147407
5.88 0.116505
5.89 0.0866288
5.9 0.05789
5.91 0.0302257
5.92 0.00358081
5.93 -0.0220775
5.94 -0.0467871
5.95 -0.0705858
5.96 -0.0934874
5.97 -0.115453
5.98 -0.13657
5.99 -0.156826
6 -0.176188
6.01 -0.194604
6.02 -0.212001
6.03 -0.228199
6.04 -0.243112
6.05 -0.256665
6.06 -0.268732
6.07 -0.279182
6.08 -0.287891
6.09 -0.29472
6.1 -0.299369
6.11 -0.301962
6.12 -0.302447
6.13 -0.300801
6.14 -0.297035
6.15 -0.291189
6.16 -0.28322
6.17 -0.273281
6.18 -0.261628
6.19 -0.248438
6.2 -0.233912
6.21 -0.218271
6.22 -0.201747
6.23 -0.184535
6.24 -0.166971
6.25 -0.149289
6.26 -0.131708
6.27 -0.114427
6.28 -0.0976233
6.29 -0.0814829
6.3 -0.0661433
6.31 -0.0516361
6.32 -0.0379996
6.33 -0.0252383
6.34 -0.0133242
6.35 -0.00219962
6.36 0.00815631
6.37 0.0179308
6.38 0.0272583
6.39 0.0362758
6.4 0.0451243
6.41 0.0539446
6.42 0.0628809
6.43 0.0720805
6.44 0.0816378
6.45 0.0916378
6.46 0.102145
6.47 0.1132
6.48 0.124822
6.49 0.13706
6.5 0.149842
6.51 0.163111
6.52 0.176804
6.53 0.190853
6.54 0.205178
6.55 0.219703
6.56 0.234346
6.57 0.249018
6.58 0.263656
6.59 0.27821
6.6 0.29264
6.61 0.306924
6.62 0.321041
6.63 0.335006
6.64 0.348846
6.65 0.362592
6.66 0.376282
6.67 0.389959
6.68 0.403663
6.69 0.417443
6.7 0.43132
6.71 0.445308
6.72 0.459406
6.73 0.473591
6.74 0.487824
6.75 0.502032
6.76 0.516115
6.77 0.529962
6.78 0.543438
6.79 0.556394
6.8 0.568664
6.81 0.580063
6.82 0.590282
6.83 0.599234
6.84 0.606739
6.85 0.612626
6.86 0.616737
6.87 0.618932
6.88 0.618961
6.89 0.616729
6.9 0.612289
6.91 0.605607
6.92 0.596676
6.93 0.58552
6.94 0.572184
6.95 0.55651
6.96 0.538839
6.97 0.51929
6.98 0.497991
6.99 0.475078
7 0.450693
7.01 0.424919
7.02 0.397897
7.03 0.369847
7.04 0.340893
7.05 0.311148
7.06 0.280713
7.07 0.249678
7.08 0.218073
7.09 0.186016
7.1 0.153569
7.11 0.120781
7.12 0.087695
7.13 0.0543543
7.14 0.0207969
7.15 -0.0129275
7.16 -0.0467457
7.17 -0.0805907
7.18 -0.114385
7.19 -0.148037
7.2 -0.181447
7.21 -0.214454
7.22 -0.24694
7.23 -0.278778
7.24 -0.309826
7.25 -0.339936
7.26 -0.368964
7.27 -0.396728
7.28 -0.422996
7.29 -0.447758
7.3 -0.470912
7.31 -0.492373
7.32 -0.512078
7.33 -0.529989
7.34 -0.545945
7.35 -0.560045
7.36 -0.572397
7.37 -0.583069
7.38 -0.592148
7.39 -0.599741
7.4 -0.605951
7.41 -0.610829
7.42 -0.614651
7.43 -0.617562
7.44 -0.619704
7.45 -0.621213
7.46 -0.622212
7.47 -0.62279
7.48 -0.623059
7.49 -0.623102
7.5 -0.622964
7.51 -0.622669
7.52 -0.622217
7.53 -0.621586
7.54 -0.620707
7.55 -0.61954
7.56 -0.618013
7.57 -0.616043
7.58 -0.613544
7.59 -0.610425
7.6 -0.606555
7.61 -0.601842
7.62 -0.596262
7.63 -0.58976
7.64 -0.582299
7.65 -0.573858
7.66 -0.564435
7.67 -0.553943
7.68 -0.542528
7.69 -0.530253
7.7 -0.51719
7.71 -0.503426
7.72 -0.489058
7.73 -0.474174
7.74 -0.458891
7.75 -0.443355
7.76 -0.427675
7.77 -0.411958
7.78 -0.396302
7.79 -0.380798
7.8 -0.365556
7.81 -0.350632
7.82 -0.336076
7.83 -0.321933
7.84 -0.308236
7.85 -0.29501
7.86 -0.282289
7.87 -0.270108
7.88 -0.258431
7.89 -0.247263
7.9 -0.236609
7.91 -0.226472
7.92 -0.216864
7.93 -0.207845
7.94 -0.199404
7.95 -0.19155
7.96 -0.184312
7.97 -0.177723
7.98 -0.17182
7.99 -0.16666
8 -0.162335
8.01 -0.158814
8.02 -0.156127
8.03 -0.154298
8.04 -0.153343
8.05 -0.153268
8.06 -0.154135
8.07 -0.155885
8.08 -0.158451
8.09 -0.161784
8.1 -0.165826
8.11 -0.170503
8.12 -0.175739
8.13 -0.181471
8.14 -0.187545
8.15 -0.193854
8.16 -0.200295
8.17 -0.206762
8.18 -0.213153
8.19 -0.219353
8.2 -0.225263
8.21 -0.230815
8.22 -0.23594
8.23 -0.240579
8.24 -0.244686
8.25 -0.248222
8.26 -0.25109
8.27 -0.253341
8.28 -0.254963
8.29 -0.25595
8.3 -0.256298
8.31 -0.256002
8.32 -0.255019
8.33 -0.253333
8.34 -0.250967
8.35 -0.247893
8.36 -0.244079
8.37 -0.23948
8.38 -0.234045
8.39 -0.227607
8.4 -0.220182
8.41 -0.211701
8.42 -0.202086
8.43 -0.191258
8.44 -0.179138
8.45 -0.16559
8.46 -0.150502
8.47 -0.13392
8.48 -0.115805
8.49 -0.0961349
8.5 -0.074903
8.51 -0.0521224
8.52 -0.0276814
8.53 -0.00176191
8.54 0.0255313
8.55 0.0541042
8.56 0.0838463
8.57 0.114633
8.58 0.146354
8.59 0.178881
8.6 0.211988
8.61 0.245523
8.62 0.279332
8.63 0.313268
8.64 0.347189
8.65 0.380939
8.66 0.414391
8.67 0.447444
8.68 0.480002
8.69 0.511985
8.7 0.543322
8.71 0.573936
8.72 0.603718
8.73 0.632693
8.74 0.660822
8.75 0.688069
8.76 0.714395
8.77 0.739759
8.78 0.764032
8.79 0.787182
8.8 0.809182
8.81 0.829951
8.82 0.849397
8.83 0.867415
8.84 0.883869
8.85 0.898464
8.86 0.911228
8.87 0.922023
8.88 0.930706
8.89 0.937138
8.9 0.941183
8.91 0.942544
8.92 0.941122
8.93 0.936955
8.94 0.929965
8.95 0.920097
8.96 0.90732
8.97 0.891623
8.98 0.872697
8.99 0.850933
9 0.826409
9.01 0.799226
9.02 0.76951
9.03 0.737406
9.04 0.702968
9.05 0.666384
9.06 0.627987
9.07 0.587979
9.08 0.546565
9.09 0.503955
9.1 0.460356
9.11 0.415911
9.12 0.370914
9.13 0.325565
9.14 0.280044
9.15 0.234527
9.16 0.189179
9.17 0.144177
9.18 0.0997062
9.19 0.0558816
9.2 0.0128384
9.21 -0.0292918
9.22 -0.0703803
9.23 -0.1103
9.24 -0.148787
9.25 -0.185796
9.26 -0.221228
9.27 -0.254952
9.28 -0.286841
9.29 -0.316763
9.3 -0.344521
9.31 -0.369853
9.32 -0.392822
9.33 -0.413314
9.34 -0.431228
9.35 -0.446473
9.36 -0.45897
9.37 -0.468416
9.38 -0.474912
9.39 -0.47853
9.4 -0.479271
9.41 -0.477157
9.42 -0.472232
9.43 -0.464507
9.44 -0.453879
9.45 -0.440721
9.46 -0.425161
9.47 -0.407338
9.48 -0.387407
9.49 -0.365532
9.5 -0.341767
9.51 -0.316365
9.52 -0.289578
9.53 -0.261583
9.54 -0.232552
9.55 -0.20265
9.56 -0.172032
9.57 -0.140812
9.58 -0.109204
9.59 -0.0773394
9.6 -0.0453406
9.61 -0.0133231
9.62 0.0186048
9.63 0.0503221
9.64 0.0817173
9.65 0.112707
9.66 0.143197
9.67 0.173092
9.68 0.202297
9.69 0.230714
9.7 0.258127
9.71 0.284523
9.72 0.309795
9.73 0.333835
9.74 0.356532
9.75 0.377777
9.76 0.397378
9.77 0.415194
9.78 0.431235
9.79 0.445418
9.8 0.457671
9.81 0.467937
9.82 0.476174
9.83 0.482144
9.84 0.486031
9.85 0.487883
9.86 0.487738
9.87 0.485654
9.88 0.481711
9.89 0.475935
9.9 0.468394
9.91 0.459348
9.92 0.448934
9.93 0.437295
9.94 0.424575
9.95 0.410924
9.96 0.396425
9.97 0.381288
9.98 0.365659
9.99 0.349657
10 0.333385
10.01 0.316936
10.02 0.300385
10.03 0.283795
10.04 0.267217
10.05 0.250679
10.06 0.234195
10.07 0.217771
10.08 0.201401
10.09 0.185076
10.1 0.168776
10.11 0.15248
10.12 0.136171
10.13 0.119836
10.14 0.103465
10.15 0.0870543
10.16 0.0706093
10.17 0.0541497
10.18 0.0377008
10.19 0.0212966
10.2 0.00497963
10.21 -0.0112007
10.22 -0.027171
10.23 -0.0428675
10.24 -0.058237
10.25 -0.0732175
10.26 -0.087749
10.27 -0.101776
10.28 -0.115244
10.29 -0.128047
10.3 -0.140215
10.31 -0.15173
10.32 -0.162581
10.33 -0.172773
10.34 -0.182318
10.35 -0.191206
10.36 -0.199478
10.37 -0.207215
10.38 -0.214468
10.39 -0.221295
10.4 -0.227753
10.41 -0.233905
10.42 -0.239791
10.43 -0.245502
10.44 -0.251093
10.45 -0.256613
10.46 -0.262105
10.47 -0.267607
10.48 -0.273148
10.49 -0.278756
10.5 -0.284439
10.51 -0.290203
10.52 -0.296049
10.53 -0.301972
10.54 -0.307964
10.55 -0.314018
10.56 -0.320115
10.57 -0.326241
10.58 -0.332385
10.59 -0.338534
10.6 -0.344682
10.61 -0.350822
10.62 -0.356951
10.63 -0.363071
10.64 -0.369185
10.65 -0.375298
10.66 -0.381419
10.67 -0.387554
10.68 -0.393713
10.69 -0.399902
10.7 -0.406123
10.71 -0.412377
10.72 -0.41866
10.73 -0.424966
10.74 -0.431283
10.75 -0.43759
10.76 -0.443865
10.77 -0.450084
10.78 -0.456215
10.79 -0.46223
10.8 -0.468093
10.81 -0.473756
10.82 -0.479188
10.83 -0.484369
10.84 -0.48927
10.85 -0.49387
10.86 -0.498152
10.87 -0.502098
10.88 -0.505675
10.89 -0.508917
10.9 -0.511832
10.91 -0.514431
10.92 -0.516733
10.93 -0.518756
10.94 -0.520506
10.95 -0.522012
10.96 -0.523308
10.97 -0.524409
10.98 -0.525329
10.99 -0.526074
11 -0.526641
11.01 -0.527002
11.02 -0.527154
11.03 -0.52707
11.04 -0.526711
11.05 -0.526031
11.06 -0.524977
11.07 -0.523461
11.08 -0.521407
11.09 -0.518774
11.1 -0.515496
11.11 -0.511506
11.12 -0.506745
11.13 -0.501159
11.14 -0.494603
11.15 -0.487132
11.16 -0.478733
11.17 -0.469402
11.18 -0.459147
11.19 -0.447994
11.2 -0.435945
11.21 -0.423042
11.22 -0.409416
11.23 -0.395145
11.24 -0.38032
11.25 -0.365035
11.26 -0.349389
11.27 -0.333466
11.28 -0.317398
11.29 -0.301281
11.3 -0.2852
11.31 -0.26923
11.32 -0.253436
11.33 -0.237876
11.34 -0.222601
11.35 -0.207607
11.36 -0.192895
11.37 -0.17845
11.38 -0.164243
11.39 -0.150233
11.4 -0.136374
11.41 -0.122588
11.42 -0.108801
11.43 -0.0949402
11.44 -0.0809327
11.45 -0.0667066
11.46 -0.0521858
11.47 -0.0372782
11.48 -0.0219615
11.49 -0.00619572
11.5 0.0100477
11.51 0.0267853
11.52 0.0440214
11.53 0.0617848
11.54 0.0800335
11.55 0.0987161
11.56 0.117792
11.57 0.137214
11.58 0.156929
11.59 0.176885
11.6 0.197032
11.61 0.217293
11.62 0.237614
11.63 0.257946
11.64 0.278246
11.65 0.298477
11.66 0.3186
11.67 0.338588
11.68 0.358431
11.69 0.378119
11.7 0.397643
11.71 0.416999
11.72 0.436185
11.73 0.455175
11.74 0.473982
11.75 0.492594
11.76 0.510994
11.77 0.529155
11.78 0.547041
11.79 0.564588
11.8 0.581727
11.81 0.598409
11.82 0.614555
11.83 0.630075
11.84 0.644873
11.85 0.658845
11.86 0.671768
11.87 0.68361
11.88 0.694269
11.89 0.703632
11.9 0.711595
11.91 0.718058
11.92 0.722859
11.93 0.725861
11.94 0.72712
11.95 0.726589
11.96 0.724236
11.97 0.720048
11.98 0.714025
11.99 0.706012
12 0.696188
12.01 0.684642
12.02 0.671439
12.03 0.656654
12.04 0.640375
12.05 0.622652
12.06 0.603535
12.07 0.583246
12.08 0.561893
12.09 0.539585
12.1 0.516433
12.11 0.492543
12.12 0.467977
12.13 0.442883
12.14 0.417381
12.15 0.391568
12.16 0.365537
12.17 0.33938
12.18 0.313189
12.19 0.28707
12.2 0.261113
12.21 0.235408
12.22 0.210047
12.23 0.185121
12.24 0.160724
12.25 0.137004
12.26 0.114052
12.27 0.0919347
