# xPDFsuite Configuration #
[PDF]
wavelength = 0.1
dataformat = QA
inputfile = BiMsol6_insitu_700 C-00540.xy
backgroundfile = Quartz2mm-dist500-00000.xy
mode = xray
bgscale = 0.0042
composition = Bi2Fe4O9
outputtype = gr
qmaxinst = 24.998449118
qmin = 0.1
qmax = 21.4986662415
rmax = 80.0
rmin = 0.0
rstep = 0.01
rpoly = 0.9

[Misc]
inputdir = C:/Data/Seafile/CPH/Beamtime/Desy Oct 20/In situ data/Processed/BiMsol6/PDF
savedir = C:/Data/Seafile/CPH/Beamtime/Desy Oct 20/In situ data/PDF/BiMsol6
backgroundfilefull = C:/Data/Seafile/CPH/Beamtime/Desy Oct 20/In situ data/Processed/Standard_Empty_Cap/Quartz2mm-dist500-00000.xy

#### start data
#S 1
#L r($\AA$)  G($\AA^{-2}$)
0 0
0.01 0.00586755
0.02 0.0113987
0.03 0.0163057
0.04 0.0203306
0.05 0.0232571
0.06 0.0249208
0.07 0.0251426
0.08 0.0238716
0.09 0.0212428
0.1 0.0173681
0.11 0.0124196
0.12 0.00662248
0.13 0.000244823
0.14 -0.00641073
0.15 -0.0129683
0.16 -0.0191104
0.17 -0.0245395
0.18 -0.0289905
0.19 -0.0322427
0.2 -0.0340707
0.21 -0.0343236
0.22 -0.0330995
0.23 -0.0304673
0.24 -0.0265692
0.25 -0.0216158
0.26 -0.0158788
0.27 -0.0096702
0.28 -0.00342634
0.29 0.00246388
0.3 0.00762345
0.31 0.0116958
0.32 0.0143624
0.33 0.0153018
0.34 0.0142022
0.35 0.0111262
0.36 0.00608339
0.37 -0.000817069
0.38 -0.00936516
0.39 -0.0192532
0.4 -0.0301205
0.41 -0.0413687
0.42 -0.0524119
0.43 -0.0626539
0.44 -0.0714796
0.45 -0.0782784
0.46 -0.082405
0.47 -0.0830262
0.48 -0.0799762
0.49 -0.072927
0.5 -0.0616697
0.51 -0.0461282
0.52 -0.0263685
0.53 -0.00234021
0.54 0.0254081
0.55 0.0561611
0.56 0.089253
0.57 0.123908
0.58 0.159263
0.59 0.194375
0.6 0.228041
0.61 0.259334
0.62 0.287314
0.63 0.311102
0.64 0.32991
0.65 0.343061
0.66 0.349614
0.67 0.349195
0.68 0.341991
0.69 0.328021
0.7 0.307485
0.71 0.280759
0.72 0.248385
0.73 0.210585
0.74 0.168836
0.75 0.124106
0.76 0.0774151
0.77 0.0298258
0.78 -0.0175941
0.79 -0.0636862
0.8 -0.107289
0.81 -0.147619
0.82 -0.183916
0.83 -0.215556
0.84 -0.242068
0.85 -0.263143
0.86 -0.278069
0.87 -0.28741
0.88 -0.291476
0.89 -0.290649
0.9 -0.28544
0.91 -0.276471
0.92 -0.264363
0.93 -0.249911
0.94 -0.234147
0.95 -0.217873
0.96 -0.201861
0.97 -0.186828
0.98 -0.173419
0.99 -0.162422
1 -0.154158
1.01 -0.148857
1.02 -0.146673
1.03 -0.14764
1.04 -0.151666
1.05 -0.158619
1.06 -0.168299
1.07 -0.180047
1.08 -0.193397
1.09 -0.207843
1.1 -0.222859
1.11 -0.237923
1.12 -0.252459
1.13 -0.265977
1.14 -0.278112
1.15 -0.288552
1.16 -0.297069
1.17 -0.303521
1.18 -0.307819
1.19 -0.30984
1.2 -0.309933
1.21 -0.308305
1.22 -0.305218
1.23 -0.300982
1.24 -0.295932
1.25 -0.290411
1.26 -0.284824
1.27 -0.27951
1.28 -0.274755
1.29 -0.270794
1.3 -0.267811
1.31 -0.26593
1.32 -0.265324
1.33 -0.265839
1.34 -0.267381
1.35 -0.269801
1.36 -0.272904
1.37 -0.276456
1.38 -0.280196
1.39 -0.28381
1.4 -0.287024
1.41 -0.289592
1.42 -0.291298
1.43 -0.291965
1.44 -0.291466
1.45 -0.28959
1.46 -0.286466
1.47 -0.282166
1.48 -0.276811
1.49 -0.270576
1.5 -0.263679
1.51 -0.256369
1.52 -0.248969
1.53 -0.241795
1.54 -0.235136
1.55 -0.229264
1.56 -0.22442
1.57 -0.220807
1.58 -0.218725
1.59 -0.218149
1.6 -0.21907
1.61 -0.221435
1.62 -0.225127
1.63 -0.229967
1.64 -0.235744
1.65 -0.242158
1.66 -0.248814
1.67 -0.255363
1.68 -0.26145
1.69 -0.266725
1.7 -0.270854
1.71 -0.273385
1.72 -0.274127
1.73 -0.272934
1.74 -0.269681
1.75 -0.26431
1.76 -0.256835
1.77 -0.24729
1.78 -0.235732
1.79 -0.222571
1.8 -0.208086
1.81 -0.192593
1.82 -0.176442
1.83 -0.159995
1.84 -0.143653
1.85 -0.127812
1.86 -0.11279
1.87 -0.0988713
1.88 -0.0862929
1.89 -0.0752349
1.9 -0.0658418
1.91 -0.0583157
1.92 -0.0524594
1.93 -0.0481841
1.94 -0.0453451
1.95 -0.0437494
1.96 -0.0431649
1.97 -0.0433622
1.98 -0.0440098
1.99 -0.0447936
2 -0.0454476
2.01 -0.0457302
2.02 -0.0454349
2.03 -0.0443969
2.04 -0.0424072
2.05 -0.0395177
2.06 -0.0357541
2.07 -0.0312026
2.08 -0.0260072
2.09 -0.0203647
2.1 -0.0145222
2.11 -0.00880648
2.12 -0.00353641
2.13 0.000969049
2.14 0.00439359
2.15 0.00643597
2.16 0.00682215
2.17 0.00508851
2.18 0.00123336
2.19 -0.00484233
2.2 -0.0131879
2.21 -0.0237858
2.22 -0.0365504
2.23 -0.0514115
2.24 -0.0681627
2.25 -0.0863787
2.26 -0.105732
2.27 -0.125863
2.28 -0.146387
2.29 -0.166912
2.3 -0.186972
2.31 -0.206185
2.32 -0.224222
2.33 -0.240787
2.34 -0.255633
2.35 -0.26857
2.36 -0.279398
2.37 -0.287953
2.38 -0.294425
2.39 -0.298898
2.4 -0.301512
2.41 -0.302461
2.42 -0.30198
2.43 -0.300264
2.44 -0.297715
2.45 -0.294674
2.46 -0.291448
2.47 -0.288331
2.48 -0.285597
2.49 -0.283506
2.5 -0.282341
2.51 -0.282187
2.52 -0.283138
2.53 -0.285242
2.54 -0.288494
2.55 -0.292841
2.56 -0.298252
2.57 -0.304531
2.58 -0.31146
2.59 -0.318842
2.6 -0.326463
2.61 -0.334104
2.62 -0.341545
2.63 -0.34852
2.64 -0.354873
2.65 -0.360449
2.66 -0.365124
2.67 -0.368809
2.68 -0.371449
2.69 -0.372959
2.7 -0.37338
2.71 -0.372826
2.72 -0.371386
2.73 -0.36917
2.74 -0.366308
2.75 -0.362942
2.76 -0.359194
2.77 -0.355267
2.78 -0.351298
2.79 -0.347412
2.8 -0.343719
2.81 -0.340304
2.82 -0.337255
2.83 -0.334617
2.84 -0.332378
2.85 -0.330522
2.86 -0.329014
2.87 -0.3278
2.88 -0.326811
2.89 -0.32597
2.9 -0.325166
2.91 -0.324306
2.92 -0.323298
2.93 -0.322058
2.94 -0.320508
2.95 -0.318562
2.96 -0.316146
2.97 -0.313248
2.98 -0.309842
2.99 -0.30591
3 -0.301445
3.01 -0.296448
3.02 -0.290872
3.03 -0.284762
3.04 -0.278131
3.05 -0.270974
3.06 -0.26328
3.07 -0.255025
3.08 -0.246154
3.09 -0.236575
3.1 -0.226274
3.11 -0.215175
3.12 -0.20319
3.13 -0.190225
3.14 -0.176182
3.15 -0.160854
3.16 -0.144198
3.17 -0.12617
3.18 -0.106704
3.19 -0.0857526
3.2 -0.0632919
3.21 -0.039296
3.22 -0.0136975
3.23 0.0132822
3.24 0.041532
3.25 0.0709069
3.26 0.101229
3.27 0.132291
3.28 0.163875
3.29 0.195666
3.3 0.227365
3.31 0.25868
3.32 0.289316
3.33 0.318979
3.34 0.347368
3.35 0.374031
3.36 0.398867
3.37 0.421658
3.38 0.442218
3.39 0.460397
3.4 0.476081
3.41 0.489031
3.42 0.499234
3.43 0.506842
3.44 0.511904
3.45 0.514501
3.46 0.514745
3.47 0.51277
3.48 0.508518
3.49 0.502414
3.5 0.494649
3.51 0.485412
3.52 0.474896
3.53 0.463287
3.54 0.450728
3.55 0.437401
3.56 0.423519
3.57 0.409219
3.58 0.394624
3.59 0.379845
3.6 0.364973
3.61 0.350099
3.62 0.335297
3.63 0.320626
3.64 0.30614
3.65 0.291885
3.66 0.27791
3.67 0.264276
3.68 0.251054
3.69 0.238273
3.7 0.225992
3.71 0.214276
3.72 0.203195
3.73 0.192823
3.74 0.183322
3.75 0.174727
3.76 0.167103
3.77 0.160531
3.78 0.155088
3.79 0.150847
3.8 0.147912
3.81 0.146422
3.82 0.146306
3.83 0.147593
3.84 0.150297
3.85 0.15442
3.86 0.159947
3.87 0.16696
3.88 0.175345
3.89 0.184995
3.9 0.195841
3.91 0.207803
3.92 0.220793
3.93 0.234731
3.94 0.249568
3.95 0.265108
3.96 0.281243
3.97 0.297863
3.98 0.314859
3.99 0.332119
4 0.349539
4.01 0.366993
4.02 0.384367
4.03 0.401558
4.04 0.418463
4.05 0.434979
4.06 0.451001
4.07 0.466355
4.08 0.480998
4.09 0.49483
4.1 0.507755
4.11 0.519675
4.12 0.530499
4.13 0.540058
4.14 0.548259
4.15 0.555092
4.16 0.560487
4.17 0.564382
4.18 0.566726
4.19 0.567477
4.2 0.566425
4.21 0.563732
4.22 0.559407
4.23 0.55347
4.24 0.54595
4.25 0.536892
4.26 0.526285
4.27 0.514181
4.28 0.500762
4.29 0.486115
4.3 0.470333
4.31 0.453512
4.32 0.435748
4.33 0.417059
4.34 0.39762
4.35 0.377529
4.36 0.356862
4.37 0.335689
4.38 0.314069
4.39 0.292041
4.4 0.269636
4.41 0.246916
4.42 0.223904
4.43 0.20062
4.44 0.177076
4.45 0.153286
4.46 0.129243
4.47 0.104979
4.48 0.0805205
4.49 0.0558962
4.5 0.0311416
4.51 0.00630248
4.52 -0.0185642
4.53 -0.0433793
4.54 -0.0680611
4.55 -0.0925203
4.56 -0.116659
4.57 -0.140374
4.58 -0.163555
4.59 -0.186031
4.6 -0.207707
4.61 -0.228502
4.62 -0.248318
4.63 -0.267067
4.64 -0.284674
4.65 -0.301057
4.66 -0.316063
4.67 -0.329792
4.68 -0.342242
4.69 -0.353429
4.7 -0.363386
4.71 -0.372165
4.72 -0.379764
4.73 -0.386299
4.74 -0.39192
4.75 -0.396728
4.76 -0.400834
4.77 -0.404345
4.78 -0.40737
4.79 -0.409984
4.8 -0.412335
4.81 -0.414507
4.82 -0.416576
4.83 -0.418603
4.84 -0.420634
4.85 -0.422708
4.86 -0.424843
4.87 -0.427039
4.88 -0.429286
4.89 -0.431563
4.9 -0.43384
4.91 -0.436081
4.92 -0.438231
4.93 -0.44025
4.94 -0.442094
4.95 -0.443719
4.96 -0.445087
4.97 -0.446162
4.98 -0.446898
4.99 -0.447259
5 -0.447253
5.01 -0.446868
5.02 -0.446099
5.03 -0.444944
5.04 -0.443405
5.05 -0.441448
5.06 -0.439107
5.07 -0.436393
5.08 -0.433307
5.09 -0.429847
5.1 -0.426007
5.11 -0.421764
5.12 -0.417084
5.13 -0.411981
5.14 -0.406436
5.15 -0.400426
5.16 -0.39393
5.17 -0.386929
5.18 -0.379357
5.19 -0.371233
5.2 -0.36257
5.21 -0.353373
5.22 -0.343657
5.23 -0.33345
5.24 -0.322779
5.25 -0.311678
5.26 -0.300251
5.27 -0.288577
5.28 -0.276742
5.29 -0.264841
5.3 -0.252974
5.31 -0.241265
5.32 -0.229827
5.33 -0.218758
5.34 -0.208154
5.35 -0.198105
5.36 -0.188688
5.37 -0.179979
5.38 -0.1721
5.39 -0.165007
5.4 -0.158713
5.41 -0.153211
5.42 -0.14848
5.43 -0.144482
5.44 -0.141203
5.45 -0.138555
5.46 -0.136428
5.47 -0.134735
5.48 -0.133388
5.49 -0.132298
5.5 -0.131377
5.51 -0.130545
5.52 -0.129712
5.53 -0.128815
5.54 -0.127806
5.55 -0.126647
5.56 -0.125313
5.57 -0.123784
5.58 -0.122061
5.59 -0.120172
5.6 -0.11814
5.61 -0.115995
5.62 -0.11377
5.63 -0.111501
5.64 -0.109223
5.65 -0.106965
5.66 -0.104748
5.67 -0.10258
5.68 -0.100459
5.69 -0.0983688
5.7 -0.0962799
5.71 -0.0941411
5.72 -0.0918953
5.73 -0.0894743
5.74 -0.0868012
5.75 -0.0837934
5.76 -0.0803647
5.77 -0.0763718
5.78 -0.0717634
5.79 -0.0664768
5.8 -0.0604503
5.81 -0.0536363
5.82 -0.0460041
5.83 -0.0375142
5.84 -0.0281372
5.85 -0.0179779
5.86 -0.00709245
5.87 0.00444318
5.88 0.0165346
5.89 0.0290712
5.9 0.0419453
5.91 0.0549878
5.92 0.0680488
5.93 0.0809876
5.94 0.0936668
5.95 0.105957
5.96 0.117725
5.97 0.128812
5.98 0.139189
5.99 0.148795
6 0.157595
6.01 0.165573
6.02 0.172738
6.03 0.179065
6.04 0.184641
6.05 0.189569
6.06 0.193937
6.07 0.197838
6.08 0.201375
6.09 0.204647
6.1 0.207752
6.11 0.210804
6.12 0.213882
6.13 0.21705
6.14 0.220352
6.15 0.223815
6.16 0.227451
6.17 0.231234
6.18 0.235111
6.19 0.239016
6.2 0.242867
6.21 0.246563
6.22 0.249995
6.23 0.252984
6.24 0.25544
6.25 0.25724
6.26 0.258268
6.27 0.258414
6.28 0.257585
6.29 0.255642
6.3 0.252506
6.31 0.248213
6.32 0.242753
6.33 0.236138
6.34 0.228402
6.35 0.219602
6.36 0.209719
6.37 0.198951
6.38 0.187418
6.39 0.175241
6.4 0.162546
6.41 0.149459
6.42 0.136103
6.43 0.122611
6.44 0.109111
6.45 0.0957022
6.46 0.0824697
6.47 0.0694824
6.48 0.0567927
6.49 0.044469
6.5 0.0325049
6.51 0.020891
6.52 0.0096115
6.53 -0.00136154
6.54 -0.0120656
6.55 -0.0225399
6.56 -0.0328301
6.57 -0.0430047
6.58 -0.0531111
6.59 -0.0631915
6.6 -0.0732811
6.61 -0.0834057
6.62 -0.0935851
6.63 -0.103818
6.64 -0.114091
6.65 -0.124378
6.66 -0.134643
6.67 -0.144838
6.68 -0.154902
6.69 -0.164746
6.7 -0.174313
6.71 -0.183525
6.72 -0.192307
6.73 -0.200584
6.74 -0.208283
6.75 -0.215284
6.76 -0.221537
6.77 -0.227019
6.78 -0.231687
6.79 -0.235506
6.8 -0.238449
6.81 -0.240493
6.82 -0.241537
6.83 -0.241677
6.84 -0.240919
6.85 -0.23927
6.86 -0.236744
6.87 -0.233353
6.88 -0.229058
6.89 -0.223878
6.9 -0.217869
6.91 -0.211038
6.92 -0.203386
6.93 -0.194913
6.94 -0.185613
6.95 -0.175383
6.96 -0.164302
6.97 -0.152363
6.98 -0.139551
6.99 -0.125857
7 -0.111273
7.01 -0.0957482
7.02 -0.0792719
7.03 -0.0619137
7.04 -0.0436919
7.05 -0.0246338
7.06 -0.00477618
7.07 0.015834
7.08 0.0372049
7.09 0.0591987
7.1 0.0817274
7.11 0.104704
7.12 0.128035
7.13 0.151621
7.14 0.175357
7.15 0.199123
7.16 0.222797
7.17 0.24627
7.18 0.269435
7.19 0.292186
7.2 0.314421
7.21 0.33598
7.22 0.356803
7.23 0.376823
7.24 0.395965
7.25 0.414158
7.26 0.431341
7.27 0.447425
7.28 0.462286
7.29 0.475975
7.3 0.488452
7.31 0.499682
7.32 0.509632
7.33 0.518271
7.34 0.525461
7.35 0.531232
7.36 0.535608
7.37 0.538565
7.38 0.540082
7.39 0.540139
7.4 0.53869
7.41 0.535597
7.42 0.530995
7.43 0.524878
7.44 0.517244
7.45 0.508097
7.46 0.497449
7.47 0.485217
7.48 0.471466
7.49 0.456307
7.5 0.439786
7.51 0.421963
7.52 0.402906
7.53 0.382688
7.54 0.361298
7.55 0.338963
7.56 0.315792
7.57 0.291904
7.58 0.267425
7.59 0.242484
7.6 0.217207
7.61 0.191758
7.62 0.166294
7.63 0.140961
7.64 0.115898
7.65 0.0912443
7.66 0.0671356
7.67 0.04379
7.68 0.0212687
7.69 -0.000320003
7.7 -0.020874
7.71 -0.0403018
7.72 -0.0585236
7.73 -0.0754088
7.74 -0.0908686
7.75 -0.104955
7.76 -0.117646
7.77 -0.128932
7.78 -0.138818
7.79 -0.147323
7.8 -0.154345
7.81 -0.160049
7.82 -0.164515
7.83 -0.167808
7.84 -0.170005
7.85 -0.171186
7.86 -0.171409
7.87 -0.170741
7.88 -0.169348
7.89 -0.167323
7.9 -0.164756
7.91 -0.161734
7.92 -0.158339
7.93 -0.154628
7.94 -0.150693
7.95 -0.146601
7.96 -0.142399
7.97 -0.138127
7.98 -0.133816
7.99 -0.129486
8 -0.125151
8.01 -0.120814
8.02 -0.116473
8.03 -0.112118
8.04 -0.10774
8.05 -0.103323
8.06 -0.0988485
8.07 -0.0943041
8.08 -0.089682
8.09 -0.0849768
8.1 -0.0801882
8.11 -0.0753219
8.12 -0.0703897
8.13 -0.0654101
8.14 -0.0604174
8.15 -0.0554457
8.16 -0.0505344
8.17 -0.0457272
8.18 -0.0410708
8.19 -0.0366302
8.2 -0.0324563
8.21 -0.0285837
8.22 -0.025053
8.23 -0.0218986
8.24 -0.0191472
8.25 -0.0168183
8.26 -0.0149668
8.27 -0.0135385
8.28 -0.0125164
8.29 -0.0118727
8.3 -0.0115688
8.31 -0.011557
8.32 -0.011791
8.33 -0.0121987
8.34 -0.0126987
8.35 -0.0132217
8.36 -0.0136994
8.37 -0.0140666
8.38 -0.0142635
8.39 -0.0142095
8.4 -0.013883
8.41 -0.0132591
8.42 -0.0123241
8.43 -0.0110783
8.44 -0.00953664
8.45 -0.00771793
8.46 -0.00566694
8.47 -0.00346048
8.48 -0.00116676
8.49 0.00113798
8.5 0.00337186
8.51 0.00545006
8.52 0.00725569
8.53 0.00871734
8.54 0.00976498
8.55 0.0103327
8.56 0.0103657
8.57 0.00982201
8.58 0.00865293
8.59 0.00681672
8.6 0.00437153
8.61 0.00134047
8.62 -0.00223897
8.63 -0.00631623
8.64 -0.0108296
8.65 -0.0157335
8.66 -0.0209196
8.67 -0.0262967
8.68 -0.0317842
8.69 -0.0373049
8.7 -0.0427877
8.71 -0.048166
8.72 -0.0533718
8.73 -0.0583799
8.74 -0.0631684
8.75 -0.0677299
8.76 -0.0720716
8.77 -0.0762144
8.78 -0.0801832
8.79 -0.084036
8.8 -0.087835
8.81 -0.0916414
8.82 -0.0955188
8.83 -0.099531
8.84 -0.103741
8.85 -0.108233
8.86 -0.113026
8.87 -0.118152
8.88 -0.123629
8.89 -0.129458
8.9 -0.135627
8.91 -0.142124
8.92 -0.148895
8.93 -0.155861
8.94 -0.162951
8.95 -0.170084
8.96 -0.177171
8.97 -0.184121
8.98 -0.190805
8.99 -0.197154
9 -0.203088
9.01 -0.208536
9.02 -0.213441
9.03 -0.217759
9.04 -0.221429
9.05 -0.224437
9.06 -0.226833
9.07 -0.228648
9.08 -0.229926
9.09 -0.230726
9.1 -0.23112
9.11 -0.231163
9.12 -0.230982
9.13 -0.23067
9.14 -0.230314
9.15 -0.229998
9.16 -0.229797
9.17 -0.229783
9.18 -0.23002
9.19 -0.230524
9.2 -0.231309
9.21 -0.232369
9.22 -0.233684
9.23 -0.235215
9.24 -0.236919
9.25 -0.238706
9.26 -0.240495
9.27 -0.2422
9.28 -0.243732
9.29 -0.245001
9.3 -0.24591
9.31 -0.246347
9.32 -0.246278
9.33 -0.245653
9.34 -0.244434
9.35 -0.242603
9.36 -0.240158
9.37 -0.237068
9.38 -0.233404
9.39 -0.229241
9.4 -0.224644
9.41 -0.219692
9.42 -0.214472
9.43 -0.209071
9.44 -0.203588
9.45 -0.198125
9.46 -0.192763
9.47 -0.187572
9.48 -0.182611
9.49 -0.17792
9.5 -0.173548
9.51 -0.169487
9.52 -0.165707
9.53 -0.162169
9.54 -0.158819
9.55 -0.155584
9.56 -0.152379
9.57 -0.149086
9.58 -0.145599
9.59 -0.141806
9.6 -0.137598
9.61 -0.132868
9.62 -0.127517
9.63 -0.121404
9.64 -0.11445
9.65 -0.106639
9.66 -0.0979301
9.67 -0.0883039
9.68 -0.0777585
9.69 -0.0663112
9.7 -0.0539027
9.71 -0.0406913
9.72 -0.0267478
9.73 -0.0121532
9.74 0.00300293
9.75 0.0186251
9.76 0.0346286
9.77 0.0509045
9.78 0.0673354
9.79 0.0838332
9.8 0.100317
9.81 0.116717
9.82 0.132971
9.83 0.149007
9.84 0.1648
9.85 0.180328
9.86 0.195576
9.87 0.210533
9.88 0.225197
9.89 0.239558
9.9 0.253608
9.91 0.267371
9.92 0.280844
9.93 0.294023
9.94 0.306894
9.95 0.319437
9.96 0.331588
9.97 0.343327
9.98 0.354618
9.99 0.365405
10 0.37563
10.01 0.385229
10.02 0.394115
10.03 0.402169
10.04 0.409393
10.05 0.415733
10.06 0.421143
10.07 0.425588
10.08 0.429046
10.09 0.431428
10.1 0.432795
10.11 0.433209
10.12 0.432716
10.13 0.431379
10.14 0.429274
10.15 0.426478
10.16 0.423062
10.17 0.4192
10.18 0.415009
10.19 0.410607
10.2 0.406109
10.21 0.401629
10.22 0.397285
10.23 0.393182
10.24 0.38939
10.25 0.385972
10.26 0.382974
10.27 0.380425
10.28 0.378337
10.29 0.376749
10.3 0.37558
10.31 0.374786
10.32 0.374309
10.33 0.374082
10.34 0.374026
10.35 0.374056
10.36 0.374069
10.37 0.373973
10.38 0.373681
10.39 0.373109
10.4 0.37218
10.41 0.370827
10.42 0.36893
10.43 0.366488
10.44 0.363467
10.45 0.35984
10.46 0.355591
10.47 0.350712
10.48 0.345171
10.49 0.338963
10.5 0.332144
10.51 0.324726
10.52 0.316727
10.53 0.308161
10.54 0.299043
10.55 0.289332
10.56 0.279085
10.57 0.268316
10.58 0.257028
10.59 0.245223
10.6 0.2329
10.61 0.220037
10.62 0.206614
10.63 0.192674
10.64 0.178221
10.65 0.163267
10.66 0.14783
10.67 0.131934
10.68 0.115576
10.69 0.0988345
10.7 0.0817722
10.71 0.0644514
10.72 0.0469421
10.73 0.0293211
10.74 0.0116722
10.75 -0.00590314
10.76 -0.0233164
10.77 -0.0404813
10.78 -0.0573156
10.79 -0.073743
10.8 -0.0896958
10.81 -0.105071
10.82 -0.119842
10.83 -0.134002
10.84 -0.147542
10.85 -0.160464
10.86 -0.17279
10.87 -0.184547
10.88 -0.195749
10.89 -0.206518
10.9 -0.21693
10.91 -0.227068
10.92 -0.237019
10.93 -0.246873
10.94 -0.256724
10.95 -0.266663
10.96 -0.276764
10.97 -0.287087
10.98 -0.297678
10.99 -0.308567
11 -0.319768
11.01 -0.331305
11.02 -0.343112
11.03 -0.355138
11.04 -0.367318
11.05 -0.379566
11.06 -0.391786
11.07 -0.403851
11.08 -0.415623
11.09 -0.426986
11.1 -0.437813
11.11 -0.447978
11.12 -0.457364
11.13 -0.465858
11.14 -0.473243
11.15 -0.479531
11.16 -0.484665
11.17 -0.488598
11.18 -0.491304
11.19 -0.492774
11.2 -0.492965
11.21 -0.491882
11.22 -0.489663
11.23 -0.486371
11.24 -0.482083
11.25 -0.476882
11.26 -0.470861
11.27 -0.464051
11.28 -0.456615
11.29 -0.448657
11.3 -0.440261
11.31 -0.431503
11.32 -0.422448
11.33 -0.413144
11.34 -0.403625
11.35 -0.393934
11.36 -0.384081
11.37 -0.374064
11.38 -0.363869
11.39 -0.353471
11.4 -0.342814
11.41 -0.331868
11.42 -0.320595
11.43 -0.308952
11.44 -0.296897
11.45 -0.284392
11.46 -0.271392
11.47 -0.257837
11.48 -0.243764
11.49 -0.229174
11.5 -0.21408
11.51 -0.19851
11.52 -0.182505
11.53 -0.166093
11.54 -0.149364
11.55 -0.13241
11.56 -0.115318
11.57 -0.0981817
11.58 -0.081098
11.59 -0.0641706
11.6 -0.0475349
11.61 -0.0312699
11.62 -0.0154676
11.63 -0.000213085
11.64 0.0144174
11.65 0.0283576
11.66 0.0415008
11.67 0.0538117
11.68 0.0653029
11.69 0.0759617
11.7 0.0857882
11.71 0.0947949
11.72 0.103004
11.73 0.110369
11.74 0.117027
11.75 0.123029
11.76 0.128435
11.77 0.133306
11.78 0.137704
11.79 0.141676
11.8 0.14529
11.81 0.14863
11.82 0.151747
11.83 0.15469
11.84 0.157498
11.85 0.160205
11.86 0.162826
11.87 0.165386
11.88 0.167888
11.89 0.170327
11.9 0.172691
11.91 0.174956
11.92 0.177087
11.93 0.179038
11.94 0.180774
11.95 0.182247
11.96 0.183407
11.97 0.184198
11.98 0.184563
11.99 0.184394
12 0.183665
12.01 0.182329
12.02 0.180334
12.03 0.177631
12.04 0.174174
12.05 0.169894
12.06 0.164709
12.07 0.158658
12.08 0.151722
12.09 0.143884
12.1 0.13514
12.11 0.12549
12.12 0.114868
12.13 0.103344
12.14 0.0909733
12.15 0.0777923
12.16 0.0638451
