# xPDFsuite Configuration #
[PDF]
wavelength = 0.1
dataformat = QA
inputfile = BiMsol6_insitu_700 C-00439.xy
backgroundfile = Quartz2mm-dist500-00000.xy
mode = xray
bgscale = 0.0042
composition = Bi2Fe4O9
outputtype = gr
qmaxinst = 24.998449118
qmin = 0.1
qmax = 21.4986662415
rmax = 80.0
rmin = 0.0
rstep = 0.01
rpoly = 0.9

[Misc]
inputdir = C:/Data/Seafile/CPH/Beamtime/Desy Oct 20/In situ data/Processed/BiMsol6/PDF
savedir = C:/Data/Seafile/CPH/Beamtime/Desy Oct 20/In situ data/PDF/BiMsol6
backgroundfilefull = C:/Data/Seafile/CPH/Beamtime/Desy Oct 20/In situ data/Processed/Standard_Empty_Cap/Quartz2mm-dist500-00000.xy

#### start data
#S 1
#L r($\AA$)  G($\AA^{-2}$)
0 0
0.01 0.00662715
0.02 0.0128829
0.03 0.0184492
0.04 0.0230407
0.05 0.0264174
0.06 0.028396
0.07 0.0287755
0.08 0.0274963
0.09 0.0247037
0.1 0.0205169
0.11 0.0151216
0.12 0.00876204
0.13 0.00173002
0.14 -0.00564752
0.15 -0.0129546
0.16 -0.0198408
0.17 -0.0259768
0.18 -0.0310666
0.19 -0.0348618
0.2 -0.0371069
0.21 -0.0376254
0.22 -0.0365127
0.23 -0.0338321
0.24 -0.029727
0.25 -0.0244158
0.26 -0.0181841
0.27 -0.0113552
0.28 -0.00440295
0.29 0.00225124
0.3 0.00819748
0.31 0.0130449
0.32 0.0164408
0.33 0.0180271
0.34 0.0174519
0.35 0.0147599
0.36 0.00994043
0.37 0.00308874
0.38 -0.00559251
0.39 -0.0157959
0.4 -0.0271672
0.41 -0.0390822
0.42 -0.0509268
0.43 -0.0620762
0.44 -0.0718823
0.45 -0.0796975
0.46 -0.084836
0.47 -0.0864147
0.48 -0.0842289
0.49 -0.0779118
0.5 -0.0672191
0.51 -0.0520437
0.52 -0.0324259
0.53 -0.0082771
0.54 0.0198605
0.55 0.051264
0.56 0.0852639
0.57 0.121073
0.58 0.15781
0.59 0.194511
0.6 0.229953
0.61 0.263155
0.62 0.293138
0.63 0.318983
0.64 0.339857
0.65 0.355046
0.66 0.36356
0.67 0.364982
0.68 0.359469
0.69 0.347011
0.7 0.327783
0.71 0.302139
0.72 0.270607
0.73 0.233368
0.74 0.191923
0.75 0.147239
0.76 0.100342
0.77 0.0523021
0.78 0.00419851
0.79 -0.0428068
0.8 -0.0875373
0.81 -0.129176
0.82 -0.166944
0.83 -0.200197
0.84 -0.228445
0.85 -0.251358
0.86 -0.268208
0.87 -0.279529
0.88 -0.28561
0.89 -0.286812
0.9 -0.283624
0.91 -0.276647
0.92 -0.266477
0.93 -0.253881
0.94 -0.239873
0.95 -0.225235
0.96 -0.210715
0.97 -0.197011
0.98 -0.184748
0.99 -0.174676
1 -0.167114
1.01 -0.162284
1.02 -0.160336
1.03 -0.161296
1.04 -0.165077
1.05 -0.171548
1.06 -0.180509
1.07 -0.191344
1.08 -0.203611
1.09 -0.216836
1.1 -0.23053
1.11 -0.244209
1.12 -0.257346
1.13 -0.269503
1.14 -0.280362
1.15 -0.289659
1.16 -0.297209
1.17 -0.302912
1.18 -0.306718
1.19 -0.308561
1.2 -0.308784
1.21 -0.307603
1.22 -0.305284
1.23 -0.302128
1.24 -0.298452
1.25 -0.294588
1.26 -0.290891
1.27 -0.287642
1.28 -0.285072
1.29 -0.283361
1.3 -0.28263
1.31 -0.282942
1.32 -0.284389
1.33 -0.286765
1.34 -0.289928
1.35 -0.293683
1.36 -0.297801
1.37 -0.302024
1.38 -0.306054
1.39 -0.309581
1.4 -0.312366
1.41 -0.314189
1.42 -0.314871
1.43 -0.314286
1.44 -0.312363
1.45 -0.30895
1.46 -0.304266
1.47 -0.298452
1.48 -0.291701
1.49 -0.284254
1.5 -0.276393
1.51 -0.268438
1.52 -0.260765
1.53 -0.253701
1.54 -0.247549
1.55 -0.242583
1.56 -0.239033
1.57 -0.237074
1.58 -0.236997
1.59 -0.238688
1.6 -0.242071
1.61 -0.247021
1.62 -0.253345
1.63 -0.260784
1.64 -0.269041
1.65 -0.277723
1.66 -0.286377
1.67 -0.294595
1.68 -0.301975
1.69 -0.30813
1.7 -0.312708
1.71 -0.315213
1.72 -0.315496
1.73 -0.313452
1.74 -0.309001
1.75 -0.302143
1.76 -0.292959
1.77 -0.281562
1.78 -0.268097
1.79 -0.253076
1.8 -0.236863
1.81 -0.219861
1.82 -0.202494
1.83 -0.185196
1.84 -0.168461
1.85 -0.152716
1.86 -0.138288
1.87 -0.125468
1.88 -0.114487
1.89 -0.105498
1.9 -0.0986124
1.91 -0.0940004
1.92 -0.0913499
1.93 -0.0904903
1.94 -0.0911871
1.95 -0.0931528
1.96 -0.096058
1.97 -0.0995595
1.98 -0.103223
1.99 -0.10666
2 -0.109529
2.01 -0.111524
2.02 -0.112389
2.03 -0.111919
2.04 -0.109816
2.05 -0.106196
2.06 -0.101097
2.07 -0.0946281
2.08 -0.086972
2.09 -0.0783727
2.1 -0.069113
2.11 -0.0595915
2.12 -0.0502216
2.13 -0.0413918
2.14 -0.0334876
2.15 -0.0268765
2.16 -0.0218944
2.17 -0.0190695
2.18 -0.0184525
2.19 -0.0201806
2.2 -0.024333
2.21 -0.0309135
2.22 -0.0398499
2.23 -0.0510866
2.24 -0.0644204
2.25 -0.079405
2.26 -0.0957024
2.27 -0.112939
2.28 -0.130717
2.29 -0.148632
2.3 -0.166217
2.31 -0.183073
2.32 -0.198865
2.33 -0.213297
2.34 -0.226129
2.35 -0.237181
2.36 -0.246273
2.37 -0.253269
2.38 -0.258369
2.39 -0.261678
2.4 -0.26336
2.41 -0.263626
2.42 -0.262734
2.43 -0.260917
2.44 -0.25857
2.45 -0.256029
2.46 -0.253595
2.47 -0.251554
2.48 -0.250158
2.49 -0.24965
2.5 -0.25029
2.51 -0.252103
2.52 -0.255142
2.53 -0.259409
2.54 -0.264854
2.55 -0.271379
2.56 -0.278898
2.57 -0.287173
2.58 -0.295953
2.59 -0.305011
2.6 -0.314111
2.61 -0.323019
2.62 -0.331503
2.63 -0.339278
2.64 -0.346221
2.65 -0.352192
2.66 -0.357088
2.67 -0.360844
2.68 -0.363435
2.69 -0.364798
2.7 -0.365009
2.71 -0.364212
2.72 -0.362516
2.73 -0.360048
2.74 -0.356948
2.75 -0.353357
2.76 -0.349394
2.77 -0.345239
2.78 -0.341006
2.79 -0.336788
2.8 -0.332653
2.81 -0.328645
2.82 -0.324787
2.83 -0.321063
2.84 -0.317423
2.85 -0.313803
2.86 -0.310122
2.87 -0.306287
2.88 -0.302196
2.89 -0.297697
2.9 -0.292714
2.91 -0.287161
2.92 -0.280963
2.93 -0.274061
2.94 -0.266416
2.95 -0.257979
2.96 -0.248735
2.97 -0.238774
2.98 -0.228148
2.99 -0.216926
3 -0.20519
3.01 -0.193032
3.02 -0.180524
3.03 -0.167797
3.04 -0.154945
3.05 -0.142045
3.06 -0.129158
3.07 -0.116329
3.08 -0.103586
3.09 -0.090932
3.1 -0.0783366
3.11 -0.0657551
3.12 -0.0531255
3.13 -0.040371
3.14 -0.0274042
3.15 -0.0140976
3.16 -0.000361728
3.17 0.0138808
3.18 0.0287064
3.19 0.0441749
3.2 0.0603258
3.21 0.0771886
3.22 0.0947974
3.23 0.113036
3.24 0.131824
3.25 0.151055
3.26 0.170594
3.27 0.190282
3.28 0.209926
3.29 0.229303
3.3 0.248213
3.31 0.266452
3.32 0.283821
3.33 0.300129
3.34 0.315194
3.35 0.328715
3.36 0.340715
3.37 0.351111
3.38 0.359856
3.39 0.366936
3.4 0.372372
3.41 0.376128
3.42 0.378321
3.43 0.379161
3.44 0.378793
3.45 0.37738
3.46 0.375099
3.47 0.372131
3.48 0.368624
3.49 0.364828
3.5 0.36091
3.51 0.357019
3.52 0.353288
3.53 0.349828
3.54 0.346747
3.55 0.344122
3.56 0.341965
3.57 0.340287
3.58 0.339086
3.59 0.338341
3.6 0.338018
3.61 0.338114
3.62 0.338542
3.63 0.339253
3.64 0.340207
3.65 0.341372
3.66 0.342726
3.67 0.344264
3.68 0.345999
3.69 0.347934
3.7 0.350102
3.71 0.352544
3.72 0.355309
3.73 0.358451
3.74 0.362071
3.75 0.3662
3.76 0.370873
3.77 0.376124
3.78 0.381977
3.79 0.388435
3.8 0.395502
3.81 0.403169
3.82 0.411324
3.83 0.419884
3.84 0.42875
3.85 0.437803
3.86 0.44691
3.87 0.455908
3.88 0.464631
3.89 0.472929
3.9 0.480651
3.91 0.487654
3.92 0.493809
3.93 0.498978
3.94 0.502969
3.95 0.505811
3.96 0.507454
3.97 0.507877
3.98 0.507079
3.99 0.505081
4 0.501848
4.01 0.49748
4.02 0.492106
4.03 0.485811
4.04 0.478686
4.05 0.470821
4.06 0.4623
4.07 0.453153
4.08 0.443516
4.09 0.433442
4.1 0.422966
4.11 0.412109
4.12 0.400873
4.13 0.389221
4.14 0.37712
4.15 0.364549
4.16 0.35146
4.17 0.337797
4.18 0.323507
4.19 0.308536
4.2 0.292758
4.21 0.276218
4.22 0.258907
4.23 0.240832
4.24 0.222018
4.25 0.202512
4.26 0.182357
4.27 0.161648
4.28 0.140538
4.29 0.119155
4.3 0.0976364
4.31 0.0761288
4.32 0.0547803
4.33 0.033783
4.34 0.0132624
4.35 -0.00666293
4.36 -0.0258872
4.37 -0.0443255
4.38 -0.0619169
4.39 -0.0785924
4.4 -0.0943106
4.41 -0.109168
4.42 -0.123218
4.43 -0.136535
4.44 -0.149215
4.45 -0.161371
4.46 -0.173101
4.47 -0.184576
4.48 -0.195938
4.49 -0.207308
4.5 -0.218798
4.51 -0.230504
4.52 -0.242509
4.53 -0.254889
4.54 -0.267632
4.55 -0.280723
4.56 -0.294123
4.57 -0.307761
4.58 -0.321543
4.59 -0.335342
4.6 -0.348999
4.61 -0.362362
4.62 -0.375272
4.63 -0.387569
4.64 -0.399096
4.65 -0.409692
4.66 -0.419126
4.67 -0.427392
4.68 -0.434415
4.69 -0.440148
4.7 -0.444577
4.71 -0.447718
4.72 -0.449541
4.73 -0.450166
4.74 -0.449766
4.75 -0.448478
4.76 -0.446458
4.77 -0.443876
4.78 -0.440908
4.79 -0.437735
4.8 -0.434571
4.81 -0.431582
4.82 -0.428919
4.83 -0.426711
4.84 -0.425068
4.85 -0.424113
4.86 -0.423905
4.87 -0.424424
4.88 -0.425661
4.89 -0.427582
4.9 -0.430126
4.91 -0.433213
4.92 -0.436784
4.93 -0.440668
4.94 -0.444741
4.95 -0.448878
4.96 -0.452957
4.97 -0.456858
4.98 -0.460454
4.99 -0.463625
5 -0.46631
5.01 -0.468446
5.02 -0.469982
5.03 -0.470885
5.04 -0.471136
5.05 -0.470664
5.06 -0.469531
5.07 -0.467763
5.08 -0.46538
5.09 -0.462405
5.1 -0.458858
5.11 -0.454737
5.12 -0.450028
5.13 -0.444778
5.14 -0.438975
5.15 -0.432602
5.16 -0.425629
5.17 -0.418016
5.18 -0.409651
5.19 -0.400514
5.2 -0.390567
5.21 -0.379751
5.22 -0.368009
5.23 -0.355291
5.24 -0.341527
5.25 -0.32661
5.26 -0.310621
5.27 -0.293558
5.28 -0.275438
5.29 -0.256293
5.3 -0.236173
5.31 -0.21508
5.32 -0.193141
5.33 -0.170489
5.34 -0.147229
5.35 -0.123474
5.36 -0.0993409
5.37 -0.0749464
5.38 -0.0504073
5.39 -0.0258579
5.4 -0.00140013
5.41 0.0228734
5.42 0.0468809
5.43 0.0705519
5.44 0.0937979
5.45 0.116572
5.46 0.138858
5.47 0.160628
5.48 0.181859
5.49 0.20253
5.5 0.22262
5.51 0.242035
5.52 0.260811
5.53 0.278911
5.54 0.296285
5.55 0.312874
5.56 0.328607
5.57 0.343342
5.58 0.356964
5.59 0.369424
5.6 0.380611
5.61 0.39041
5.62 0.398705
5.63 0.405385
5.64 0.410153
5.65 0.413082
5.66 0.414121
5.67 0.413222
5.68 0.410365
5.69 0.405555
5.7 0.398743
5.71 0.389956
5.72 0.379433
5.73 0.367304
5.74 0.353724
5.75 0.33887
5.76 0.322938
5.77 0.306072
5.78 0.288582
5.79 0.270702
5.8 0.252646
5.81 0.234615
5.82 0.216797
5.83 0.199372
5.84 0.182524
5.85 0.166322
5.86 0.150839
5.87 0.136118
5.88 0.12217
5.89 0.108977
5.9 0.0965494
5.91 0.0847706
5.92 0.0735295
5.93 0.0627263
5.94 0.052256
5.95 0.0420145
5.96 0.0319054
5.97 0.0218386
5.98 0.0117426
5.99 0.00157999
6 -0.00865959
6.01 -0.0189576
6.02 -0.0292655
6.03 -0.0394919
6.04 -0.0495133
6.05 -0.0591954
6.06 -0.0683805
6.07 -0.076896
6.08 -0.0845613
6.09 -0.0911798
6.1 -0.0964376
6.11 -0.100287
6.12 -0.102587
6.13 -0.103224
6.14 -0.102116
6.15 -0.0992195
6.16 -0.0944166
6.17 -0.0877763
6.18 -0.079485
6.19 -0.0696751
6.2 -0.0585168
6.21 -0.0462146
6.22 -0.0330019
6.23 -0.01909
6.24 -0.00485367
6.25 0.00942753
6.26 0.023477
6.27 0.0370291
6.28 0.0498368
6.29 0.0616172
6.3 0.0721449
6.31 0.081344
6.32 0.0891169
6.33 0.0954105
6.34 0.100218
6.35 0.103576
6.36 0.105433
6.37 0.106059
6.38 0.105631
6.39 0.104338
6.4 0.102391
6.41 0.100011
6.42 0.0974283
6.43 0.0948977
6.44 0.0926423
6.45 0.0908534
6.46 0.0896974
6.47 0.0893111
6.48 0.0897983
6.49 0.091319
6.5 0.0938332
6.51 0.0973044
6.52 0.101683
6.53 0.10689
6.54 0.112817
6.55 0.11935
6.56 0.126348
6.57 0.133605
6.58 0.140964
6.59 0.148273
6.6 0.155388
6.61 0.162185
6.62 0.168512
6.63 0.174304
6.64 0.179527
6.65 0.18416
6.66 0.188211
6.67 0.191712
6.68 0.194715
6.69 0.197277
6.7 0.199545
6.71 0.201629
6.72 0.203642
6.73 0.205699
6.74 0.207909
6.75 0.210392
6.76 0.213232
6.77 0.216473
6.78 0.220145
6.79 0.224256
6.8 0.228783
6.81 0.233681
6.82 0.238893
6.83 0.244276
6.84 0.249707
6.85 0.255047
6.86 0.260144
6.87 0.264842
6.88 0.26894
6.89 0.272264
6.9 0.274707
6.91 0.276144
6.92 0.27647
6.93 0.275603
6.94 0.273486
6.95 0.269944
6.96 0.265122
6.97 0.259057
6.98 0.251807
6.99 0.243455
7 0.234103
7.01 0.223831
7.02 0.21278
7.03 0.201148
7.04 0.189076
7.05 0.176703
7.06 0.164163
7.07 0.151578
7.08 0.13907
7.09 0.126733
7.1 0.114633
7.11 0.102818
7.12 0.0913145
7.13 0.0801322
7.14 0.0692733
7.15 0.0587185
7.16 0.0484033
7.17 0.038278
7.18 0.0282876
7.19 0.018375
7.2 0.00848445
7.21 -0.0014419
7.22 -0.0114489
7.23 -0.0215657
7.24 -0.0318099
7.25 -0.0421854
7.26 -0.0526821
7.27 -0.0632773
7.28 -0.0739305
7.29 -0.0845817
7.3 -0.0951699
7.31 -0.105628
7.32 -0.115884
7.33 -0.125868
7.34 -0.135476
7.35 -0.144655
7.36 -0.153366
7.37 -0.161567
7.38 -0.169232
7.39 -0.17635
7.4 -0.182915
7.41 -0.188911
7.42 -0.19443
7.43 -0.199527
7.44 -0.204268
7.45 -0.20873
7.46 -0.212997
7.47 -0.217154
7.48 -0.221306
7.49 -0.225541
7.5 -0.229938
7.51 -0.234565
7.52 -0.239477
7.53 -0.244716
7.54 -0.250345
7.55 -0.256326
7.56 -0.262641
7.57 -0.269254
7.58 -0.276108
7.59 -0.283134
7.6 -0.290243
7.61 -0.29732
7.62 -0.304251
7.63 -0.310922
7.64 -0.317215
7.65 -0.323015
7.66 -0.328211
7.67 -0.33261
7.68 -0.336191
7.69 -0.338881
7.7 -0.340623
7.71 -0.341376
7.72 -0.341117
7.73 -0.339796
7.74 -0.337412
7.75 -0.334073
7.76 -0.329834
7.77 -0.324765
7.78 -0.318946
7.79 -0.312472
7.8 -0.305396
7.81 -0.297883
7.82 -0.290049
7.83 -0.282001
7.84 -0.273843
7.85 -0.265673
7.86 -0.257588
7.87 -0.249686
7.88 -0.24203
7.89 -0.234677
7.9 -0.227675
7.91 -0.221059
7.92 -0.214855
7.93 -0.209116
7.94 -0.203822
7.95 -0.198958
7.96 -0.194513
7.97 -0.190473
7.98 -0.18682
7.99 -0.183544
8 -0.180644
8.01 -0.178067
8.02 -0.175796
8.03 -0.173815
8.04 -0.172111
8.05 -0.170675
8.06 -0.169521
8.07 -0.168634
8.08 -0.168006
8.09 -0.167637
8.1 -0.167529
8.11 -0.167687
8.12 -0.168115
8.13 -0.168838
8.14 -0.169826
8.15 -0.17107
8.16 -0.172561
8.17 -0.174282
8.18 -0.17621
8.19 -0.178327
8.2 -0.180588
8.21 -0.182943
8.22 -0.185342
8.23 -0.187731
8.24 -0.190048
8.25 -0.192229
8.26 -0.194173
8.27 -0.195825
8.28 -0.19711
8.29 -0.197953
8.3 -0.19828
8.31 -0.198017
8.32 -0.197054
8.33 -0.19531
8.34 -0.192767
8.35 -0.189369
8.36 -0.18507
8.37 -0.17983
8.38 -0.173618
8.39 -0.1663
8.4 -0.157964
8.41 -0.148617
8.42 -0.138266
8.43 -0.126927
8.44 -0.114627
8.45 -0.101358
8.46 -0.087146
8.47 -0.0721081
8.48 -0.0563005
8.49 -0.0397847
8.5 -0.0226261
8.51 -0.00489332
8.52 0.0133856
8.53 0.0320915
8.54 0.0511441
8.55 0.070474
8.56 0.0900142
8.57 0.109701
8.58 0.129474
8.59 0.149271
8.6 0.169037
8.61 0.188726
8.62 0.208295
8.63 0.227708
8.64 0.246932
8.65 0.265915
8.66 0.284641
8.67 0.30309
8.68 0.321238
8.69 0.339062
8.7 0.356534
8.71 0.373617
8.72 0.390248
8.73 0.406427
8.74 0.422113
8.75 0.437262
8.76 0.451825
8.77 0.465745
8.78 0.478904
8.79 0.491255
8.8 0.502755
8.81 0.513334
8.82 0.522918
8.83 0.531431
8.84 0.538786
8.85 0.544789
8.86 0.549493
8.87 0.552834
8.88 0.554758
8.89 0.555212
8.9 0.554157
8.91 0.551457
8.92 0.547107
8.93 0.541177
8.94 0.533669
8.95 0.524591
8.96 0.513964
8.97 0.501816
8.98 0.48802
8.99 0.472798
9 0.456208
9.01 0.438308
9.02 0.419165
9.03 0.398849
9.04 0.377377
9.05 0.354828
9.06 0.331346
9.07 0.30701
9.08 0.281899
9.09 0.256094
9.1 0.229673
9.11 0.202672
9.12 0.175232
9.13 0.147444
9.14 0.119394
9.15 0.091172
9.16 0.0628715
9.17 0.0345942
9.18 0.00645972
9.19 -0.0214286
9.2 -0.0489605
9.21 -0.0760221
9.22 -0.102496
9.23 -0.128262
9.24 -0.153107
9.25 -0.176957
9.26 -0.199708
9.27 -0.221242
9.28 -0.241446
9.29 -0.260212
9.3 -0.277387
9.31 -0.292784
9.32 -0.30646
9.33 -0.318351
9.34 -0.328409
9.35 -0.3366
9.36 -0.342905
9.37 -0.347161
9.38 -0.349486
9.39 -0.34997
9.4 -0.34866
9.41 -0.345614
9.42 -0.340901
9.43 -0.334569
9.44 -0.326603
9.45 -0.317249
9.46 -0.306602
9.47 -0.294761
9.48 -0.281822
9.49 -0.26788
9.5 -0.252964
9.51 -0.237196
9.52 -0.220695
9.53 -0.203528
9.54 -0.185759
9.55 -0.167443
9.56 -0.148627
9.57 -0.129313
9.58 -0.109593
9.59 -0.0895012
9.6 -0.0690719
9.61 -0.0483388
9.62 -0.0273372
9.63 -0.00609385
9.64 0.0153393
9.65 0.0369
9.66 0.058532
9.67 0.0801716
9.68 0.101748
9.69 0.123183
9.7 0.144356
9.71 0.165191
9.72 0.185594
9.73 0.205464
9.74 0.224701
9.75 0.243206
9.76 0.260832
9.77 0.277461
9.78 0.293064
9.79 0.307563
9.8 0.320895
9.81 0.333004
9.82 0.343848
9.83 0.353262
9.84 0.361352
9.85 0.368134
9.86 0.373626
9.87 0.377853
9.88 0.380855
9.89 0.382635
9.9 0.383218
9.91 0.382758
9.92 0.381324
9.93 0.378986
9.94 0.375815
9.95 0.371883
9.96 0.367197
9.97 0.361875
9.98 0.355991
9.99 0.349594
10 0.342729
10.01 0.335432
10.02 0.327725
10.03 0.319611
10.04 0.311145
10.05 0.302339
10.06 0.293205
10.07 0.283752
10.08 0.273987
10.09 0.263894
10.1 0.253501
10.11 0.242829
10.12 0.231897
10.13 0.220723
10.14 0.209335
10.15 0.197757
10.16 0.186016
10.17 0.174171
10.18 0.162262
10.19 0.150336
10.2 0.138439
10.21 0.126619
10.22 0.114937
10.23 0.10344
10.24 0.0921674
10.25 0.081158
10.26 0.0704476
10.27 0.0600665
10.28 0.0500426
10.29 0.0404352
10.3 0.0312165
10.31 0.0223923
10.32 0.0139627
10.33 0.00592281
10.34 -0.00173729
10.35 -0.00901067
10.36 -0.0159191
10.37 -0.0225042
10.38 -0.028789
10.39 -0.0347978
10.4 -0.0405557
10.41 -0.0460885
10.42 -0.051402
10.43 -0.0565463
10.44 -0.0615473
10.45 -0.0664305
10.46 -0.071221
10.47 -0.0759445
10.48 -0.0806263
10.49 -0.0852972
10.5 -0.0899881
10.51 -0.0947285
10.52 -0.0995498
10.53 -0.104484
10.54 -0.109567
10.55 -0.114854
10.56 -0.120369
10.57 -0.126147
10.58 -0.132222
10.59 -0.138628
10.6 -0.145394
10.61 -0.152565
10.62 -0.160181
10.63 -0.168227
10.64 -0.176709
10.65 -0.185629
10.66 -0.194978
10.67 -0.204739
10.68 -0.214918
10.69 -0.225448
10.7 -0.236274
10.71 -0.247342
10.72 -0.258592
10.73 -0.269957
10.74 -0.281368
10.75 -0.29274
10.76 -0.303998
10.77 -0.315071
10.78 -0.325891
10.79 -0.336397
10.8 -0.346534
10.81 -0.35622
10.82 -0.365433
10.83 -0.374166
10.84 -0.382408
10.85 -0.390159
10.86 -0.39743
10.87 -0.404236
10.88 -0.410578
10.89 -0.416541
10.9 -0.422174
10.91 -0.427526
10.92 -0.432652
10.93 -0.437602
10.94 -0.442421
10.95 -0.447162
10.96 -0.451866
10.97 -0.456559
10.98 -0.461258
10.99 -0.465966
11 -0.470675
11.01 -0.475359
11.02 -0.479981
11.03 -0.484495
11.04 -0.488841
11.05 -0.492952
11.06 -0.496756
11.07 -0.500146
11.08 -0.503027
11.09 -0.505342
11.1 -0.507013
11.11 -0.507967
11.12 -0.508139
11.13 -0.507474
11.14 -0.505825
11.15 -0.503251
11.16 -0.499743
11.17 -0.4953
11.18 -0.489934
11.19 -0.48367
11.2 -0.476508
11.21 -0.468486
11.22 -0.459723
11.23 -0.450287
11.24 -0.440247
11.25 -0.429677
11.26 -0.418648
11.27 -0.4072
11.28 -0.395436
11.29 -0.383419
11.3 -0.371199
11.31 -0.358814
11.32 -0.346292
11.33 -0.333648
11.34 -0.320883
11.35 -0.307999
11.36 -0.294981
11.37 -0.281805
11.38 -0.26844
11.39 -0.254851
11.4 -0.240971
11.41 -0.226771
11.42 -0.212221
11.43 -0.197286
11.44 -0.181933
11.45 -0.16614
11.46 -0.149877
11.47 -0.133106
11.48 -0.115872
11.49 -0.0981878
11.5 -0.0800754
11.51 -0.0615654
11.52 -0.0426959
11.53 -0.0234914
11.54 -0.00402135
11.55 0.0156474
11.56 0.0354583
11.57 0.0553551
11.58 0.0752825
11.59 0.0951876
11.6 0.115011
11.61 0.134714
11.62 0.154262
11.63 0.173628
11.64 0.19279
11.65 0.211734
11.66 0.230435
11.67 0.248896
11.68 0.26713
11.69 0.285142
11.7 0.302939
11.71 0.320528
11.72 0.337914
11.73 0.355075
11.74 0.372031
11.75 0.388772
11.76 0.405279
11.77 0.421528
11.78 0.437486
11.79 0.453088
11.8 0.468272
11.81 0.482998
11.82 0.497199
11.83 0.5108
11.84 0.523723
11.85 0.535885
11.86 0.547102
11.87 0.557366
11.88 0.566603
11.89 0.574734
11.9 0.581687
11.91 0.587397
11.92 0.591747
11.93 0.594642
11.94 0.596143
11.95 0.596223
11.96 0.594869
11.97 0.592076
11.98 0.58785
11.99 0.582073
12 0.574883
12.01 0.566345
12.02 0.5565
12.03 0.545398
12.04 0.533092
12.05 0.519603
12.06 0.504944
12.07 0.489272
12.08 0.472649
12.09 0.455139
12.1 0.436802
12.11 0.417699
12.12 0.397837
12.13 0.377319
12.14 0.356226
12.15 0.334617
12.16 0.31255
12.17 0.290083
12.18 0.267271
12.19 0.244165
12.2 0.220859
12.21 0.197424
12.22 0.173928
12.23 0.150448
