# xPDFsuite Configuration #
[PDF]
wavelength = 0.1
dataformat = QA
inputfile = BiMsol6_insitu_700 C-00693.xy
backgroundfile = Quartz2mm-dist500-00000.xy
mode = xray
bgscale = 0.0042
composition = Bi2Fe4O9
outputtype = gr
qmaxinst = 24.998449118
qmin = 0.1
qmax = 21.4986662415
rmax = 80.0
rmin = 0.0
rstep = 0.01
rpoly = 0.9

[Misc]
inputdir = C:/Data/Seafile/CPH/Beamtime/Desy Oct 20/In situ data/Processed/BiMsol6/PDF
savedir = C:/Data/Seafile/CPH/Beamtime/Desy Oct 20/In situ data/PDF/BiMsol6
backgroundfilefull = C:/Data/Seafile/CPH/Beamtime/Desy Oct 20/In situ data/Processed/Standard_Empty_Cap/Quartz2mm-dist500-00000.xy

#### start data
#S 1
#L r($\AA$)  G($\AA^{-2}$)
0 0
0.01 0.00638608
0.02 0.0124088
0.03 0.0177572
0.04 0.0221524
0.05 0.0253607
0.06 0.0272039
0.07 0.0274878
0.08 0.0261567
0.09 0.0233554
0.1 0.0192036
0.11 0.0138862
0.12 0.00764535
0.13 0.000769333
0.14 -0.00641687
0.15 -0.0135072
0.16 -0.0201588
0.17 -0.0260505
0.18 -0.0308949
0.19 -0.0344527
0.2 -0.0364788
0.21 -0.0368072
0.22 -0.0355403
0.23 -0.0327484
0.24 -0.0285805
0.25 -0.0232595
0.26 -0.0170733
0.27 -0.0103507
0.28 -0.00355897
0.29 0.0028861
0.3 0.00858151
0.31 0.0131453
0.32 0.0162355
0.33 0.0175067
0.34 0.0166229
0.35 0.0136438
0.36 0.00857353
0.37 0.00152169
0.38 -0.00729585
0.39 -0.01756
0.4 -0.0288996
0.41 -0.0406876
0.42 -0.0523105
0.43 -0.0631451
0.44 -0.0725488
0.45 -0.0798836
0.46 -0.0844769
0.47 -0.0854633
0.48 -0.0826667
0.49 -0.0757466
0.5 -0.0644877
0.51 -0.0488132
0.52 -0.0287951
0.53 -0.00438798
0.54 0.0238354
0.55 0.0551309
0.56 0.0888052
0.57 0.124052
0.58 0.159977
0.59 0.195606
0.6 0.229693
0.61 0.261293
0.62 0.289446
0.63 0.313257
0.64 0.331927
0.65 0.344782
0.66 0.350875
0.67 0.349852
0.68 0.341929
0.69 0.327155
0.7 0.305763
0.71 0.278168
0.72 0.244951
0.73 0.206385
0.74 0.163986
0.75 0.118754
0.76 0.0717422
0.77 0.0240354
0.78 -0.0232813
0.79 -0.0690304
0.8 -0.11205
0.81 -0.151585
0.82 -0.186898
0.83 -0.217398
0.84 -0.242653
0.85 -0.2624
0.86 -0.27598
0.87 -0.28402
0.88 -0.286883
0.89 -0.285004
0.9 -0.278943
0.91 -0.269363
0.92 -0.256931
0.93 -0.242481
0.94 -0.227033
0.95 -0.211388
0.96 -0.196304
0.97 -0.182475
0.98 -0.170507
0.99 -0.161155
1 -0.154663
1.01 -0.151192
1.02 -0.150831
1.03 -0.15354
1.04 -0.159163
1.05 -0.167494
1.06 -0.178252
1.07 -0.190751
1.08 -0.20449
1.09 -0.218937
1.1 -0.23356
1.11 -0.247839
1.12 -0.261192
1.13 -0.273186
1.14 -0.283518
1.15 -0.291939
1.16 -0.298289
1.17 -0.302502
1.18 -0.304571
1.19 -0.304471
1.2 -0.302627
1.21 -0.299314
1.22 -0.294861
1.23 -0.289626
1.24 -0.283985
1.25 -0.278333
1.26 -0.273072
1.27 -0.268508
1.28 -0.264896
1.29 -0.262429
1.3 -0.261232
1.31 -0.261363
1.32 -0.262919
1.33 -0.265639
1.34 -0.26934
1.35 -0.273788
1.36 -0.278705
1.37 -0.283782
1.38 -0.28867
1.39 -0.292999
1.4 -0.296484
1.41 -0.298863
1.42 -0.299923
1.43 -0.299507
1.44 -0.297525
1.45 -0.293786
1.46 -0.288534
1.47 -0.281921
1.48 -0.274158
1.49 -0.265511
1.5 -0.256294
1.51 -0.24686
1.52 -0.237632
1.53 -0.228989
1.54 -0.221279
1.55 -0.214817
1.56 -0.209873
1.57 -0.206658
1.58 -0.205509
1.59 -0.206326
1.6 -0.209038
1.61 -0.213528
1.62 -0.219598
1.63 -0.226978
1.64 -0.235357
1.65 -0.24432
1.66 -0.253364
1.67 -0.262047
1.68 -0.269924
1.69 -0.27657
1.7 -0.281591
1.71 -0.284438
1.72 -0.28493
1.73 -0.282933
1.74 -0.278343
1.75 -0.27114
1.76 -0.261394
1.77 -0.249207
1.78 -0.234716
1.79 -0.218463
1.8 -0.200832
1.81 -0.182248
1.82 -0.163165
1.83 -0.144048
1.84 -0.125423
1.85 -0.10776
1.86 -0.0914218
1.87 -0.0767356
1.88 -0.06396
1.89 -0.0532779
1.9 -0.0448234
1.91 -0.0388001
1.92 -0.0348944
1.93 -0.0329425
1.94 -0.0327125
1.95 -0.0339147
1.96 -0.0362145
1.97 -0.0392703
1.98 -0.042634
1.99 -0.0458986
2 -0.0487136
2.01 -0.0507656
2.02 -0.0517919
2.03 -0.0515869
2.04 -0.0498653
2.05 -0.0467393
2.06 -0.0422576
2.07 -0.0365472
2.08 -0.0298091
2.09 -0.0223109
2.1 -0.014374
2.11 -0.00642924
2.12 0.00109608
2.13 0.00778801
2.14 0.0132387
2.15 0.0170623
2.16 0.0189101
2.17 0.0182091
2.18 0.0149479
2.19 0.00900423
2.2 0.000320073
2.21 -0.0110779
2.22 -0.0250781
2.23 -0.0415835
2.24 -0.06033
2.25 -0.0807939
2.26 -0.102568
2.27 -0.125208
2.28 -0.148243
2.29 -0.171194
2.3 -0.193489
2.31 -0.21468
2.32 -0.234379
2.33 -0.252241
2.34 -0.267985
2.35 -0.2814
2.36 -0.292269
2.37 -0.300424
2.38 -0.306121
2.39 -0.309485
2.4 -0.310713
2.41 -0.31006
2.42 -0.307831
2.43 -0.304295
2.44 -0.299939
2.45 -0.295177
2.46 -0.290378
2.47 -0.285895
2.48 -0.282047
2.49 -0.279135
2.5 -0.277489
2.51 -0.27717
2.52 -0.278265
2.53 -0.280801
2.54 -0.284743
2.55 -0.289996
2.56 -0.296489
2.57 -0.303956
2.58 -0.312118
2.59 -0.320718
2.6 -0.329487
2.61 -0.338157
2.62 -0.346459
2.63 -0.354073
2.64 -0.360837
2.65 -0.366586
2.66 -0.371196
2.67 -0.374588
2.68 -0.37673
2.69 -0.377558
2.7 -0.377162
2.71 -0.375712
2.72 -0.373347
2.73 -0.370228
2.74 -0.366537
2.75 -0.362463
2.76 -0.358195
2.77 -0.353953
2.78 -0.349901
2.79 -0.346179
2.8 -0.342901
2.81 -0.340149
2.82 -0.338005
2.83 -0.336486
2.84 -0.335529
2.85 -0.335079
2.86 -0.335052
2.87 -0.335347
2.88 -0.335842
2.89 -0.336402
2.9 -0.336874
2.91 -0.337127
2.92 -0.33704
2.93 -0.336508
2.94 -0.335441
2.95 -0.333742
2.96 -0.331341
2.97 -0.328263
2.98 -0.324511
2.99 -0.320103
3 -0.315074
3.01 -0.309468
3.02 -0.303292
3.03 -0.296639
3.04 -0.289567
3.05 -0.282107
3.06 -0.274277
3.07 -0.266076
3.08 -0.257467
3.09 -0.248369
3.1 -0.238739
3.11 -0.228477
3.12 -0.217463
3.13 -0.205563
3.14 -0.192628
3.15 -0.178392
3.16 -0.162747
3.17 -0.145592
3.18 -0.126801
3.19 -0.106275
3.2 -0.0839429
3.21 -0.059732
3.22 -0.0335158
3.23 -0.00553353
3.24 0.0241064
3.25 0.0552492
3.26 0.0876951
3.27 0.121202
3.28 0.155523
3.29 0.190273
3.3 0.225076
3.31 0.259571
3.32 0.293392
3.33 0.326172
3.34 0.357539
3.35 0.386949
3.36 0.414257
3.37 0.439199
3.38 0.461549
3.39 0.481132
3.4 0.497817
3.41 0.511339
3.42 0.521698
3.43 0.529092
3.44 0.533601
3.45 0.535348
3.46 0.534488
3.47 0.53121
3.48 0.525492
3.49 0.517837
3.5 0.508482
3.51 0.497662
3.52 0.485605
3.53 0.472529
3.54 0.458601
3.55 0.444018
3.56 0.428983
3.57 0.413623
3.58 0.398043
3.59 0.382326
3.6 0.366532
3.61 0.350706
3.62 0.334883
3.63 0.319082
3.64 0.303319
3.65 0.287609
3.66 0.271971
3.67 0.25644
3.68 0.241066
3.69 0.225897
3.7 0.211006
3.71 0.196478
3.72 0.182417
3.73 0.168939
3.74 0.156252
3.75 0.144461
3.76 0.133693
3.77 0.124094
3.78 0.115803
3.79 0.108955
3.8 0.103722
3.81 0.10032
3.82 0.0986911
3.83 0.0988964
3.84 0.100972
3.85 0.104927
3.86 0.110749
3.87 0.118541
3.88 0.128139
3.89 0.139389
3.9 0.152178
3.91 0.16638
3.92 0.181853
3.93 0.198467
3.94 0.216122
3.95 0.234554
3.96 0.253606
3.97 0.273128
3.98 0.292974
3.99 0.313008
4 0.333099
4.01 0.353114
4.02 0.372947
4.03 0.392505
4.04 0.4117
4.05 0.430455
4.06 0.448691
4.07 0.46627
4.08 0.483182
4.09 0.499359
4.1 0.514731
4.11 0.529224
4.12 0.542763
4.13 0.555199
4.14 0.566439
4.15 0.576457
4.16 0.585163
4.17 0.59247
4.18 0.598294
4.19 0.602554
4.2 0.604982
4.21 0.605692
4.22 0.604638
4.23 0.601787
4.24 0.59712
4.25 0.590632
4.26 0.582253
4.27 0.57199
4.28 0.56002
4.29 0.546414
4.3 0.531258
4.31 0.514651
4.32 0.496702
4.33 0.477413
4.34 0.457027
4.35 0.435684
4.36 0.413504
4.37 0.390604
4.38 0.367093
4.39 0.343055
4.4 0.318574
4.41 0.293764
4.42 0.268689
4.43 0.2434
4.44 0.217941
4.45 0.192343
4.46 0.166623
4.47 0.14081
4.48 0.114926
4.49 0.0889872
4.5 0.063015
4.51 0.0370356
4.52 0.0110844
4.53 -0.0147845
4.54 -0.040518
4.55 -0.0660491
4.56 -0.0912999
4.57 -0.116182
4.58 -0.140598
4.59 -0.164389
4.6 -0.187455
4.61 -0.209705
4.62 -0.23103
4.63 -0.251325
4.64 -0.270493
4.65 -0.288429
4.66 -0.304943
4.67 -0.320113
4.68 -0.333907
4.69 -0.346318
4.7 -0.357357
4.71 -0.367058
4.72 -0.375394
4.73 -0.382478
4.74 -0.388469
4.75 -0.393475
4.76 -0.397619
4.77 -0.401029
4.78 -0.403833
4.79 -0.406129
4.8 -0.408108
4.81 -0.409886
4.82 -0.411571
4.83 -0.413252
4.84 -0.415006
4.85 -0.416899
4.86 -0.418973
4.87 -0.421233
4.88 -0.423675
4.89 -0.426277
4.9 -0.429002
4.91 -0.4318
4.92 -0.434606
4.93 -0.43734
4.94 -0.439932
4.95 -0.442307
4.96 -0.444394
4.97 -0.446127
4.98 -0.447426
4.99 -0.448222
5 -0.448509
5.01 -0.448262
5.02 -0.447467
5.03 -0.44612
5.04 -0.44423
5.05 -0.441761
5.06 -0.438784
5.07 -0.435338
5.08 -0.431456
5.09 -0.427171
5.1 -0.422514
5.11 -0.417504
5.12 -0.412153
5.13 -0.406507
5.14 -0.400576
5.15 -0.394365
5.16 -0.387872
5.17 -0.381091
5.18 -0.373983
5.19 -0.366551
5.2 -0.358788
5.21 -0.350684
5.22 -0.342229
5.23 -0.333422
5.24 -0.324259
5.25 -0.314737
5.26 -0.304917
5.27 -0.29484
5.28 -0.284559
5.29 -0.27414
5.3 -0.263658
5.31 -0.25321
5.32 -0.242901
5.33 -0.232832
5.34 -0.223105
5.35 -0.213824
5.36 -0.205087
5.37 -0.196997
5.38 -0.189712
5.39 -0.183229
5.4 -0.177603
5.41 -0.172867
5.42 -0.169038
5.43 -0.166116
5.44 -0.164136
5.45 -0.163035
5.46 -0.162709
5.47 -0.163083
5.48 -0.164067
5.49 -0.165564
5.5 -0.16747
5.51 -0.169696
5.52 -0.172088
5.53 -0.174541
5.54 -0.176954
5.55 -0.179235
5.56 -0.181303
5.57 -0.183068
5.58 -0.184466
5.59 -0.185474
5.6 -0.186065
5.61 -0.186223
5.62 -0.185943
5.63 -0.185228
5.64 -0.184043
5.65 -0.182445
5.66 -0.180453
5.67 -0.17808
5.68 -0.175334
5.69 -0.172219
5.7 -0.168712
5.71 -0.164787
5.72 -0.160445
5.73 -0.155653
5.74 -0.150368
5.75 -0.144541
5.76 -0.138117
5.77 -0.130971
5.78 -0.123091
5.79 -0.114437
5.8 -0.104963
5.81 -0.0946358
5.82 -0.0834319
5.83 -0.0713158
5.84 -0.0582585
5.85 -0.0443699
5.86 -0.0297059
5.87 -0.0143432
5.88 0.00162209
5.89 0.0180757
5.9 0.0349053
5.91 0.0519275
5.92 0.0689761
5.93 0.0858909
5.94 0.102511
5.95 0.11868
5.96 0.134231
5.97 0.14896
5.98 0.162812
5.99 0.175692
6 0.187529
6.01 0.198279
6.02 0.207922
6.03 0.216384
6.04 0.223743
6.05 0.230108
6.06 0.23556
6.07 0.240201
6.08 0.244143
6.09 0.247503
6.1 0.25038
6.11 0.252954
6.12 0.255342
6.13 0.257648
6.14 0.259959
6.15 0.262342
6.16 0.264852
6.17 0.267507
6.18 0.270289
6.19 0.273158
6.2 0.276053
6.21 0.278887
6.22 0.281555
6.23 0.283887
6.24 0.285767
6.25 0.287053
6.26 0.287602
6.27 0.287275
6.28 0.285941
6.29 0.28342
6.3 0.279589
6.31 0.274452
6.32 0.267968
6.33 0.260119
6.34 0.25092
6.35 0.240412
6.36 0.228546
6.37 0.215547
6.38 0.201554
6.39 0.186711
6.4 0.171175
6.41 0.155113
6.42 0.138688
6.43 0.122091
6.44 0.105509
6.45 0.0890932
6.46 0.0729796
6.47 0.0572848
6.48 0.042103
6.49 0.0275637
6.5 0.0136695
6.51 0.000418303
6.52 -0.0122034
6.53 -0.0242325
6.54 -0.0357267
6.55 -0.0467505
6.56 -0.0573861
6.57 -0.0677731
6.58 -0.0780167
6.59 -0.0882215
6.6 -0.0984869
6.61 -0.108903
6.62 -0.119572
6.63 -0.130547
6.64 -0.141856
6.65 -0.153511
6.66 -0.165504
6.67 -0.177803
6.68 -0.190354
6.69 -0.203083
6.7 -0.215863
6.71 -0.228578
6.72 -0.241095
6.73 -0.253274
6.74 -0.264969
6.75 -0.275975
6.76 -0.286142
6.77 -0.295362
6.78 -0.303506
6.79 -0.310458
6.8 -0.316118
6.81 -0.320393
6.82 -0.323067
6.83 -0.324253
6.84 -0.32393
6.85 -0.322097
6.86 -0.318769
6.87 -0.313978
6.88 -0.307685
6.89 -0.299963
6.9 -0.290958
6.91 -0.280739
6.92 -0.26938
6.93 -0.256955
6.94 -0.243532
6.95 -0.229079
6.96 -0.213761
6.97 -0.197632
6.98 -0.180733
6.99 -0.163094
7 -0.144741
7.01 -0.125655
7.02 -0.105835
7.03 -0.0853303
7.04 -0.0641411
7.05 -0.042267
7.06 -0.0197082
7.07 0.00353183
7.08 0.0275122
7.09 0.0521538
7.1 0.0774202
7.11 0.103273
7.12 0.129664
7.13 0.156531
7.14 0.183811
7.15 0.211417
7.16 0.239216
7.17 0.267095
7.18 0.294932
7.19 0.322596
7.2 0.349952
7.21 0.376803
7.22 0.40302
7.23 0.428471
7.24 0.453016
7.25 0.47652
7.26 0.498854
7.27 0.519857
7.28 0.539319
7.29 0.557261
7.3 0.573597
7.31 0.588256
7.32 0.601177
7.33 0.612314
7.34 0.621485
7.35 0.628747
7.36 0.634158
7.37 0.637722
7.38 0.639449
7.39 0.639358
7.4 0.637445
7.41 0.633602
7.42 0.628043
7.43 0.620809
7.44 0.611945
7.45 0.601495
7.46 0.589506
7.47 0.575927
7.48 0.560849
7.49 0.544393
7.5 0.526613
7.51 0.507566
7.52 0.487312
7.53 0.465908
7.54 0.443317
7.55 0.419741
7.56 0.395262
7.57 0.369968
7.58 0.343956
7.59 0.317331
7.6 0.290184
7.61 0.262654
7.62 0.234901
7.63 0.207061
7.64 0.179276
7.65 0.151695
7.66 0.124467
7.67 0.0978158
7.68 0.0718543
7.69 0.0467264
7.7 0.0225736
7.71 -0.000470236
7.72 -0.0222811
7.73 -0.0426778
7.74 -0.0615191
7.75 -0.0788219
7.76 -0.0945265
7.77 -0.108592
7.78 -0.120996
7.79 -0.131738
7.8 -0.140674
7.81 -0.147988
7.82 -0.153767
7.83 -0.15809
7.84 -0.161047
7.85 -0.162744
7.86 -0.163258
7.87 -0.162684
7.88 -0.161241
7.89 -0.159055
7.9 -0.156253
7.91 -0.152956
7.92 -0.149278
7.93 -0.145304
7.94 -0.141154
7.95 -0.136907
7.96 -0.132624
7.97 -0.128349
7.98 -0.124109
7.99 -0.119919
8 -0.11578
8.01 -0.111671
8.02 -0.107566
8.03 -0.10343
8.04 -0.0992221
8.05 -0.094901
8.06 -0.090408
8.07 -0.0857049
8.08 -0.080765
8.09 -0.0755639
8.1 -0.0700872
8.11 -0.0643324
8.12 -0.0583065
8.13 -0.0520164
8.14 -0.0455305
8.15 -0.0389027
8.16 -0.0321988
8.17 -0.0254943
8.18 -0.0188728
8.19 -0.0124415
8.2 -0.00630271
8.21 -0.000538153
8.22 0.00476527
8.23 0.0095278
8.24 0.0136795
8.25 0.0171605
8.26 0.0198462
8.27 0.0217923
8.28 0.0229948
8.29 0.0234683
8.3 0.0232454
8.31 0.0223762
8.32 0.0208988
8.33 0.0189059
8.34 0.0165269
8.35 0.0138644
8.36 0.0110259
8.37 0.00812019
8.38 0.00525351
8.39 0.0025518
8.4 9.89986e-05
8.41 -0.0020311
8.42 -0.00377926
8.43 -0.00510405
8.44 -0.0059833
8.45 -0.00639565
8.46 -0.00635385
8.47 -0.00593367
8.48 -0.00519708
8.49 -0.0042224
8.5 -0.00310184
8.51 -0.0019386
8.52 -0.000861795
8.53 5.9015e-06
8.54 0.000551188
8.55 0.000663558
8.56 0.000240296
8.57 -0.000810332
8.58 -0.00259264
8.59 -0.00521168
8.6 -0.00864636
8.61 -0.0129157
8.62 -0.0180189
8.63 -0.0239357
8.64 -0.0306275
8.65 -0.0380946
8.66 -0.0462139
8.67 -0.0548778
8.68 -0.0639914
8.69 -0.0734538
8.7 -0.0831619
8.71 -0.0930141
8.72 -0.102903
8.73 -0.112726
8.74 -0.122404
8.75 -0.131869
8.76 -0.141063
8.77 -0.149946
8.78 -0.158462
8.79 -0.166608
8.8 -0.1744
8.81 -0.181852
8.82 -0.188985
8.83 -0.195827
8.84 -0.20241
8.85 -0.208753
8.86 -0.214919
8.87 -0.220939
8.88 -0.226841
8.89 -0.232643
8.9 -0.238358
8.91 -0.243981
8.92 -0.249505
8.93 -0.254912
8.94 -0.260176
8.95 -0.265259
8.96 -0.270118
8.97 -0.274707
8.98 -0.278932
8.99 -0.282777
9 -0.286194
9.01 -0.289142
9.02 -0.291585
9.03 -0.293497
9.04 -0.294831
9.05 -0.295578
9.06 -0.295781
9.07 -0.295461
9.08 -0.294651
9.09 -0.293391
9.1 -0.291733
9.11 -0.289704
9.12 -0.287405
9.13 -0.284905
9.14 -0.282267
9.15 -0.279553
9.16 -0.276817
9.17 -0.27411
9.18 -0.271478
9.19 -0.268943
9.2 -0.266519
9.21 -0.264207
9.22 -0.261998
9.23 -0.25987
9.24 -0.257796
9.25 -0.255726
9.26 -0.253616
9.27 -0.251415
9.28 -0.249076
9.29 -0.246552
9.3 -0.243793
9.31 -0.240748
9.32 -0.237413
9.33 -0.233778
9.34 -0.229844
9.35 -0.225626
9.36 -0.221153
9.37 -0.216451
9.38 -0.211593
9.39 -0.206649
9.4 -0.201692
9.41 -0.196797
9.42 -0.192042
9.43 -0.187509
9.44 -0.183298
9.45 -0.179447
9.46 -0.176004
9.47 -0.173002
9.48 -0.170459
9.49 -0.168373
9.5 -0.166752
9.51 -0.165535
9.52 -0.164638
9.53 -0.163978
9.54 -0.163458
9.55 -0.162965
9.56 -0.162376
9.57 -0.161523
9.58 -0.160284
9.59 -0.158529
9.6 -0.156131
9.61 -0.152971
9.62 -0.148947
9.63 -0.143903
9.64 -0.137768
9.65 -0.130549
9.66 -0.122224
9.67 -0.112791
9.68 -0.10227
9.69 -0.0907026
9.7 -0.0780454
9.71 -0.0644988
9.72 -0.0501602
9.73 -0.0351358
9.74 -0.0195387
9.75 -0.00348512
9.76 0.01292
9.77 0.0295512
9.78 0.0462842
9.79 0.0630259
9.8 0.0796954
9.81 0.0962258
9.82 0.112565
9.83 0.12865
9.84 0.144479
9.85 0.16005
9.86 0.17537
9.87 0.190454
9.88 0.205324
9.89 0.220002
9.9 0.234514
9.91 0.248897
9.92 0.263173
9.93 0.277353
9.94 0.29144
9.95 0.305425
9.96 0.31927
9.97 0.332944
9.98 0.346398
9.99 0.35957
10 0.372385
10.01 0.384764
10.02 0.396599
10.03 0.407754
10.04 0.418185
10.05 0.427808
10.06 0.436545
10.07 0.444328
10.08 0.451104
10.09 0.456747
10.1 0.461285
10.11 0.464758
10.12 0.467189
10.13 0.468621
10.14 0.469113
10.15 0.46873
10.16 0.467515
10.17 0.465662
10.18 0.463286
10.19 0.46051
10.2 0.457457
10.21 0.454248
10.22 0.451006
10.23 0.447851
10.24 0.444876
10.25 0.442156
10.26 0.439749
10.27 0.437697
10.28 0.436022
10.29 0.434761
10.3 0.43385
10.31 0.433248
10.32 0.432898
10.33 0.43273
10.34 0.432664
10.35 0.432606
10.36 0.432448
10.37 0.432095
10.38 0.431454
10.39 0.430438
10.4 0.428968
10.41 0.426972
10.42 0.42432
10.43 0.421028
10.44 0.417069
10.45 0.412425
10.46 0.407093
10.47 0.401081
10.48 0.394376
10.49 0.386996
10.5 0.379021
10.51 0.37049
10.52 0.361442
10.53 0.351916
10.54 0.341951
10.55 0.331538
10.56 0.320745
10.57 0.309594
10.58 0.298099
10.59 0.286264
10.6 0.274086
10.61 0.261542
10.62 0.248603
10.63 0.235278
10.64 0.221548
10.65 0.207395
10.66 0.192802
10.67 0.177758
10.68 0.162215
10.69 0.146208
10.7 0.12976
10.71 0.112897
10.72 0.0956513
10.73 0.0780675
10.74 0.060194
10.75 0.0420898
10.76 0.0238524
10.77 0.00556062
10.78 -0.0127034
10.79 -0.030856
10.8 -0.0488143
10.81 -0.0664708
10.82 -0.0837546
10.83 -0.100613
10.84 -0.116991
10.85 -0.132849
10.86 -0.148155
10.87 -0.162887
10.88 -0.176995
10.89 -0.190552
10.9 -0.203586
10.91 -0.216136
10.92 -0.228249
10.93 -0.239983
10.94 -0.251381
10.95 -0.262523
10.96 -0.273486
10.97 -0.284333
10.98 -0.295117
10.99 -0.305884
11 -0.316673
11.01 -0.327513
11.02 -0.338412
11.03 -0.349363
11.04 -0.360346
11.05 -0.37133
11.06 -0.382267
11.07 -0.393089
11.08 -0.403715
11.09 -0.414073
11.1 -0.424078
11.11 -0.433643
11.12 -0.442678
11.13 -0.451095
11.14 -0.458727
11.15 -0.465561
11.16 -0.471535
11.17 -0.476594
11.18 -0.480692
11.19 -0.483796
11.2 -0.485838
11.21 -0.486786
11.22 -0.486719
11.23 -0.485658
11.24 -0.48363
11.25 -0.480674
11.26 -0.476834
11.27 -0.472083
11.28 -0.466549
11.29 -0.460302
11.3 -0.453397
11.31 -0.445886
11.32 -0.437819
11.33 -0.429224
11.34 -0.420124
11.35 -0.41059
11.36 -0.400647
11.37 -0.390316
11.38 -0.379609
11.39 -0.368535
11.4 -0.357067
11.41 -0.345227
11.42 -0.333024
11.43 -0.320458
11.44 -0.30753
11.45 -0.294241
11.46 -0.280589
11.47 -0.266564
11.48 -0.252216
11.49 -0.237568
11.5 -0.22265
11.51 -0.207498
11.52 -0.192156
11.53 -0.176664
11.54 -0.161091
11.55 -0.145499
11.56 -0.129953
11.57 -0.114515
11.58 -0.0992523
11.59 -0.0842323
11.6 -0.0695537
11.61 -0.0552498
11.62 -0.041376
11.63 -0.0279827
11.64 -0.0151146
11.65 -0.00280969
11.66 0.00885946
11.67 0.0198752
11.68 0.0302528
11.69 0.0399839
11.7 0.0490669
11.71 0.0575065
11.72 0.0653116
11.73 0.0724301
11.74 0.0789552
11.75 0.084911
11.76 0.0903245
11.77 0.0952242
11.78 0.0996402
11.79 0.10358
11.8 0.107076
11.81 0.110186
11.82 0.112939
11.83 0.115362
11.84 0.117482
11.85 0.119323
11.86 0.12088
11.87 0.122201
11.88 0.123304
11.89 0.124203
11.9 0.12491
11.91 0.125434
11.92 0.125771
11.93 0.12592
11.94 0.125892
11.95 0.125681
11.96 0.125278
11.97 0.124672
11.98 0.123845
11.99 0.122752
12 0.121383
12.01 0.119714
12.02 0.117711
12.03 0.115339
12.04 0.112558
12.05 0.109309
12.06 0.105518
12.07 0.101179
12.08 0.0962463
12.09 0.0906762
12.1 0.0844273
12.11 0.077461
12.12 0.0696759
12.13 0.0610821
12.14 0.0516831
12.15 0.0414669
12.16 0.0304303
12.17 0.0185799
