# xPDFsuite Configuration #
[PDF]
wavelength = 0.1
dataformat = QA
inputfile = BiMsol6_insitu_700 C-00726.xy
backgroundfile = Quartz2mm-dist500-00000.xy
mode = xray
bgscale = 0.0042
composition = Bi2Fe4O9
outputtype = gr
qmaxinst = 24.998449118
qmin = 0.1
qmax = 21.4986662415
rmax = 80.0
rmin = 0.0
rstep = 0.01
rpoly = 0.9

[Misc]
inputdir = C:/Data/Seafile/CPH/Beamtime/Desy Oct 20/In situ data/Processed/BiMsol6/PDF
savedir = C:/Data/Seafile/CPH/Beamtime/Desy Oct 20/In situ data/PDF/BiMsol6
backgroundfilefull = C:/Data/Seafile/CPH/Beamtime/Desy Oct 20/In situ data/Processed/Standard_Empty_Cap/Quartz2mm-dist500-00000.xy

#### start data
#S 1
#L r($\AA$)  G($\AA^{-2}$)
0 0
0.01 0.00574427
0.02 0.0111586
0.03 0.0159607
0.04 0.0198976
0.05 0.0227571
0.06 0.0243782
0.07 0.024585
0.08 0.023328
0.09 0.0207397
0.1 0.0169299
0.11 0.0120675
0.12 0.00637376
0.13 0.000111521
0.14 -0.00642204
0.15 -0.0128583
0.16 -0.0188857
0.17 -0.0242127
0.18 -0.0285791
0.19 -0.0317687
0.2 -0.0335604
0.21 -0.0338067
0.22 -0.032604
0.23 -0.0300202
0.24 -0.0261951
0.25 -0.0213358
0.26 -0.0157089
0.27 -0.00962095
0.28 -0.00350025
0.29 0.00227155
0.3 0.00732444
0.31 0.0113084
0.32 0.013911
0.33 0.0148166
0.34 0.0137191
0.35 0.0106801
0.36 0.00570878
0.37 -0.00108772
0.38 -0.00950353
0.39 -0.0192369
0.4 -0.0299344
0.41 -0.0410091
0.42 -0.051886
0.43 -0.0619802
0.44 -0.0706883
0.45 -0.0774108
0.46 -0.0815141
0.47 -0.08218
0.48 -0.0792446
0.49 -0.0723843
0.5 -0.0613924
0.51 -0.0461916
0.52 -0.0268442
0.53 -0.00329597
0.54 0.0239185
0.55 0.0541009
0.56 0.0866022
0.57 0.120666
0.58 0.155448
0.59 0.19003
0.6 0.223237
0.61 0.254159
0.62 0.281876
0.63 0.305527
0.64 0.324334
0.65 0.337635
0.66 0.344503
0.67 0.344563
0.68 0.33799
0.69 0.324791
0.7 0.305153
0.71 0.279431
0.72 0.248143
0.73 0.211483
0.74 0.17089
0.75 0.127295
0.76 0.081686
0.77 0.035088
0.78 -0.0114637
0.79 -0.0568514
0.8 -0.099948
0.81 -0.13998
0.82 -0.176204
0.83 -0.208006
0.84 -0.234917
0.85 -0.256624
0.86 -0.272423
0.87 -0.282836
0.88 -0.288141
0.89 -0.288688
0.9 -0.284948
0.91 -0.277499
0.92 -0.266915
0.93 -0.253935
0.94 -0.239543
0.95 -0.224496
0.96 -0.209525
0.97 -0.195309
0.98 -0.182461
0.99 -0.171718
1 -0.163405
1.01 -0.157753
1.02 -0.154922
1.03 -0.154957
1.04 -0.157792
1.05 -0.163321
1.06 -0.171376
1.07 -0.181368
1.08 -0.192881
1.09 -0.205464
1.1 -0.218649
1.11 -0.23197
1.12 -0.244923
1.13 -0.257067
1.14 -0.268075
1.15 -0.277673
1.16 -0.285659
1.17 -0.291909
1.18 -0.296349
1.19 -0.298877
1.2 -0.299792
1.21 -0.299273
1.22 -0.297548
1.23 -0.29488
1.24 -0.291552
1.25 -0.287852
1.26 -0.284112
1.27 -0.280603
1.28 -0.277549
1.29 -0.275125
1.3 -0.27346
1.31 -0.272629
1.32 -0.272727
1.33 -0.273604
1.34 -0.275148
1.35 -0.277207
1.36 -0.279591
1.37 -0.282085
1.38 -0.28444
1.39 -0.28639
1.4 -0.287732
1.41 -0.288277
1.42 -0.287871
1.43 -0.286406
1.44 -0.283823
1.45 -0.279996
1.46 -0.275113
1.47 -0.269302
1.48 -0.262733
1.49 -0.255619
1.5 -0.248211
1.51 -0.240793
1.52 -0.233699
1.53 -0.227211
1.54 -0.221594
1.55 -0.217087
1.56 -0.213888
1.57 -0.212145
1.58 -0.212109
1.59 -0.213668
1.6 -0.21674
1.61 -0.221202
1.62 -0.226869
1.63 -0.233499
1.64 -0.240809
1.65 -0.248432
1.66 -0.255952
1.67 -0.262995
1.68 -0.269188
1.69 -0.274177
1.7 -0.277638
1.71 -0.279106
1.72 -0.278453
1.73 -0.275584
1.74 -0.270425
1.75 -0.262979
1.76 -0.25332
1.77 -0.24155
1.78 -0.227802
1.79 -0.212549
1.8 -0.196132
1.81 -0.178919
1.82 -0.161306
1.83 -0.143691
1.84 -0.126529
1.85 -0.11022
1.86 -0.095071
1.87 -0.081359
1.88 -0.0693018
1.89 -0.0590521
1.9 -0.0507214
1.91 -0.0444812
1.92 -0.0400602
1.93 -0.0373173
1.94 -0.0360546
1.95 -0.0360263
1.96 -0.0369499
1.97 -0.0385398
1.98 -0.0404205
1.99 -0.0422516
2 -0.0437431
2.01 -0.0446378
2.02 -0.0447228
2.03 -0.0438349
2.04 -0.041754
2.05 -0.0385791
2.06 -0.0343635
2.07 -0.0292268
2.08 -0.0233508
2.09 -0.0169725
2.1 -0.0103832
2.11 -0.00395752
2.12 0.00194579
2.13 0.00697187
2.14 0.0107731
2.15 0.0130227
2.16 0.0134275
2.17 0.0114892
2.18 0.00722317
2.19 0.000536523
2.2 -0.00860814
2.21 -0.0201746
2.22 -0.0340532
2.23 -0.0501479
2.24 -0.0682158
2.25 -0.0877874
2.26 -0.108498
2.27 -0.129949
2.28 -0.151721
2.29 -0.173389
2.3 -0.194438
2.31 -0.214471
2.32 -0.233143
2.33 -0.250143
2.34 -0.265217
2.35 -0.278173
2.36 -0.288809
2.37 -0.296964
2.38 -0.302861
2.39 -0.306603
2.4 -0.308357
2.41 -0.30834
2.42 -0.306819
2.43 -0.304017
2.44 -0.30037
2.45 -0.296249
2.46 -0.291988
2.47 -0.287907
2.48 -0.284299
2.49 -0.281447
2.5 -0.279658
2.51 -0.279015
2.52 -0.279621
2.53 -0.281524
2.54 -0.284719
2.55 -0.289149
2.56 -0.294785
2.57 -0.301416
2.58 -0.308807
2.59 -0.316746
2.6 -0.325005
2.61 -0.333351
2.62 -0.341547
2.63 -0.349313
2.64 -0.356471
2.65 -0.362852
2.66 -0.368316
2.67 -0.37276
2.68 -0.376116
2.69 -0.378282
2.7 -0.379285
2.71 -0.379234
2.72 -0.378207
2.73 -0.376308
2.74 -0.373661
2.75 -0.370402
2.76 -0.366642
2.77 -0.362592
2.78 -0.358396
2.79 -0.354183
2.8 -0.35007
2.81 -0.346156
2.82 -0.342538
2.83 -0.339282
2.84 -0.336397
2.85 -0.333894
2.86 -0.331761
2.87 -0.329969
2.88 -0.328477
2.89 -0.327251
2.9 -0.326199
2.91 -0.325251
2.92 -0.324341
2.93 -0.323403
2.94 -0.322376
2.95 -0.321195
2.96 -0.319799
2.97 -0.318157
2.98 -0.316232
2.99 -0.313993
3 -0.311408
3.01 -0.308449
3.02 -0.305039
3.03 -0.301167
3.04 -0.296796
3.05 -0.29187
3.06 -0.286323
3.07 -0.280076
3.08 -0.273012
3.09 -0.264968
3.1 -0.255899
3.11 -0.245687
3.12 -0.23421
3.13 -0.221347
3.14 -0.206981
3.15 -0.19086
3.16 -0.17297
3.17 -0.153294
3.18 -0.131792
3.19 -0.108451
3.2 -0.0832911
3.21 -0.0563335
3.22 -0.0275612
3.23 0.00271739
3.24 0.0343259
3.25 0.0670532
3.26 0.100657
3.27 0.134868
3.28 0.169393
3.29 0.203869
3.3 0.237964
3.31 0.271356
3.32 0.30373
3.33 0.33478
3.34 0.364202
3.35 0.391527
3.36 0.416709
3.37 0.439563
3.38 0.45994
3.39 0.477731
3.4 0.492869
3.41 0.50516
3.42 0.514644
3.43 0.521524
3.44 0.525888
3.45 0.527853
3.46 0.527556
3.47 0.525151
3.48 0.520602
3.49 0.514319
3.5 0.50648
3.51 0.497255
3.52 0.486805
3.53 0.475283
3.54 0.462784
3.55 0.449437
3.56 0.435408
3.57 0.420786
3.58 0.405649
3.59 0.390065
3.6 0.374091
3.61 0.35775
3.62 0.34113
3.63 0.324286
3.64 0.307275
3.65 0.29016
3.66 0.273012
3.67 0.255923
3.68 0.239006
3.69 0.222366
3.7 0.206126
3.71 0.190415
3.72 0.175372
3.73 0.161143
3.74 0.147977
3.75 0.13597
3.76 0.125238
3.77 0.115914
3.78 0.108116
3.79 0.101947
3.8 0.0975472
3.81 0.0950914
3.82 0.0944661
3.83 0.0956865
3.84 0.0987452
3.85 0.103612
3.86 0.110236
3.87 0.118678
3.88 0.128756
3.89 0.140305
3.9 0.15321
3.91 0.167346
3.92 0.182584
3.93 0.198808
3.94 0.215938
3.95 0.233756
3.96 0.25214
3.97 0.270977
3.98 0.290158
3.99 0.309583
4 0.329165
4.01 0.3488
4.02 0.368402
4.03 0.387892
4.04 0.407195
4.05 0.426233
4.06 0.444924
4.07 0.463132
4.08 0.480808
4.09 0.497859
4.1 0.514183
4.11 0.529676
4.12 0.544226
4.13 0.557649
4.14 0.569814
4.15 0.580664
4.16 0.590088
4.17 0.597977
4.18 0.604234
4.19 0.60877
4.2 0.611302
4.21 0.611966
4.22 0.610736
4.23 0.607595
4.24 0.602549
4.25 0.595626
4.26 0.586783
4.27 0.576065
4.28 0.563682
4.29 0.549734
4.3 0.534333
4.31 0.517597
4.32 0.49965
4.33 0.480521
4.34 0.460438
4.35 0.439533
4.36 0.417914
4.37 0.395676
4.38 0.372901
4.39 0.349646
4.4 0.325953
4.41 0.301898
4.42 0.277506
4.43 0.252795
4.44 0.227772
4.45 0.202441
4.46 0.176774
4.47 0.150794
4.48 0.124519
4.49 0.0979645
4.5 0.071159
4.51 0.0441435
4.52 0.016972
4.53 -0.0102765
4.54 -0.0374964
4.55 -0.064579
4.56 -0.0914021
4.57 -0.117831
4.58 -0.143723
4.59 -0.168861
4.6 -0.193104
4.61 -0.216332
4.62 -0.238406
4.63 -0.259199
4.64 -0.278601
4.65 -0.296497
4.66 -0.312682
4.67 -0.327273
4.68 -0.340263
4.69 -0.351673
4.7 -0.361551
4.71 -0.369974
4.72 -0.376955
4.73 -0.382664
4.74 -0.387311
4.75 -0.39105
4.76 -0.394046
4.77 -0.396465
4.78 -0.398471
4.79 -0.400213
4.8 -0.401874
4.81 -0.403582
4.82 -0.405442
4.83 -0.407536
4.84 -0.409926
4.85 -0.412663
4.86 -0.415755
4.87 -0.41916
4.88 -0.422833
4.89 -0.426712
4.9 -0.430716
4.91 -0.434754
4.92 -0.438705
4.93 -0.442462
4.94 -0.445919
4.95 -0.448978
4.96 -0.451548
4.97 -0.45355
4.98 -0.454885
4.99 -0.455485
5 -0.455366
5.01 -0.45452
5.02 -0.452952
5.03 -0.450685
5.04 -0.447756
5.05 -0.444157
5.06 -0.440002
5.07 -0.435366
5.08 -0.430313
5.09 -0.424908
5.1 -0.419211
5.11 -0.413268
5.12 -0.407123
5.13 -0.400824
5.14 -0.394395
5.15 -0.387845
5.16 -0.381173
5.17 -0.374369
5.18 -0.3674
5.19 -0.360246
5.2 -0.352883
5.21 -0.345284
5.22 -0.337421
5.23 -0.329274
5.24 -0.320823
5.25 -0.312047
5.26 -0.302984
5.27 -0.293662
5.28 -0.28412
5.29 -0.274413
5.3 -0.264607
5.31 -0.254787
5.32 -0.245056
5.33 -0.235512
5.34 -0.226259
5.35 -0.217399
5.36 -0.209032
5.37 -0.201263
5.38 -0.194247
5.39 -0.187992
5.4 -0.182552
5.41 -0.177967
5.42 -0.174255
5.43 -0.171418
5.44 -0.169491
5.45 -0.168414
5.46 -0.168087
5.47 -0.168435
5.48 -0.169372
5.49 -0.170801
5.5 -0.172621
5.51 -0.174744
5.52 -0.177022
5.53 -0.179354
5.54 -0.181642
5.55 -0.183799
5.56 -0.185748
5.57 -0.187407
5.58 -0.188715
5.59 -0.189652
5.6 -0.190195
5.61 -0.19033
5.62 -0.190052
5.63 -0.189365
5.64 -0.188234
5.65 -0.186711
5.66 -0.184807
5.67 -0.18253
5.68 -0.179881
5.69 -0.176854
5.7 -0.173416
5.71 -0.169528
5.72 -0.165184
5.73 -0.160341
5.74 -0.154949
5.75 -0.148952
5.76 -0.142293
5.77 -0.134835
5.78 -0.126574
5.79 -0.117474
5.8 -0.107497
5.81 -0.0966162
5.82 -0.0848216
5.83 -0.0720906
5.84 -0.0584114
5.85 -0.0439124
5.86 -0.0286672
5.87 -0.0127696
5.88 0.0036679
5.89 0.0205159
5.9 0.0376403
5.91 0.0548519
5.92 0.0719813
5.93 0.0888658
5.94 0.105346
5.95 0.121271
5.96 0.136483
5.97 0.150786
5.98 0.164152
5.99 0.176507
6 0.187803
6.01 0.198019
6.02 0.207159
6.03 0.215181
6.04 0.222186
6.05 0.228299
6.06 0.233621
6.07 0.238264
6.08 0.242351
6.09 0.246001
6.1 0.249326
6.11 0.252482
6.12 0.255572
6.13 0.258681
6.14 0.261874
6.15 0.265192
6.16 0.268662
6.17 0.272266
6.18 0.275953
6.19 0.279654
6.2 0.283279
6.21 0.286716
6.22 0.289838
6.23 0.292436
6.24 0.294402
6.25 0.295589
6.26 0.295856
6.27 0.29507
6.28 0.293113
6.29 0.289818
6.3 0.285086
6.31 0.278959
6.32 0.271423
6.33 0.262494
6.34 0.252219
6.35 0.240669
6.36 0.227832
6.37 0.213957
6.38 0.199203
6.39 0.183728
6.4 0.167701
6.41 0.151294
6.42 0.134674
6.43 0.118028
6.44 0.101518
6.45 0.0852774
6.46 0.069421
6.47 0.0540405
6.48 0.0392036
6.49 0.0250108
6.5 0.0114353
6.51 -0.00154884
6.52 -0.0139759
6.53 -0.0258996
6.54 -0.0373896
6.55 -0.0485204
6.56 -0.059381
6.57 -0.0700955
6.58 -0.0807574
6.59 -0.0914549
6.6 -0.102267
6.61 -0.113259
6.62 -0.124505
6.63 -0.136027
6.64 -0.147824
6.65 -0.159886
6.66 -0.172179
6.67 -0.184652
6.68 -0.197237
6.69 -0.209838
6.7 -0.222343
6.71 -0.23464
6.72 -0.246612
6.73 -0.258136
6.74 -0.269092
6.75 -0.279301
6.76 -0.288655
6.77 -0.297082
6.78 -0.304491
6.79 -0.3108
6.8 -0.315944
6.81 -0.319857
6.82 -0.322371
6.83 -0.323594
6.84 -0.323515
6.85 -0.322133
6.86 -0.319453
6.87 -0.315491
6.88 -0.310191
6.89 -0.303586
6.9 -0.295772
6.91 -0.286775
6.92 -0.276621
6.93 -0.265332
6.94 -0.252929
6.95 -0.239308
6.96 -0.224609
6.97 -0.208848
6.98 -0.192039
6.99 -0.174197
7 -0.155336
7.01 -0.135426
7.02 -0.114478
7.03 -0.0925861
7.04 -0.0697878
7.05 -0.0461266
7.06 -0.0216544
7.07 0.003568
7.08 0.0295332
7.09 0.0560925
7.1 0.0831485
7.11 0.110606
7.12 0.138364
7.13 0.166318
7.14 0.194356
7.15 0.222353
7.16 0.250193
7.17 0.277768
7.18 0.304972
7.19 0.331704
7.2 0.357869
7.21 0.383308
7.22 0.407972
7.23 0.431804
7.24 0.454733
7.25 0.476695
7.26 0.497633
7.27 0.51746
7.28 0.536049
7.29 0.553448
7.3 0.56961
7.31 0.584488
7.32 0.598031
7.33 0.610191
7.34 0.620794
7.35 0.629842
7.36 0.637333
7.37 0.643208
7.38 0.647408
7.39 0.649878
7.4 0.650529
7.41 0.649153
7.42 0.645886
7.43 0.64069
7.44 0.633539
7.45 0.624419
7.46 0.613327
7.47 0.600142
7.48 0.584942
7.49 0.567871
7.5 0.548996
7.51 0.528401
7.52 0.50619
7.53 0.482473
7.54 0.457258
7.55 0.430862
7.56 0.403447
7.57 0.375189
7.58 0.346267
7.59 0.316868
7.6 0.287174
7.61 0.257404
7.62 0.227757
7.63 0.198412
7.64 0.16954
7.65 0.141304
7.66 0.113852
7.67 0.0874401
7.68 0.0621014
7.69 0.0379357
7.7 0.0150318
7.71 -0.00653714
7.72 -0.0267132
7.73 -0.0453836
7.74 -0.0624869
7.75 -0.0781122
7.76 -0.0922619
7.77 -0.10495
7.78 -0.1162
7.79 -0.126047
7.8 -0.134402
7.81 -0.141436
7.82 -0.147228
7.83 -0.151843
7.84 -0.155347
7.85 -0.15781
7.86 -0.159272
7.87 -0.159778
7.88 -0.15948
7.89 -0.158451
7.9 -0.156766
7.91 -0.154494
7.92 -0.151705
7.93 -0.148429
7.94 -0.144764
7.95 -0.140777
7.96 -0.13652
7.97 -0.132039
7.98 -0.127373
7.99 -0.122554
8 -0.117606
8.01 -0.112562
8.02 -0.107438
8.03 -0.102243
8.04 -0.0969854
8.05 -0.0916655
8.06 -0.0862781
8.07 -0.0808228
8.08 -0.0752988
8.09 -0.0697036
8.1 -0.0640365
8.11 -0.0582999
8.12 -0.0524992
8.13 -0.0466427
8.14 -0.040755
8.15 -0.0348602
8.16 -0.0289885
8.17 -0.0231763
8.18 -0.0174657
8.19 -0.0119173
8.2 -0.00658748
8.21 -0.00152282
8.22 0.00322142
8.23 0.0075908
8.24 0.0115334
8.25 0.0149998
8.26 0.0178876
8.27 0.0202208
8.28 0.0219778
8.29 0.0231484
8.3 0.023734
8.31 0.0237488
8.32 0.0231909
8.33 0.0221054
8.34 0.0205788
8.35 0.0186751
8.36 0.0164668
8.37 0.0140329
8.38 0.0114566
8.39 0.00882592
8.4 0.00623818
8.41 0.00377215
8.42 0.00149884
8.43 -0.000520659
8.44 -0.00223749
8.45 -0.00360082
8.46 -0.00458216
8.47 -0.00520906
8.48 -0.00550204
8.49 -0.00549901
8.5 -0.00525451
8.51 -0.00483846
8.52 -0.00433516
8.53 -0.00385864
8.54 -0.00351533
8.55 -0.00341464
8.56 -0.00366706
8.57 -0.0043808
8.58 -0.00568104
8.59 -0.00770446
8.6 -0.0104802
8.61 -0.0140701
8.62 -0.0185182
8.63 -0.0238494
8.64 -0.0300681
8.65 -0.0372309
8.66 -0.0452432
8.67 -0.0540179
8.68 -0.0634763
8.69 -0.0735245
8.7 -0.0840563
8.71 -0.0949609
8.72 -0.106117
8.73 -0.117368
8.74 -0.12859
8.75 -0.139665
8.76 -0.150483
8.77 -0.160946
8.78 -0.17093
8.79 -0.180374
8.8 -0.189248
8.81 -0.197522
8.82 -0.205182
8.83 -0.212234
8.84 -0.218689
8.85 -0.224536
8.86 -0.229885
8.87 -0.234792
8.88 -0.23932
8.89 -0.243536
8.9 -0.247503
8.91 -0.251279
8.92 -0.254928
8.93 -0.258508
8.94 -0.262056
8.95 -0.265596
8.96 -0.269141
8.97 -0.272691
8.98 -0.27623
8.99 -0.279731
9 -0.283155
9.01 -0.286456
9.02 -0.289581
9.03 -0.292473
9.04 -0.295056
9.05 -0.297258
9.06 -0.299044
9.07 -0.300368
9.08 -0.301189
9.09 -0.301477
9.1 -0.301213
9.11 -0.30033
9.12 -0.29889
9.13 -0.296918
9.14 -0.294447
9.15 -0.291517
9.16 -0.288181
9.17 -0.284484
9.18 -0.28049
9.19 -0.276292
9.2 -0.271958
9.21 -0.267553
9.22 -0.26314
9.23 -0.258776
9.24 -0.254523
9.25 -0.250418
9.26 -0.246489
9.27 -0.242755
9.28 -0.239226
9.29 -0.235901
9.3 -0.232778
9.31 -0.229846
9.32 -0.227065
9.33 -0.224405
9.34 -0.221834
9.35 -0.21932
9.36 -0.216829
9.37 -0.214328
9.38 -0.211787
9.39 -0.209186
9.4 -0.206508
9.41 -0.203743
9.42 -0.200889
9.43 -0.197946
9.44 -0.194917
9.45 -0.191824
9.46 -0.188686
9.47 -0.185519
9.48 -0.182344
9.49 -0.179178
9.5 -0.17604
9.51 -0.172942
9.52 -0.169884
9.53 -0.166865
9.54 -0.163873
9.55 -0.160889
9.56 -0.157883
9.57 -0.154806
9.58 -0.151615
9.59 -0.148253
9.6 -0.144659
9.61 -0.140767
9.62 -0.136508
9.63 -0.131776
9.64 -0.126496
9.65 -0.120623
9.66 -0.114093
9.67 -0.106849
9.68 -0.098843
9.69 -0.0900329
9.7 -0.0802907
9.71 -0.0696929
9.72 -0.0582368
9.73 -0.0459301
9.74 -0.0327926
9.75 -0.0188553
9.76 -0.00412349
9.77 0.0113522
9.78 0.0274602
9.79 0.0441314
9.8 0.061291
9.81 0.0788597
9.82 0.0967556
9.83 0.114912
9.84 0.133213
9.85 0.151575
9.86 0.169916
9.87 0.188159
9.88 0.206229
9.89 0.224045
9.9 0.24152
9.91 0.258613
9.92 0.275268
9.93 0.291434
9.94 0.307062
9.95 0.32211
9.96 0.336475
9.97 0.350161
9.98 0.36315
9.99 0.375414
10 0.386928
10.01 0.397671
10.02 0.407599
10.03 0.416652
10.04 0.42489
10.05 0.432308
10.06 0.43891
10.07 0.4447
10.08 0.449691
10.09 0.453838
10.1 0.457207
10.11 0.459856
10.12 0.461823
10.13 0.463149
10.14 0.463883
10.15 0.464068
10.16 0.463726
10.17 0.46297
10.18 0.46186
10.19 0.460457
10.2 0.458819
10.21 0.457006
10.22 0.455068
10.23 0.453065
10.24 0.451048
10.25 0.449056
10.26 0.447122
10.27 0.44527
10.28 0.44352
10.29 0.441894
10.3 0.440383
10.31 0.43898
10.32 0.437671
10.33 0.436439
10.34 0.435258
10.35 0.434098
10.36 0.432917
10.37 0.431677
10.38 0.430336
10.39 0.428851
10.4 0.427177
10.41 0.425269
10.42 0.423046
10.43 0.420488
10.44 0.417553
10.45 0.414197
10.46 0.410378
10.47 0.406058
10.48 0.401168
10.49 0.395656
10.5 0.389524
10.51 0.382742
10.52 0.37528
10.53 0.367112
10.54 0.358216
10.55 0.348495
10.56 0.337999
10.57 0.326732
10.58 0.314692
10.59 0.301884
10.6 0.28832
10.61 0.273992
10.62 0.258904
10.63 0.24315
10.64 0.226779
10.65 0.209845
10.66 0.192409
10.67 0.174544
10.68 0.1563
10.69 0.137794
10.7 0.119123
10.71 0.100375
10.72 0.0816422
10.73 0.0630128
10.74 0.0445806
10.75 0.0264541
10.76 0.00868674
10.77 -0.00865849
10.78 -0.0255292
10.79 -0.0418849
10.8 -0.0576979
10.81 -0.0729099
10.82 -0.0875465
10.83 -0.101646
10.84 -0.115238
10.85 -0.128366
10.86 -0.141081
10.87 -0.153442
10.88 -0.165501
10.89 -0.177365
10.9 -0.18911
10.91 -0.200808
10.92 -0.212529
10.93 -0.224335
10.94 -0.236291
10.95 -0.248443
10.96 -0.260808
10.97 -0.273399
10.98 -0.286211
10.99 -0.299226
11 -0.312408
11.01 -0.325712
11.02 -0.339054
11.03 -0.352353
11.04 -0.365521
11.05 -0.37846
11.06 -0.39107
11.07 -0.403215
11.08 -0.414776
11.09 -0.425679
11.1 -0.435834
11.11 -0.445157
11.12 -0.453577
11.13 -0.461035
11.14 -0.46737
11.15 -0.472658
11.16 -0.476894
11.17 -0.480082
11.18 -0.482241
11.19 -0.483402
11.2 -0.483565
11.21 -0.482769
11.22 -0.481141
11.23 -0.478747
11.24 -0.475654
11.25 -0.471927
11.26 -0.46763
11.27 -0.462774
11.28 -0.457459
11.29 -0.451731
11.3 -0.445623
11.31 -0.439155
11.32 -0.432336
11.33 -0.425154
11.34 -0.417578
11.35 -0.409618
11.36 -0.401247
11.37 -0.392432
11.38 -0.383141
11.39 -0.373337
11.4 -0.362938
11.41 -0.351944
11.42 -0.340348
11.43 -0.328137
11.44 -0.315307
11.45 -0.301864
11.46 -0.287814
11.47 -0.273152
11.48 -0.25798
11.49 -0.242353
11.5 -0.22634
11.51 -0.210015
11.52 -0.193465
11.53 -0.176775
11.54 -0.160059
11.55 -0.143418
11.56 -0.126948
11.57 -0.110741
11.58 -0.0948866
11.59 -0.0794732
11.6 -0.0646287
11.61 -0.0503684
11.62 -0.0367434
11.63 -0.023794
11.64 -0.0115492
11.65 -2.64235e-05
11.66 0.0107195
11.67 0.0207051
11.68 0.0299828
11.69 0.0385755
11.7 0.0465128
11.71 0.0538293
11.72 0.0605625
11.73 0.0666969
11.74 0.0723405
11.75 0.0775348
11.76 0.0823196
11.77 0.0867322
11.78 0.0908071
11.79 0.0945594
11.8 0.0980176
11.81 0.101222
11.82 0.10419
11.83 0.106935
11.84 0.109469
11.85 0.111798
11.86 0.113906
11.87 0.115815
11.88 0.117528
11.89 0.119043
11.9 0.120358
11.91 0.121471
11.92 0.122367
11.93 0.123034
11.94 0.123481
11.95 0.123699
11.96 0.123679
11.97 0.123406
11.98 0.122867
11.99 0.122012
12 0.120839
12.01 0.119328
12.02 0.117447
12.03 0.115163
12.04 0.11244
12.05 0.109219
12.06 0.105426
12.07 0.101056
12.08 0.0960661
12.09 0.0904112
12.1 0.0840498
12.11 0.0769432
12.12 0.0689883
12.13 0.0601974
12.14 0.0505769
12.15 0.0401174
12.16 0.0288197
12.17 0.0166951
