# xPDFsuite Configuration #
[PDF]
wavelength = 0.1
dataformat = QA
inputfile = BiMsol6_insitu_700 C-00022.xy
backgroundfile = Quartz2mm-dist500-00000.xy
mode = xray
bgscale = 0.0042
composition = Bi2Fe4O9
outputtype = gr
qmaxinst = 24.998449118
qmin = 0.1
qmax = 21.4986662415
rmax = 80.0
rmin = 0.0
rstep = 0.01
rpoly = 0.9

[Misc]
inputdir = C:/Data/Seafile/CPH/Beamtime/Desy Oct 20/In situ data/Processed/BiMsol6/PDF
savedir = C:/Data/Seafile/CPH/Beamtime/Desy Oct 20/In situ data/PDF/BiMsol6
backgroundfilefull = C:/Data/Seafile/CPH/Beamtime/Desy Oct 20/In situ data/Processed/Standard_Empty_Cap/Quartz2mm-dist500-00000.xy

#### start data
#S 1
#L r($\AA$)  G($\AA^{-2}$)
0 0
0.01 0.00715973
0.02 0.013924
0.03 0.0199542
0.04 0.0249461
0.05 0.0286439
0.06 0.0308517
0.07 0.0313546
0.08 0.0300875
0.09 0.0272041
0.1 0.0228297
0.11 0.0171601
0.12 0.0104538
0.13 0.00301998
0.14 -0.00479623
0.15 -0.0125518
0.16 -0.0198738
0.17 -0.0264114
0.18 -0.0318485
0.19 -0.0359191
0.2 -0.0383488
0.21 -0.0389455
0.22 -0.0378061
0.23 -0.0349924
0.24 -0.030651
0.25 -0.0250081
0.26 -0.0183608
0.27 -0.0110428
0.28 -0.00355308
0.29 0.00366495
0.3 0.0101804
0.31 0.0155813
0.32 0.0194949
0.33 0.021543
0.34 0.0213527
0.35 0.0189625
0.36 0.0143547
0.37 0.00762192
0.38 -0.00103169
0.39 -0.0112929
0.4 -0.0228029
0.41 -0.0349186
0.42 -0.047007
0.43 -0.0584256
0.44 -0.0685077
0.45 -0.0765879
0.46 -0.0819626
0.47 -0.0837305
0.48 -0.0816799
0.49 -0.0754387
0.5 -0.0647622
0.51 -0.049548
0.52 -0.0298465
0.53 -0.00558353
0.54 0.0226742
0.55 0.0541776
0.56 0.0882287
0.57 0.124011
0.58 0.160611
0.59 0.197034
0.6 0.23201
0.61 0.264549
0.62 0.293654
0.63 0.318393
0.64 0.337932
0.65 0.351556
0.66 0.358276
0.67 0.357702
0.68 0.350034
0.69 0.335299
0.7 0.31372
0.71 0.285703
0.72 0.25183
0.73 0.212359
0.74 0.168848
0.75 0.12232
0.76 0.073859
0.77 0.024583
0.78 -0.0243847
0.79 -0.0718253
0.8 -0.116528
0.81 -0.157691
0.82 -0.194535
0.83 -0.226428
0.84 -0.252902
0.85 -0.273662
0.86 -0.287992
0.87 -0.296517
0.88 -0.299591
0.89 -0.297638
0.9 -0.291219
0.91 -0.281001
0.92 -0.267651
0.93 -0.252015
0.94 -0.235157
0.95 -0.217904
0.96 -0.201046
0.97 -0.185309
0.98 -0.171335
0.99 -0.159911
1 -0.151328
1.01 -0.14578
1.02 -0.14339
1.03 -0.144149
1.04 -0.147929
1.05 -0.154553
1.06 -0.163773
1.07 -0.174908
1.08 -0.18747
1.09 -0.200937
1.1 -0.214783
1.11 -0.228492
1.12 -0.241496
1.13 -0.253351
1.14 -0.263741
1.15 -0.272407
1.16 -0.279181
1.17 -0.283983
1.18 -0.286798
1.19 -0.287594
1.2 -0.286764
1.21 -0.284569
1.22 -0.281318
1.23 -0.277352
1.24 -0.273025
1.25 -0.268716
1.26 -0.264801
1.27 -0.261564
1.28 -0.25924
1.29 -0.258001
1.3 -0.25795
1.31 -0.259125
1.32 -0.261591
1.33 -0.265078
1.34 -0.269392
1.35 -0.274284
1.36 -0.279467
1.37 -0.284625
1.38 -0.289393
1.39 -0.293404
1.4 -0.29639
1.41 -0.298099
1.42 -0.298333
1.43 -0.296953
1.44 -0.293893
1.45 -0.288981
1.46 -0.282504
1.47 -0.274648
1.48 -0.265658
1.49 -0.255837
1.5 -0.245533
1.51 -0.235145
1.52 -0.225134
1.53 -0.215901
1.54 -0.207819
1.55 -0.201225
1.56 -0.196404
1.57 -0.193576
1.58 -0.193109
1.59 -0.194872
1.6 -0.19878
1.61 -0.204695
1.62 -0.212393
1.63 -0.221573
1.64 -0.23189
1.65 -0.242883
1.66 -0.253997
1.67 -0.26474
1.68 -0.27462
1.69 -0.283162
1.7 -0.289929
1.71 -0.294306
1.72 -0.296084
1.73 -0.295101
1.74 -0.291228
1.75 -0.284426
1.76 -0.274757
1.77 -0.262309
1.78 -0.247207
1.79 -0.230038
1.8 -0.211208
1.81 -0.191173
1.82 -0.170421
1.83 -0.149457
1.84 -0.128844
1.85 -0.109109
1.86 -0.0906681
1.87 -0.0738933
1.88 -0.0590872
1.89 -0.0464731
1.9 -0.0362233
1.91 -0.0285883
1.92 -0.0232612
1.93 -0.0200919
1.94 -0.0188539
1.95 -0.0192547
1.96 -0.0209493
1.97 -0.0235875
1.98 -0.0266874
1.99 -0.0297999
2 -0.0325352
2.01 -0.0345372
2.02 -0.0354978
2.03 -0.0351643
2.04 -0.0331879
2.05 -0.0296451
2.06 -0.0245445
2.07 -0.017978
2.08 -0.0101175
2.09 -0.00120889
2.1 0.00845752
2.11 0.0184566
2.12 0.0283364
2.13 0.0376675
2.14 0.046018
2.15 0.0529696
2.16 0.0581339
2.17 0.0609016
2.18 0.0611892
2.19 0.0588174
2.2 0.0536703
2.21 0.0457164
2.22 0.0350104
2.23 0.0215839
2.24 0.00563888
2.25 -0.0123269
2.26 -0.0319406
2.27 -0.0527814
2.28 -0.0743948
2.29 -0.0963075
2.3 -0.117979
2.31 -0.138912
2.32 -0.158685
2.33 -0.176916
2.34 -0.19328
2.35 -0.207517
2.36 -0.219355
2.37 -0.228564
2.38 -0.235324
2.39 -0.239701
2.4 -0.241831
2.41 -0.241914
2.42 -0.240205
2.43 -0.236904
2.44 -0.232474
2.45 -0.227314
2.46 -0.22178
2.47 -0.216222
2.48 -0.210966
2.49 -0.206328
2.5 -0.202646
2.51 -0.200051
2.52 -0.198678
2.53 -0.198605
2.54 -0.199853
2.55 -0.202388
2.56 -0.206205
2.57 -0.211107
2.58 -0.216864
2.59 -0.223271
2.6 -0.230104
2.61 -0.237128
2.62 -0.244108
2.63 -0.25077
2.64 -0.256923
2.65 -0.262395
2.66 -0.267044
2.67 -0.270765
2.68 -0.273489
2.69 -0.275121
2.7 -0.275688
2.71 -0.275293
2.72 -0.274017
2.73 -0.271962
2.74 -0.26925
2.75 -0.266013
2.76 -0.262363
2.77 -0.258493
2.78 -0.254528
2.79 -0.250581
2.8 -0.246748
2.81 -0.2431
2.82 -0.239703
2.83 -0.236583
2.84 -0.233722
2.85 -0.231093
2.86 -0.228651
2.87 -0.226339
2.88 -0.224083
2.89 -0.221798
2.9 -0.219398
2.91 -0.21681
2.92 -0.213968
2.93 -0.210819
2.94 -0.207323
2.95 -0.203442
2.96 -0.199163
2.97 -0.194531
2.98 -0.189581
2.99 -0.184363
3 -0.178937
3.01 -0.173372
3.02 -0.167743
3.03 -0.162135
3.04 -0.156617
3.05 -0.151245
3.06 -0.146066
3.07 -0.141106
3.08 -0.136383
3.09 -0.131895
3.1 -0.127586
3.11 -0.123402
3.12 -0.11927
3.13 -0.1151
3.14 -0.110793
3.15 -0.106208
3.16 -0.101233
3.17 -0.0957637
3.18 -0.0896963
3.19 -0.0829375
3.2 -0.0754087
3.21 -0.0670318
3.22 -0.0577002
3.23 -0.0474849
3.24 -0.0364002
3.25 -0.0244831
3.26 -0.0117929
3.27 0.001592
3.28 0.0156125
3.29 0.0301264
3.3 0.0449916
3.31 0.0600893
3.32 0.0753038
3.33 0.0905269
3.34 0.105661
3.35 0.120601
3.36 0.135302
3.37 0.149732
3.38 0.163878
3.39 0.177752
3.4 0.191386
3.41 0.204825
3.42 0.218151
3.43 0.231457
3.44 0.244833
3.45 0.25837
3.46 0.272155
3.47 0.286265
3.48 0.300813
3.49 0.315799
3.5 0.331235
3.51 0.347107
3.52 0.363373
3.53 0.379961
3.54 0.396773
3.55 0.413656
3.56 0.430436
3.57 0.446931
3.58 0.462943
3.59 0.478265
3.6 0.492684
3.61 0.505853
3.62 0.517655
3.63 0.527921
3.64 0.536493
3.65 0.543237
3.66 0.548052
3.67 0.550786
3.68 0.551335
3.69 0.549867
3.7 0.546434
3.71 0.541119
3.72 0.53404
3.73 0.525339
3.74 0.515064
3.75 0.503526
3.76 0.490956
3.77 0.477557
3.78 0.463529
3.79 0.449068
3.8 0.434353
3.81 0.419566
3.82 0.404865
3.83 0.390368
3.84 0.376166
3.85 0.362327
3.86 0.348893
3.87 0.335918
3.88 0.323374
3.89 0.311223
3.9 0.299426
3.91 0.287932
3.92 0.276688
3.93 0.265637
3.94 0.25473
3.95 0.243898
3.96 0.233103
3.97 0.222314
3.98 0.211514
3.99 0.200699
4 0.189878
4.01 0.179076
4.02 0.168328
4.03 0.157674
4.04 0.147162
4.05 0.136841
4.06 0.126765
4.07 0.117013
4.08 0.1076
4.09 0.0985539
4.1 0.0898969
4.11 0.0816373
4.12 0.0737718
4.13 0.0663053
4.14 0.059203
4.15 0.0524025
4.16 0.0458547
4.17 0.0395045
4.18 0.0332937
4.19 0.0271635
4.2 0.0210548
4.21 0.0149108
4.22 0.00869182
4.23 0.00236896
4.24 -0.00407366
4.25 -0.0106381
4.26 -0.0173157
4.27 -0.0240749
4.28 -0.0308644
4.29 -0.0376284
4.3 -0.0443016
4.31 -0.050812
4.32 -0.0570835
4.33 -0.0629997
4.34 -0.0685076
4.35 -0.0735467
4.36 -0.0780619
4.37 -0.0820109
4.38 -0.0853666
4.39 -0.0880957
4.4 -0.0901844
4.41 -0.0917105
4.42 -0.0927211
4.43 -0.093279
4.44 -0.0934606
4.45 -0.0933537
4.46 -0.0930453
4.47 -0.0926602
4.48 -0.0923032
4.49 -0.0920701
4.5 -0.0920488
4.51 -0.0923164
4.52 -0.0929463
4.53 -0.0940136
4.54 -0.095508
4.55 -0.0974325
4.56 -0.0997702
4.57 -0.102485
4.58 -0.105525
4.59 -0.108833
4.6 -0.112305
4.61 -0.115839
4.62 -0.119336
4.63 -0.122697
4.64 -0.125828
4.65 -0.12863
4.66 -0.130983
4.67 -0.132857
4.68 -0.134209
4.69 -0.135008
4.7 -0.135247
4.71 -0.134936
4.72 -0.134072
4.73 -0.132721
4.74 -0.130975
4.75 -0.128912
4.76 -0.126621
4.77 -0.124195
4.78 -0.121731
4.79 -0.119341
4.8 -0.117115
4.81 -0.115133
4.82 -0.113462
4.83 -0.112158
4.84 -0.111258
4.85 -0.11081
4.86 -0.11082
4.87 -0.111247
4.88 -0.112063
4.89 -0.113226
4.9 -0.114683
4.91 -0.116374
4.92 -0.118246
4.93 -0.120207
4.94 -0.12219
4.95 -0.124137
4.96 -0.125994
4.97 -0.127717
4.98 -0.129265
4.99 -0.130612
5 -0.131765
5.01 -0.132731
5.02 -0.13353
5.03 -0.134189
5.04 -0.134745
5.05 -0.135238
5.06 -0.135722
5.07 -0.136244
5.08 -0.136845
5.09 -0.137562
5.1 -0.138422
5.11 -0.139451
5.12 -0.140665
5.13 -0.142041
5.14 -0.143562
5.15 -0.145196
5.16 -0.146902
5.17 -0.148631
5.18 -0.150318
5.19 -0.151894
5.2 -0.1533
5.21 -0.154473
5.22 -0.155359
5.23 -0.155909
5.24 -0.156075
5.25 -0.1558
5.26 -0.155111
5.27 -0.154013
5.28 -0.152526
5.29 -0.150682
5.3 -0.148531
5.31 -0.146114
5.32 -0.14352
5.33 -0.140833
5.34 -0.13813
5.35 -0.135488
5.36 -0.13298
5.37 -0.130674
5.38 -0.128654
5.39 -0.126938
5.4 -0.125548
5.41 -0.124492
5.42 -0.123761
5.43 -0.123327
5.44 -0.123161
5.45 -0.12319
5.46 -0.12333
5.47 -0.1235
5.48 -0.123611
5.49 -0.123575
5.5 -0.123305
5.51 -0.122674
5.52 -0.121641
5.53 -0.12015
5.54 -0.118159
5.55 -0.115646
5.56 -0.112607
5.57 -0.10903
5.58 -0.104955
5.59 -0.100473
5.6 -0.095657
5.61 -0.090594
5.62 -0.0853816
5.63 -0.0801236
5.64 -0.0749439
5.65 -0.0699505
5.66 -0.0652387
5.67 -0.0608935
5.68 -0.0569855
5.69 -0.0535678
5.7 -0.0506977
5.71 -0.0484014
5.72 -0.0466246
5.73 -0.0453301
5.74 -0.0444601
5.75 -0.043939
5.76 -0.0436755
5.77 -0.0435703
5.78 -0.0434869
5.79 -0.0433073
5.8 -0.0429188
5.81 -0.0422151
5.82 -0.0411009
5.83 -0.0394769
5.84 -0.0372467
5.85 -0.034417
5.86 -0.0309748
5.87 -0.0269312
5.88 -0.0223204
5.89 -0.0171989
5.9 -0.0116149
5.91 -0.00570105
5.92 0.000417724
5.93 0.00662119
5.94 0.012785
5.95 0.0187856
5.96 0.0244958
5.97 0.0297667
5.98 0.0345379
5.99 0.0387392
6 0.0423221
6.01 0.0452618
6.02 0.0475583
6.03 0.0491942
6.04 0.0502497
6.05 0.050828
6.06 0.0510251
6.07 0.0509524
6.08 0.0507324
6.09 0.0504953
6.1 0.0503978
6.11 0.0505644
6.12 0.0511104
6.13 0.0521367
6.14 0.0537264
6.15 0.0559411
6.16 0.0588615
6.17 0.0624902
6.18 0.0667703
6.19 0.0716545
6.2 0.0770715
6.21 0.0829284
6.22 0.0891134
6.23 0.0955076
6.24 0.101937
6.25 0.108257
6.26 0.114328
6.27 0.120011
6.28 0.125181
6.29 0.129687
6.3 0.133418
6.31 0.136348
6.32 0.138436
6.33 0.139666
6.34 0.140046
6.35 0.13961
6.36 0.138343
6.37 0.136404
6.38 0.133903
6.39 0.130951
6.4 0.127669
6.41 0.124182
6.42 0.120617
6.43 0.117114
6.44 0.113785
6.45 0.110728
6.46 0.108022
6.47 0.105729
6.48 0.103893
6.49 0.10258
6.5 0.101753
6.51 0.101378
6.52 0.101415
6.53 0.101805
6.54 0.102481
6.55 0.103368
6.56 0.104375
6.57 0.1054
6.58 0.106358
6.59 0.107168
6.6 0.107761
6.61 0.108074
6.62 0.10803
6.63 0.107608
6.64 0.106804
6.65 0.105617
6.66 0.10406
6.67 0.102159
6.68 0.0999443
6.69 0.0974492
6.7 0.0947564
6.71 0.0919231
6.72 0.0890068
6.73 0.0860636
6.74 0.0831451
6.75 0.0803051
6.76 0.0775831
6.77 0.0750019
6.78 0.0725775
6.79 0.0703161
6.8 0.068214
6.81 0.0662601
6.82 0.0644436
6.83 0.0627214
6.84 0.0610625
6.85 0.0594341
6.86 0.0578037
6.87 0.0561411
6.88 0.0544156
6.89 0.0526052
6.9 0.050702
6.91 0.0487029
6.92 0.0466129
6.93 0.044445
6.94 0.04222
6.95 0.0399655
6.96 0.0377214
6.97 0.0355245
6.98 0.0334126
6.99 0.0314227
7 0.029589
7.01 0.0279509
7.02 0.0265366
7.03 0.0253448
7.04 0.0243775
7.05 0.0236263
7.06 0.0230719
7.07 0.022685
7.08 0.0224351
7.09 0.0222567
7.1 0.0220926
7.11 0.0218831
7.12 0.0215667
7.13 0.0210825
7.14 0.0203617
7.15 0.0193352
7.16 0.0179801
7.17 0.0162658
7.18 0.014174
7.19 0.0117001
7.2 0.00885363
7.21 0.00563031
7.22 0.00209899
7.23 -0.00167664
7.24 -0.00563012
7.25 -0.00968565
7.26 -0.0137604
7.27 -0.0177628
7.28 -0.0215829
7.29 -0.0251424
7.3 -0.0283607
7.31 -0.0311657
7.32 -0.033496
7.33 -0.0353028
7.34 -0.0365057
7.35 -0.0371123
7.36 -0.0371461
7.37 -0.036627
7.38 -0.0355911
7.39 -0.0340889
7.4 -0.0321791
7.41 -0.0299201
7.42 -0.0274363
7.43 -0.024818
7.44 -0.0221577
7.45 -0.0195465
7.46 -0.0170721
7.47 -0.0148355
7.48 -0.012912
7.49 -0.0113478
7.5 -0.0101864
7.51 -0.00945724
7.52 -0.00917472
7.53 -0.00934094
7.54 -0.00998309
7.55 -0.01102
7.56 -0.0124086
7.57 -0.0140965
7.58 -0.0160238
7.59 -0.0181258
7.6 -0.0203376
7.61 -0.022582
7.62 -0.0247898
7.63 -0.0269029
7.64 -0.0288705
7.65 -0.0306504
7.66 -0.0322103
7.67 -0.0335004
7.68 -0.0345371
7.69 -0.0353248
7.7 -0.0358771
7.71 -0.0362165
7.72 -0.0363738
7.73 -0.0363808
7.74 -0.0362838
7.75 -0.0361371
7.76 -0.0359861
7.77 -0.0358743
7.78 -0.0358427
7.79 -0.0359273
7.8 -0.0361755
7.81 -0.0365994
7.82 -0.0372102
7.83 -0.0380133
7.84 -0.0390063
7.85 -0.040179
7.86 -0.041519
7.87 -0.0430045
7.88 -0.0445922
7.89 -0.046248
7.9 -0.0479348
7.91 -0.0496142
7.92 -0.0512477
7.93 -0.0527868
7.94 -0.0541975
7.95 -0.0554504
7.96 -0.0565178
7.97 -0.0573761
7.98 -0.0580067
7.99 -0.0583892
8 -0.0584975
8.01 -0.058351
8.02 -0.0579509
8.03 -0.0573024
8.04 -0.0564145
8.05 -0.0552991
8.06 -0.0539554
8.07 -0.0524117
8.08 -0.0506953
8.09 -0.0488274
8.1 -0.0468303
8.11 -0.0447276
8.12 -0.0425435
8.13 -0.0403026
8.14 -0.0380402
8.15 -0.0357849
8.16 -0.0335666
8.17 -0.0314159
8.18 -0.0293645
8.19 -0.0274556
8.2 -0.0257237
8.21 -0.0241937
8.22 -0.0228962
8.23 -0.0218595
8.24 -0.0211094
8.25 -0.0206689
8.26 -0.0205925
8.27 -0.0208547
8.28 -0.0214584
8.29 -0.0223994
8.3 -0.023665
8.31 -0.0252342
8.32 -0.0270903
8.33 -0.0291884
8.34 -0.0314633
8.35 -0.0338584
8.36 -0.0363109
8.37 -0.0387529
8.38 -0.0411126
8.39 -0.0432918
8.4 -0.0452259
8.41 -0.0468462
8.42 -0.0480874
8.43 -0.0488914
8.44 -0.0492085
8.45 -0.0489745
8.46 -0.0481459
8.47 -0.0467506
8.48 -0.0447927
8.49 -0.0422905
8.5 -0.0392764
8.51 -0.0357963
8.52 -0.0318755
8.53 -0.0276254
8.54 -0.0231341
8.55 -0.0184885
8.56 -0.0137794
8.57 -0.00909868
8.58 -0.00454425
8.59 -0.000223674
8.6 0.00379667
8.61 0.00744883
8.62 0.0106764
8.63 0.0134359
8.64 0.0156982
8.65 0.0174046
8.66 0.0185881
8.67 0.0192837
8.68 0.0195246
8.69 0.0193567
8.7 0.0188359
8.71 0.0180221
8.72 0.0169805
8.73 0.015812
8.74 0.0145918
8.75 0.0133926
8.76 0.0122829
8.77 0.0113238
8.78 0.010587
8.79 0.0101113
8.8 0.00991578
8.81 0.0100157
8.82 0.0104141
8.83 0.0111022
8.84 0.0120628
8.85 0.0132836
8.86 0.0146965
8.87 0.0162551
8.88 0.0179094
8.89 0.0196072
8.9 0.021297
8.91 0.0229226
8.92 0.0244339
8.93 0.0257971
8.94 0.0269827
8.95 0.0279696
8.96 0.0287458
8.97 0.0293082
8.98 0.0296405
8.99 0.0297836
9 0.0297608
9.01 0.0296005
9.02 0.0293351
9.03 0.0289992
9.04 0.0286277
9.05 0.028259
9.06 0.0279243
9.07 0.0276484
9.08 0.0274495
9.09 0.0273394
9.1 0.0273222
9.11 0.0274026
9.12 0.0275587
9.13 0.02777
9.14 0.0280114
9.15 0.0282535
9.16 0.0284641
9.17 0.0286052
9.18 0.0286365
9.19 0.0285334
9.2 0.0282707
9.21 0.027829
9.22 0.0271961
9.23 0.0263678
9.24 0.0253316
9.25 0.0241181
9.26 0.0227558
9.27 0.021277
9.28 0.0197208
9.29 0.0181317
9.3 0.0165606
9.31 0.0150685
9.32 0.0137036
9.33 0.0125135
9.34 0.0115412
9.35 0.0108232
9.36 0.010388
9.37 0.0102809
9.38 0.0104937
9.39 0.0110107
9.4 0.0118146
9.41 0.0128775
9.42 0.0141608
9.43 0.0156198
9.44 0.0172006
9.45 0.0188259
9.46 0.0204316
9.47 0.0219528
9.48 0.0233268
9.49 0.0244949
9.5 0.0253825
9.51 0.0259493
9.52 0.026176
9.53 0.0260439
9.54 0.0255467
9.55 0.0246908
9.56 0.0234927
9.57 0.0219587
9.58 0.0201701
9.59 0.0181812
9.6 0.0160534
9.61 0.0138529
9.62 0.0116484
9.63 0.00951737
9.64 0.00753491
9.65 0.00575662
9.66 0.00423445
9.67 0.00301082
9.68 0.00211705
9.69 0.00157233
9.7 0.00142335
9.71 0.00161982
9.72 0.00213856
9.73 0.0029455
9.74 0.0039964
9.75 0.00523865
9.76 0.00661664
9.77 0.00805839
9.78 0.0094912
9.79 0.010852
9.8 0.0120817
9.81 0.0131274
9.82 0.0139445
9.83 0.0144683
9.84 0.0146996
9.85 0.0146338
9.86 0.0142758
9.87 0.0136429
9.88 0.012764
9.89 0.0116727
9.9 0.0104201
9.91 0.00907935
9.92 0.00771295
9.93 0.00638549
9.94 0.00516146
9.95 0.00410278
9.96 0.00329206
9.97 0.00276813
9.98 0.00256392
9.99 0.00270699
10 0.0032131
10.01 0.00408554
10.02 0.00532475
10.03 0.00692412
10.04 0.00881609
10.05 0.0109541
10.06 0.0132831
10.07 0.0157412
10.08 0.0182619
10.09 0.0207696
10.1 0.0231867
10.11 0.0254473
10.12 0.0274897
10.13 0.029259
10.14 0.0307081
10.15 0.0317928
10.16 0.0324531
10.17 0.0327126
10.18 0.0325701
10.19 0.0320356
10.2 0.0311295
10.21 0.0298816
10.22 0.0283122
10.23 0.0264812
10.24 0.024454
10.25 0.0222849
10.26 0.0200297
10.27 0.0177435
10.28 0.0154798
10.29 0.0133009
10.3 0.0112458
10.31 0.00935102
10.32 0.00764606
10.33 0.00615287
10.34 0.00488573
10.35 0.00386526
10.36 0.00308894
10.37 0.00253434
10.38 0.00218655
10.39 0.00202581
10.4 0.00202842
10.41 0.00216781
10.42 0.00242446
10.43 0.00275442
10.44 0.00312827
10.45 0.00351809
10.46 0.00389774
10.47 0.00424338
10.48 0.00453016
10.49 0.00473607
10.5 0.00485063
10.51 0.00486229
10.52 0.00476229
10.53 0.00454443
10.54 0.00420485
10.55 0.00372911
10.56 0.00312817
10.57 0.00240576
10.58 0.00156506
10.59 0.000610392
10.6 -0.000452741
10.61 -0.00162122
10.62 -0.00288972
10.63 -0.00424055
10.64 -0.0056624
10.65 -0.00714216
10.66 -0.00866476
10.67 -0.0102131
10.68 -0.0117664
10.69 -0.0133001
10.7 -0.01479
10.71 -0.0162107
10.72 -0.0175355
10.73 -0.018737
10.74 -0.019783
10.75 -0.0206322
10.76 -0.0212742
10.77 -0.0216874
10.78 -0.0218539
10.79 -0.0217605
10.8 -0.0213993
10.81 -0.0207477
10.82 -0.0198243
10.83 -0.0186535
10.84 -0.0172572
10.85 -0.0156648
10.86 -0.0139121
10.87 -0.0120408
10.88 -0.0100994
10.89 -0.00815222
10.9 -0.00625503
10.91 -0.00446471
10.92 -0.00283749
10.93 -0.00142728
10.94 -0.000305349
10.95 0.000484447
10.96 0.000921053
10.97 0.000979295
10.98 0.000644249
10.99 -8.79473e-05
11 -0.00121127
11.01 -0.00274251
11.02 -0.00460404
11.03 -0.00675115
11.04 -0.00912951
11.05 -0.0116766
11.06 -0.0143233
11.07 -0.0169928
11.08 -0.0195967
11.09 -0.022058
11.1 -0.0243032
11.11 -0.0262634
11.12 -0.0278771
11.13 -0.0290913
11.14 -0.0298113
11.15 -0.0300519
11.16 -0.0298018
11.17 -0.0290604
11.18 -0.0278405
11.19 -0.0261677
11.2 -0.0240634
11.21 -0.0215767
11.22 -0.0187976
11.23 -0.0157941
11.24 -0.0126397
11.25 -0.0094105
11.26 -0.00618305
11.27 -0.00304705
11.28 -7.38439e-05
11.29 0.00267535
11.3 0.00514615
11.31 0.00729397
11.32 0.00908509
11.33 0.0104836
11.34 0.0114615
11.35 0.0120549
11.36 0.0122798
11.37 0.0121625
11.38 0.011738
11.39 0.011049
11.4 0.0101293
11.41 0.0090509
11.42 0.00787381
11.43 0.00665157
11.44 0.00543518
11.45 0.00427148
11.46 0.00320487
11.47 0.00228198
11.48 0.0015176
11.49 0.000927423
11.5 0.00051846
11.51 0.000289205
11.52 0.000230123
11.53 0.00033441
11.54 0.000569276
11.55 0.000899587
11.56 0.00129308
11.57 0.00171585
11.58 0.00213389
11.59 0.00251358
11.6 0.00281562
11.61 0.00301992
11.62 0.00310707
11.63 0.00306368
11.64 0.00288277
11.65 0.00256395
11.66 0.00210546
11.67 0.00152431
11.68 0.000846281
11.69 9.48695e-05
11.7 -0.000703133
11.71 -0.0015188
11.72 -0.00232223
11.73 -0.00307598
11.74 -0.00375501
11.75 -0.00433526
11.76 -0.00479667
11.77 -0.00512401
11.78 -0.00530739
11.79 -0.00533455
11.8 -0.00520716
11.81 -0.00494314
11.82 -0.00455622
11.83 -0.00406449
11.84 -0.0034896
11.85 -0.00285572
