# xPDFsuite Configuration #
[PDF]
wavelength = 0.1
dataformat = QA
inputfile = BiMsol6_insitu_700 C-00441.xy
backgroundfile = Quartz2mm-dist500-00000.xy
mode = xray
bgscale = 0.0042
composition = Bi2Fe4O9
outputtype = gr
qmaxinst = 24.998449118
qmin = 0.1
qmax = 21.4986662415
rmax = 80.0
rmin = 0.0
rstep = 0.01
rpoly = 0.9

[Misc]
inputdir = C:/Data/Seafile/CPH/Beamtime/Desy Oct 20/In situ data/Processed/BiMsol6/PDF
savedir = C:/Data/Seafile/CPH/Beamtime/Desy Oct 20/In situ data/PDF/BiMsol6
backgroundfilefull = C:/Data/Seafile/CPH/Beamtime/Desy Oct 20/In situ data/Processed/Standard_Empty_Cap/Quartz2mm-dist500-00000.xy

#### start data
#S 1
#L r($\AA$)  G($\AA^{-2}$)
0 0
0.01 0.00662922
0.02 0.0128859
0.03 0.0184511
0.04 0.0230385
0.05 0.0264078
0.06 0.0283753
0.07 0.02874
0.08 0.0274425
0.09 0.0246293
0.1 0.0204205
0.11 0.0150033
0.12 0.0086231
0.13 0.0015734
0.14 -0.00581677
0.15 -0.0131303
0.16 -0.0200157
0.17 -0.0261428
0.18 -0.031215
0.19 -0.034984
0.2 -0.0371942
0.21 -0.0376699
0.22 -0.0365087
0.23 -0.0337755
0.24 -0.0296159
0.25 -0.0242505
0.26 -0.0179675
0.27 -0.0110932
0.28 -0.00410363
0.29 0.00257795
0.3 0.00854011
0.31 0.013391
0.32 0.0167773
0.33 0.0183409
0.34 0.0177302
0.35 0.0149926
0.36 0.0101196
0.37 0.00320911
0.38 -0.00553314
0.39 -0.0157965
0.4 -0.027223
0.41 -0.039185
0.42 -0.0510659
0.43 -0.0622391
0.44 -0.0720548
0.45 -0.0798652
0.46 -0.0849844
0.47 -0.0865305
0.48 -0.084303
0.49 -0.0779389
0.5 -0.0671988
0.51 -0.0519811
0.52 -0.0323326
0.53 -0.00817267
0.54 0.0199493
0.55 0.0513052
0.56 0.0852197
0.57 0.120902
0.58 0.157465
0.59 0.193944
0.6 0.229113
0.61 0.261997
0.62 0.29162
0.63 0.317071
0.64 0.337528
0.65 0.352283
0.66 0.360361
0.67 0.36136
0.68 0.355453
0.69 0.342645
0.7 0.323124
0.71 0.297261
0.72 0.265596
0.73 0.228334
0.74 0.186976
0.75 0.142495
0.76 0.0959203
0.77 0.0483227
0.78 0.00077813
0.79 -0.0455527
0.8 -0.0895035
0.81 -0.130279
0.82 -0.167116
0.83 -0.19939
0.84 -0.226632
0.85 -0.248536
0.86 -0.2644
0.87 -0.274783
0.88 -0.279995
0.89 -0.280418
0.9 -0.276562
0.91 -0.269042
0.92 -0.258472
0.93 -0.245637
0.94 -0.231544
0.95 -0.216971
0.96 -0.202667
0.97 -0.189319
0.98 -0.17754
0.99 -0.168075
1 -0.161213
1.01 -0.157153
1.02 -0.156021
1.03 -0.157822
1.04 -0.162445
1.05 -0.169735
1.06 -0.179465
1.07 -0.191005
1.08 -0.203897
1.09 -0.217653
1.1 -0.231777
1.11 -0.245781
1.12 -0.259126
1.13 -0.271385
1.14 -0.28225
1.15 -0.291468
1.16 -0.298866
1.17 -0.304359
1.18 -0.307915
1.19 -0.309484
1.2 -0.30943
1.21 -0.307987
1.22 -0.305435
1.23 -0.302088
1.24 -0.298274
1.25 -0.294336
1.26 -0.290634
1.27 -0.287445
1.28 -0.284998
1.29 -0.283466
1.3 -0.28296
1.31 -0.283533
1.32 -0.285261
1.33 -0.287923
1.34 -0.291356
1.35 -0.295353
1.36 -0.299667
1.37 -0.304027
1.38 -0.308117
1.39 -0.311617
1.4 -0.314287
1.41 -0.315904
1.42 -0.31629
1.43 -0.315323
1.44 -0.31294
1.45 -0.308996
1.46 -0.30373
1.47 -0.297304
1.48 -0.289927
1.49 -0.281862
1.5 -0.273408
1.51 -0.26491
1.52 -0.256767
1.53 -0.249316
1.54 -0.242876
1.55 -0.23773
1.56 -0.234116
1.57 -0.23221
1.58 -0.232313
1.59 -0.234296
1.6 -0.23807
1.61 -0.243497
1.62 -0.250364
1.63 -0.258396
1.64 -0.267273
1.65 -0.276577
1.66 -0.285826
1.67 -0.294593
1.68 -0.302452
1.69 -0.308999
1.7 -0.313862
1.71 -0.316521
1.72 -0.316825
1.73 -0.314667
1.74 -0.309967
1.75 -0.30273
1.76 -0.293047
1.77 -0.281039
1.78 -0.266867
1.79 -0.251072
1.8 -0.234042
1.81 -0.216204
1.82 -0.19801
1.83 -0.179918
1.84 -0.162453
1.85 -0.146067
1.86 -0.131105
1.87 -0.117875
1.88 -0.10662
1.89 -0.0975051
1.9 -0.090646
1.91 -0.0862265
1.92 -0.0839129
1.93 -0.0835242
1.94 -0.0848113
1.95 -0.0874685
1.96 -0.0911451
1.97 -0.0954763
1.98 -0.0999978
1.99 -0.104291
2 -0.10799
2.01 -0.110764
2.02 -0.112333
2.03 -0.112472
2.04 -0.11085
2.05 -0.107585
2.06 -0.102704
2.07 -0.0963162
2.08 -0.0886035
2.09 -0.0798165
2.1 -0.0702425
2.11 -0.0602971
2.12 -0.0504199
2.13 -0.0410214
2.14 -0.0325108
2.15 -0.0252812
2.16 -0.0196942
2.17 -0.0163103
2.18 -0.0152027
2.19 -0.0165299
2.2 -0.0203897
2.21 -0.0268009
2.22 -0.0357024
2.23 -0.0470518
2.24 -0.060651
2.25 -0.0760392
2.26 -0.0928696
2.27 -0.110755
2.28 -0.129281
2.29 -0.14802
2.3 -0.166486
2.31 -0.184246
2.32 -0.200935
2.33 -0.216231
2.34 -0.229865
2.35 -0.241632
2.36 -0.251324
2.37 -0.258775
2.38 -0.264179
2.39 -0.26763
2.4 -0.269284
2.41 -0.269353
2.42 -0.268096
2.43 -0.265744
2.44 -0.262716
2.45 -0.259371
2.46 -0.256035
2.47 -0.253016
2.48 -0.250598
2.49 -0.249051
2.5 -0.248672
2.51 -0.249515
2.52 -0.251662
2.53 -0.255142
2.54 -0.259925
2.55 -0.265934
2.56 -0.273112
2.57 -0.281224
2.58 -0.290018
2.59 -0.299264
2.6 -0.308721
2.61 -0.318143
2.62 -0.327285
2.63 -0.335851
2.64 -0.343678
2.65 -0.350602
2.66 -0.356492
2.67 -0.361255
2.68 -0.364837
2.69 -0.367145
2.7 -0.368227
2.71 -0.368206
2.72 -0.367174
2.73 -0.365243
2.74 -0.362541
2.75 -0.359206
2.76 -0.355335
2.77 -0.351133
2.78 -0.34672
2.79 -0.342201
2.8 -0.337662
2.81 -0.333163
2.82 -0.328746
2.83 -0.32442
2.84 -0.320162
2.85 -0.31593
2.86 -0.311665
2.87 -0.307294
2.88 -0.302733
2.89 -0.297856
2.9 -0.292591
2.91 -0.286861
2.92 -0.280595
2.93 -0.273736
2.94 -0.266243
2.95 -0.258067
2.96 -0.249187
2.97 -0.239675
2.98 -0.22957
2.99 -0.21893
3 -0.207822
3.01 -0.196323
3.02 -0.184493
3.03 -0.172445
3.04 -0.160262
3.05 -0.14801
3.06 -0.13574
3.07 -0.12349
3.08 -0.111279
3.09 -0.0991044
3.1 -0.086935
3.11 -0.0747248
3.12 -0.0624106
3.13 -0.0499153
3.14 -0.0371513
3.15 -0.0239858
3.16 -0.0103319
3.17 0.00388695
3.18 0.0187487
3.19 0.0343158
3.2 0.0506304
3.21 0.0677268
3.22 0.085649
3.23 0.104277
3.24 0.123536
3.25 0.143321
3.26 0.163498
3.27 0.183909
3.28 0.204365
3.29 0.224636
3.3 0.244513
3.31 0.26378
3.32 0.282227
3.33 0.29965
3.34 0.315848
3.35 0.330499
3.36 0.343604
3.37 0.355057
3.38 0.364787
3.39 0.37276
3.4 0.378974
3.41 0.383364
3.42 0.38603
3.43 0.387174
3.44 0.386933
3.45 0.385467
3.46 0.382951
3.47 0.379571
3.48 0.375468
3.49 0.370928
3.5 0.366139
3.51 0.361273
3.52 0.356492
3.53 0.351934
3.54 0.347741
3.55 0.344024
3.56 0.340825
3.57 0.338186
3.58 0.336124
3.59 0.334641
3.6 0.333719
3.61 0.333377
3.62 0.333519
3.63 0.334088
3.64 0.335035
3.65 0.336309
3.66 0.337865
3.67 0.339674
3.68 0.341713
3.69 0.343949
3.7 0.346377
3.71 0.349006
3.72 0.351851
3.73 0.354937
3.74 0.358324
3.75 0.362033
3.76 0.366092
3.77 0.370533
3.78 0.375383
3.79 0.38066
3.8 0.386383
3.81 0.392569
3.82 0.399156
3.83 0.406105
3.84 0.413361
3.85 0.420856
3.86 0.428506
3.87 0.436216
3.88 0.443862
3.89 0.451333
3.9 0.458515
3.91 0.465292
3.92 0.471555
3.93 0.477186
3.94 0.48202
3.95 0.486039
3.96 0.489177
3.97 0.49138
3.98 0.49261
3.99 0.492845
4 0.492007
4.01 0.49013
4.02 0.487281
4.03 0.48349
4.04 0.478797
4.05 0.473242
4.06 0.466866
4.07 0.45964
4.08 0.451695
4.09 0.443067
4.1 0.433788
4.11 0.423881
4.12 0.413365
4.13 0.402213
4.14 0.390429
4.15 0.378042
4.16 0.365046
4.17 0.351431
4.18 0.337185
4.19 0.322302
4.2 0.306705
4.21 0.29047
4.22 0.273612
4.23 0.256154
4.24 0.23813
4.25 0.219586
4.26 0.200558
4.27 0.181118
4.28 0.161375
4.29 0.141416
4.3 0.121332
4.31 0.101217
4.32 0.0811662
4.33 0.061297
4.34 0.0416907
4.35 0.0224214
4.36 0.00355494
4.37 -0.0148553
4.38 -0.0327701
4.39 -0.0501449
4.4 -0.0669499
4.41 -0.0832365
4.42 -0.0990281
4.43 -0.114361
4.44 -0.12928
4.45 -0.143839
4.46 -0.158074
4.47 -0.172072
4.48 -0.185898
4.49 -0.199603
4.5 -0.213232
4.51 -0.226819
4.52 -0.240383
4.53 -0.253929
4.54 -0.267447
4.55 -0.280909
4.56 -0.294271
4.57 -0.307477
4.58 -0.320459
4.59 -0.333109
4.6 -0.345342
4.61 -0.35708
4.62 -0.368236
4.63 -0.378724
4.64 -0.388467
4.65 -0.397382
4.66 -0.405335
4.67 -0.412375
4.68 -0.418483
4.69 -0.423659
4.7 -0.427921
4.71 -0.431306
4.72 -0.433815
4.73 -0.435549
4.74 -0.436631
4.75 -0.437159
4.76 -0.437236
4.77 -0.43697
4.78 -0.436467
4.79 -0.435831
4.8 -0.435185
4.81 -0.434615
4.82 -0.434198
4.83 -0.433998
4.84 -0.434063
4.85 -0.434443
4.86 -0.435157
4.87 -0.436185
4.88 -0.437509
4.89 -0.439102
4.9 -0.440924
4.91 -0.442927
4.92 -0.445065
4.93 -0.447261
4.94 -0.449455
4.95 -0.451591
4.96 -0.453613
4.97 -0.455472
4.98 -0.457114
4.99 -0.458491
5 -0.45959
5.01 -0.460391
5.02 -0.460876
5.03 -0.461037
5.04 -0.460863
5.05 -0.460317
5.06 -0.459417
5.07 -0.458163
5.08 -0.456542
5.09 -0.454536
5.1 -0.452122
5.11 -0.449252
5.12 -0.445859
5.13 -0.441932
5.14 -0.437415
5.15 -0.432249
5.16 -0.42637
5.17 -0.41971
5.18 -0.412121
5.19 -0.403583
5.2 -0.394059
5.21 -0.383498
5.22 -0.371858
5.23 -0.359109
5.24 -0.345206
5.25 -0.33007
5.26 -0.313824
5.27 -0.2965
5.28 -0.278147
5.29 -0.258827
5.3 -0.238618
5.31 -0.217551
5.32 -0.195771
5.33 -0.173413
5.34 -0.150588
5.35 -0.127407
5.36 -0.10398
5.37 -0.0804128
5.38 -0.0568147
5.39 -0.0332889
5.4 -0.00991742
5.41 0.0132275
5.42 0.0360834
5.43 0.0585973
5.44 0.0806969
5.45 0.102347
5.46 0.123539
5.47 0.144245
5.48 0.164442
5.49 0.184102
5.5 0.203197
5.51 0.221621
5.52 0.239396
5.53 0.256471
5.54 0.272789
5.55 0.28828
5.56 0.302868
5.57 0.316408
5.58 0.32879
5.59 0.33998
5.6 0.349884
5.61 0.358408
5.62 0.365467
5.63 0.370981
5.64 0.374705
5.65 0.376746
5.66 0.377089
5.67 0.375727
5.68 0.372674
5.69 0.367966
5.7 0.361597
5.71 0.353621
5.72 0.344263
5.73 0.333648
5.74 0.321921
5.75 0.309235
5.76 0.295754
5.77 0.2816
5.78 0.267006
5.79 0.252146
5.8 0.237171
5.81 0.222218
5.82 0.207408
5.83 0.192856
5.84 0.178668
5.85 0.164877
5.86 0.151514
5.87 0.138592
5.88 0.126102
5.89 0.114021
5.9 0.102339
5.91 0.0909794
5.92 0.0798773
5.93 0.068977
5.94 0.0582273
5.95 0.0475841
5.96 0.0370165
5.97 0.0265107
5.98 0.0160651
5.99 0.00570382
6 -0.0045285
6.01 -0.0145673
6.02 -0.0243288
6.03 -0.033675
6.04 -0.042485
6.05 -0.0506471
6.06 -0.0580273
6.07 -0.0644908
6.08 -0.0699069
6.09 -0.0741397
6.1 -0.0769482
6.11 -0.0783754
6.12 -0.0783607
6.13 -0.0768705
6.14 -0.0738999
6.15 -0.0694746
6.16 -0.0635676
6.17 -0.0562988
6.18 -0.0478656
6.19 -0.0384169
6.2 -0.0281237
6.21 -0.0171742
6.22 -0.00576962
6.23 0.00588613
6.24 0.0175355
6.25 0.0289747
6.26 0.0400117
6.27 0.0504702
6.28 0.060195
6.29 0.0690041
6.3 0.0767726
6.31 0.0834931
6.32 0.0891326
6.33 0.0936893
6.34 0.0971913
6.35 0.0996952
6.36 0.101197
6.37 0.1019
6.38 0.101941
6.39 0.101457
6.4 0.10059
6.41 0.0994863
6.42 0.0982914
6.43 0.0971602
6.44 0.0962185
6.45 0.0955713
6.46 0.0953057
6.47 0.0954888
6.48 0.096167
6.49 0.0974155
6.5 0.0991985
6.51 0.101485
6.52 0.104241
6.53 0.107416
6.54 0.110951
6.55 0.114786
6.56 0.118852
6.57 0.123054
6.58 0.127324
6.59 0.131601
6.6 0.135831
6.61 0.139972
6.62 0.143983
6.63 0.147849
6.64 0.151573
6.65 0.155162
6.66 0.158637
6.67 0.162023
6.68 0.165356
6.69 0.168676
6.7 0.172027
6.71 0.175447
6.72 0.178969
6.73 0.182618
6.74 0.186414
6.75 0.190374
6.76 0.194488
6.77 0.19873
6.78 0.203068
6.79 0.207461
6.8 0.211854
6.81 0.216186
6.82 0.220363
6.83 0.224319
6.84 0.227975
6.85 0.231254
6.86 0.234081
6.87 0.236386
6.88 0.238066
6.89 0.239065
6.9 0.239374
6.91 0.238964
6.92 0.237818
6.93 0.23593
6.94 0.233307
6.95 0.229887
6.96 0.225782
6.97 0.221031
6.98 0.215677
6.99 0.209769
7 0.203356
7.01 0.196471
7.02 0.189165
7.03 0.181513
7.04 0.173559
7.05 0.165341
7.06 0.156893
7.07 0.14824
7.08 0.139389
7.09 0.130374
7.1 0.121208
7.11 0.111901
7.12 0.102461
7.13 0.0928939
7.14 0.0832036
7.15 0.0733971
7.16 0.0634975
7.17 0.0535227
7.18 0.0434951
7.19 0.0334422
7.2 0.0233962
7.21 0.0134016
7.22 0.00350102
7.23 -0.00626308
7.24 -0.0158462
7.25 -0.0252042
7.26 -0.0342952
7.27 -0.0430713
7.28 -0.0514755
7.29 -0.0595118
7.3 -0.067165
7.31 -0.0744297
7.32 -0.0813105
7.33 -0.0878228
7.34 -0.0939681
7.35 -0.0998044
7.36 -0.105392
7.37 -0.110786
7.38 -0.116048
7.39 -0.121244
7.4 -0.126444
7.41 -0.131728
7.42 -0.137159
7.43 -0.142795
7.44 -0.148687
7.45 -0.154877
7.46 -0.161394
7.47 -0.168281
7.48 -0.175534
7.49 -0.183122
7.5 -0.191021
7.51 -0.199191
7.52 -0.207582
7.53 -0.216132
7.54 -0.224771
7.55 -0.233405
7.56 -0.241951
7.57 -0.250325
7.58 -0.258442
7.59 -0.266222
7.6 -0.273558
7.61 -0.280372
7.62 -0.286628
7.63 -0.292278
7.64 -0.29728
7.65 -0.301608
7.66 -0.305242
7.67 -0.308097
7.68 -0.310253
7.69 -0.311725
7.7 -0.312534
7.71 -0.312708
7.72 -0.312275
7.73 -0.311245
7.74 -0.309645
7.75 -0.307551
7.76 -0.304997
7.77 -0.302013
7.78 -0.298628
7.79 -0.29487
7.8 -0.290727
7.81 -0.28625
7.82 -0.281463
7.83 -0.276382
7.84 -0.271022
7.85 -0.265399
7.86 -0.259523
7.87 -0.253406
7.88 -0.247095
7.89 -0.240617
7.9 -0.234009
7.91 -0.22731
7.92 -0.220566
7.93 -0.213834
7.94 -0.207178
7.95 -0.200658
7.96 -0.194338
7.97 -0.188283
7.98 -0.182557
7.99 -0.177236
8 -0.172415
8.01 -0.168109
8.02 -0.164363
8.03 -0.161215
8.04 -0.158689
8.05 -0.156802
8.06 -0.155608
8.07 -0.155068
8.08 -0.155137
8.09 -0.155779
8.1 -0.15695
8.11 -0.158596
8.12 -0.160658
8.13 -0.163089
8.14 -0.165772
8.15 -0.168629
8.16 -0.171582
8.17 -0.174552
8.18 -0.177465
8.19 -0.180234
8.2 -0.182788
8.21 -0.185073
8.22 -0.18704
8.23 -0.188642
8.24 -0.189843
8.25 -0.190611
8.26 -0.19087
8.27 -0.190652
8.28 -0.189945
8.29 -0.18874
8.3 -0.187031
8.31 -0.184812
8.32 -0.182048
8.33 -0.17873
8.34 -0.174879
8.35 -0.170485
8.36 -0.165534
8.37 -0.160009
8.38 -0.153889
8.39 -0.147085
8.4 -0.13963
8.41 -0.131507
8.42 -0.12269
8.43 -0.113158
8.44 -0.10289
8.45 -0.0918367
8.46 -0.0799654
8.47 -0.0673278
8.48 -0.0539284
8.49 -0.0397795
8.5 -0.0249018
8.51 -0.00932431
8.52 0.00697584
8.53 0.0238938
8.54 0.0413619
8.55 0.0593186
8.56 0.0776964
8.57 0.0964239
8.58 0.115433
8.59 0.134646
8.6 0.153963
8.61 0.17331
8.62 0.192611
8.63 0.211796
8.64 0.230798
8.65 0.249528
8.66 0.267936
8.67 0.285978
8.68 0.303606
8.69 0.32078
8.7 0.337461
8.71 0.3536
8.72 0.369122
8.73 0.384048
8.74 0.398347
8.75 0.411989
8.76 0.424945
8.77 0.437182
8.78 0.448605
8.79 0.4592
8.8 0.468958
8.81 0.477835
8.82 0.485789
8.83 0.492772
8.84 0.498724
8.85 0.503492
8.86 0.507136
8.87 0.50961
8.88 0.51087
8.89 0.510875
8.9 0.509589
8.91 0.506892
8.92 0.502772
8.93 0.497279
8.94 0.490403
8.95 0.482136
8.96 0.472483
8.97 0.461449
8.98 0.448898
8.99 0.435012
9 0.419822
9.01 0.403364
9.02 0.385681
9.03 0.366818
9.04 0.346772
9.05 0.325598
9.06 0.30343
9.07 0.280335
9.08 0.256383
9.09 0.231653
9.1 0.206224
9.11 0.180127
9.12 0.153522
9.13 0.126514
9.14 0.0992061
9.15 0.0717063
9.16 0.0441285
9.17 0.016599
9.18 -0.0107355
9.19 -0.0377517
9.2 -0.0643191
9.21 -0.0903057
9.22 -0.115579
9.23 -0.140009
9.24 -0.163362
9.25 -0.185574
9.26 -0.206552
9.27 -0.226188
9.28 -0.244387
9.29 -0.261064
9.3 -0.276095
9.31 -0.289329
9.32 -0.300864
9.33 -0.310678
9.34 -0.318762
9.35 -0.325125
9.36 -0.329789
9.37 -0.332651
9.38 -0.333855
9.39 -0.333513
9.4 -0.331693
9.41 -0.328468
9.42 -0.323916
9.43 -0.318089
9.44 -0.310988
9.45 -0.302803
9.46 -0.293605
9.47 -0.283456
9.48 -0.272412
9.49 -0.260521
9.5 -0.247765
9.51 -0.234205
9.52 -0.219898
9.53 -0.204862
9.54 -0.189111
9.55 -0.172655
9.56 -0.155497
9.57 -0.137583
9.58 -0.119003
9.59 -0.0997788
9.6 -0.0799392
9.61 -0.0595228
9.62 -0.0385787
9.63 -0.0171428
9.64 0.00469585
9.65 0.0268247
9.66 0.0491449
9.67 0.0715473
9.68 0.0939138
9.69 0.11612
9.7 0.137986
9.71 0.159402
9.72 0.180237
9.73 0.200362
9.74 0.219659
9.75 0.238014
9.76 0.25527
9.77 0.271314
9.78 0.286147
9.79 0.299721
9.8 0.312002
9.81 0.322976
9.82 0.332645
9.83 0.340898
9.84 0.347893
9.85 0.353696
9.86 0.358369
9.87 0.361982
9.88 0.364608
9.89 0.366292
9.9 0.367094
9.91 0.367155
9.92 0.366546
9.93 0.365329
9.94 0.363557
9.95 0.361274
9.96 0.358472
9.97 0.355206
9.98 0.351499
9.99 0.347349
10 0.34275
10.01 0.337688
10.02 0.332129
10.03 0.326019
10.04 0.319379
10.05 0.31219
10.06 0.304437
10.07 0.296112
10.08 0.287213
10.09 0.277704
10.1 0.267634
10.11 0.257054
10.12 0.246007
10.13 0.234545
10.14 0.22273
10.15 0.210627
10.16 0.198306
10.17 0.185876
10.18 0.173421
10.19 0.161025
10.2 0.148769
10.21 0.136732
10.22 0.125011
10.23 0.113671
10.24 0.10275
10.25 0.0922898
10.26 0.0823219
10.27 0.0728656
10.28 0.0639329
10.29 0.055573
10.3 0.0477133
10.31 0.0403297
10.32 0.0333908
10.33 0.0268591
10.34 0.0206929
10.35 0.0148638
10.36 0.00931762
10.37 0.00399064
10.38 -0.00116119
10.39 -0.00617936
10.4 -0.011102
10.41 -0.0159633
10.42 -0.0207932
10.43 -0.0256228
10.44 -0.0304738
10.45 -0.0353647
10.46 -0.0403115
10.47 -0.0453286
10.48 -0.0504345
10.49 -0.0556467
10.5 -0.0609744
10.51 -0.0664337
10.52 -0.0720432
10.53 -0.0778234
10.54 -0.0837973
10.55 -0.0900147
10.56 -0.0964862
10.57 -0.103236
10.58 -0.11029
10.59 -0.117674
10.6 -0.125412
10.61 -0.133536
10.62 -0.142077
10.63 -0.151012
10.64 -0.160337
10.65 -0.170043
10.66 -0.180111
10.67 -0.190511
10.68 -0.201231
10.69 -0.212198
10.7 -0.22335
10.71 -0.234626
10.72 -0.245959
10.73 -0.257282
10.74 -0.26852
10.75 -0.279585
10.76 -0.290421
10.77 -0.30097
10.78 -0.311178
10.79 -0.321004
10.8 -0.330413
10.81 -0.339348
10.82 -0.34782
10.83 -0.355849
10.84 -0.363454
10.85 -0.370661
10.86 -0.377508
10.87 -0.384038
10.88 -0.390285
10.89 -0.396338
10.9 -0.402253
10.91 -0.408085
10.92 -0.413887
10.93 -0.419704
10.94 -0.425578
10.95 -0.431535
10.96 -0.437586
10.97 -0.443726
10.98 -0.449941
10.99 -0.456201
11 -0.462462
11.01 -0.468656
11.02 -0.474715
11.03 -0.48056
11.04 -0.486108
11.05 -0.491271
11.06 -0.495959
11.07 -0.500045
11.08 -0.503433
11.09 -0.506079
11.1 -0.507918
11.11 -0.508894
11.12 -0.508964
11.13 -0.508098
11.14 -0.506176
11.15 -0.5033
11.16 -0.499492
11.17 -0.494783
11.18 -0.489216
11.19 -0.482841
11.2 -0.475687
11.21 -0.467814
11.22 -0.459342
11.23 -0.450341
11.24 -0.440878
11.25 -0.431018
11.26 -0.420816
11.27 -0.410296
11.28 -0.399527
11.29 -0.38854
11.3 -0.377352
11.31 -0.36597
11.32 -0.354391
11.33 -0.342595
11.34 -0.330547
11.35 -0.318237
11.36 -0.305634
11.37 -0.292704
11.38 -0.279412
11.39 -0.265728
11.4 -0.251581
11.41 -0.236973
11.42 -0.221899
11.43 -0.206351
11.44 -0.19033
11.45 -0.173844
11.46 -0.156901
11.47 -0.139501
11.48 -0.121719
11.49 -0.103597
11.5 -0.0851778
11.51 -0.0665106
11.52 -0.0476447
11.53 -0.0286219
11.54 -0.00950204
11.55 0.00966519
11.56 0.02884
11.57 0.0479882
11.58 0.0670812
11.59 0.0860958
11.6 0.105007
11.61 0.123814
11.62 0.142516
11.63 0.161112
11.64 0.179609
11.65 0.198012
11.66 0.216322
11.67 0.234548
11.68 0.252695
11.69 0.270761
11.7 0.288739
11.71 0.306612
11.72 0.32436
11.73 0.34193
11.74 0.359298
11.75 0.376414
11.76 0.393225
11.77 0.409668
11.78 0.425677
11.79 0.441149
11.8 0.455995
11.81 0.470173
11.82 0.483608
11.83 0.496231
11.84 0.507974
11.85 0.518776
11.86 0.528469
11.87 0.537102
11.88 0.544645
11.89 0.55107
11.9 0.556357
11.91 0.560493
11.92 0.563422
11.93 0.565114
11.94 0.565661
11.95 0.565077
11.96 0.563377
11.97 0.560578
11.98 0.556699
11.99 0.551656
12 0.545546
12.01 0.538406
12.02 0.530245
12.03 0.52107
12.04 0.510886
12.05 0.499662
12.06 0.487348
12.07 0.474027
12.08 0.459701
12.09 0.444372
12.1 0.428046
12.11 0.410734
12.12 0.392373
12.13 0.373046
12.14 0.35282
12.15 0.331741
12.16 0.309867
12.17 0.287268
12.18 0.264012
12.19 0.240163
12.2 0.215887
12.21 0.191298
12.22 0.166517
12.23 0.141674
