# xPDFsuite Configuration #
[PDF]
wavelength = 0.1
dataformat = QA
inputfile = BiMsol6_insitu_700 C-00490.xy
backgroundfile = Quartz2mm-dist500-00000.xy
mode = xray
bgscale = 0.0042
composition = Bi2Fe4O9
outputtype = gr
qmaxinst = 24.998449118
qmin = 0.1
qmax = 21.4986662415
rmax = 80.0
rmin = 0.0
rstep = 0.01
rpoly = 0.9

[Misc]
inputdir = C:/Data/Seafile/CPH/Beamtime/Desy Oct 20/In situ data/Processed/BiMsol6/PDF
savedir = C:/Data/Seafile/CPH/Beamtime/Desy Oct 20/In situ data/PDF/BiMsol6
backgroundfilefull = C:/Data/Seafile/CPH/Beamtime/Desy Oct 20/In situ data/Processed/Standard_Empty_Cap/Quartz2mm-dist500-00000.xy

#### start data
#S 1
#L r($\AA$)  G($\AA^{-2}$)
0 0
0.01 0.00634526
0.02 0.012331
0.03 0.0176496
0.04 0.0220251
0.05 0.0252258
0.06 0.0270753
0.07 0.0273807
0.08 0.026086
0.09 0.023334
0.1 0.0192421
0.11 0.0139922
0.12 0.00782302
0.13 0.00101885
0.14 -0.00610039
0.15 -0.0131329
0.16 -0.0197395
0.17 -0.0256025
0.18 -0.0304372
0.19 -0.0340061
0.2 -0.0360655
0.21 -0.0364496
0.22 -0.0352575
0.23 -0.0325564
0.24 -0.0284914
0.25 -0.0232805
0.26 -0.0172061
0.27 -0.0105901
0.28 -0.00389331
0.29 0.00247428
0.3 0.00811494
0.31 0.0126512
0.32 0.0157444
0.33 0.0170523
0.34 0.0162409
0.35 0.0133656
0.36 0.00842723
0.37 0.00153031
0.38 -0.0071157
0.39 -0.0171995
0.4 -0.0283595
0.41 -0.0399795
0.42 -0.0514556
0.43 -0.0621741
0.44 -0.071501
0.45 -0.0788059
0.46 -0.0834231
0.47 -0.0844954
0.48 -0.0818422
0.49 -0.0751209
0.5 -0.0641112
0.51 -0.0487286
0.52 -0.0290348
0.53 -0.00497125
0.54 0.0229073
0.55 0.0538747
0.56 0.087256
0.57 0.122264
0.58 0.158022
0.59 0.193574
0.6 0.227702
0.61 0.259462
0.62 0.287902
0.63 0.312133
0.64 0.331356
0.65 0.34489
0.66 0.351787
0.67 0.351673
0.68 0.344739
0.69 0.331008
0.7 0.310685
0.71 0.284155
0.72 0.251966
0.73 0.214347
0.74 0.172784
0.75 0.128246
0.76 0.0817603
0.77 0.0343865
0.78 -0.0128093
0.79 -0.0586741
0.8 -0.102057
0.81 -0.142183
0.82 -0.178308
0.83 -0.20982
0.84 -0.236264
0.85 -0.257348
0.86 -0.27238
0.87 -0.281931
0.88 -0.286318
0.89 -0.285928
0.9 -0.281273
0.91 -0.272971
0.92 -0.261635
0.93 -0.248048
0.94 -0.233214
0.95 -0.21791
0.96 -0.20288
0.97 -0.18881
0.98 -0.176311
0.99 -0.166129
1 -0.158556
1.01 -0.153791
1.02 -0.151969
1.03 -0.1531
1.04 -0.157079
1.05 -0.163764
1.06 -0.172943
1.07 -0.18399
1.08 -0.196459
1.09 -0.209872
1.1 -0.223738
1.11 -0.237577
1.12 -0.250862
1.13 -0.263162
1.14 -0.274162
1.15 -0.283603
1.16 -0.291303
1.17 -0.297165
1.18 -0.301141
1.19 -0.303163
1.2 -0.303569
1.21 -0.302571
1.22 -0.300425
1.23 -0.297423
1.24 -0.29387
1.25 -0.290081
1.26 -0.286396
1.27 -0.283084
1.28 -0.280363
1.29 -0.278402
1.3 -0.277311
1.31 -0.277144
1.32 -0.277975
1.33 -0.279615
1.34 -0.281921
1.35 -0.28471
1.36 -0.287761
1.37 -0.290833
1.38 -0.293644
1.39 -0.29591
1.4 -0.29742
1.41 -0.29798
1.42 -0.297439
1.43 -0.295696
1.44 -0.292705
1.45 -0.288353
1.46 -0.282868
1.47 -0.276408
1.48 -0.269176
1.49 -0.26142
1.5 -0.253423
1.51 -0.245509
1.52 -0.238048
1.53 -0.231339
1.54 -0.225667
1.55 -0.221282
1.56 -0.218388
1.57 -0.217133
1.58 -0.217775
1.59 -0.220169
1.6 -0.224207
1.61 -0.22974
1.62 -0.236548
1.63 -0.244354
1.64 -0.252838
1.65 -0.261587
1.66 -0.270153
1.67 -0.278128
1.68 -0.28511
1.69 -0.290724
1.7 -0.294628
1.71 -0.29633
1.72 -0.295712
1.73 -0.292689
1.74 -0.287203
1.75 -0.279275
1.76 -0.269004
1.77 -0.25652
1.78 -0.24199
1.79 -0.225933
1.8 -0.208724
1.81 -0.190769
1.82 -0.172496
1.83 -0.154333
1.84 -0.136774
1.85 -0.120234
1.86 -0.105028
1.87 -0.0914371
1.88 -0.0796785
1.89 -0.0698968
1.9 -0.062191
1.91 -0.0567213
1.92 -0.0531744
1.93 -0.0513795
1.94 -0.0511062
1.95 -0.0520746
1.96 -0.0539682
1.97 -0.0564621
1.98 -0.0591466
1.99 -0.0616576
2 -0.0636822
2.01 -0.0649452
2.02 -0.0652209
2.03 -0.0643376
2.04 -0.0620531
2.05 -0.0584918
2.06 -0.0537162
2.07 -0.047859
2.08 -0.0411183
2.09 -0.0337504
2.1 -0.0260623
2.11 -0.0184532
2.12 -0.0113093
2.13 -0.00500544
2.14 9.2335e-05
2.15 0.00364106
2.16 0.00533408
2.17 0.00465941
2.18 0.0016266
2.19 -0.00386092
2.2 -0.011842
2.21 -0.0222799
2.22 -0.0350622
2.23 -0.0500909
2.24 -0.067119
2.25 -0.0856712
2.26 -0.10538
2.27 -0.125845
2.28 -0.146647
2.29 -0.167361
2.3 -0.187483
2.31 -0.206619
2.32 -0.224432
2.33 -0.240623
2.34 -0.254948
2.35 -0.267229
2.36 -0.277278
2.37 -0.284952
2.38 -0.290478
2.39 -0.293967
2.4 -0.295589
2.41 -0.295566
2.42 -0.294161
2.43 -0.291603
2.44 -0.28831
2.45 -0.284638
2.46 -0.280903
2.47 -0.277405
2.48 -0.274417
2.49 -0.272199
2.5 -0.271032
2.51 -0.270974
2.52 -0.272109
2.53 -0.274465
2.54 -0.278022
2.55 -0.282713
2.56 -0.288493
2.57 -0.295152
2.58 -0.302465
2.59 -0.310231
2.6 -0.318234
2.61 -0.326261
2.62 -0.334095
2.63 -0.341482
2.64 -0.348276
2.65 -0.354334
2.66 -0.359543
2.67 -0.363821
2.68 -0.367122
2.69 -0.369369
2.7 -0.370599
2.71 -0.370917
2.72 -0.370399
2.73 -0.369139
2.74 -0.367243
2.75 -0.364826
2.76 -0.36197
2.77 -0.358844
2.78 -0.35555
2.79 -0.352176
2.8 -0.348796
2.81 -0.345464
2.82 -0.342224
2.83 -0.339095
2.84 -0.336067
2.85 -0.333121
2.86 -0.330226
2.87 -0.327341
2.88 -0.32442
2.89 -0.3214
2.9 -0.318235
2.91 -0.314885
2.92 -0.311313
2.93 -0.307492
2.94 -0.303406
2.95 -0.299035
2.96 -0.294375
2.97 -0.289458
2.98 -0.284303
2.99 -0.27893
3 -0.27336
3.01 -0.267608
3.02 -0.261668
3.03 -0.255548
3.04 -0.249235
3.05 -0.242692
3.06 -0.235869
3.07 -0.228693
3.08 -0.221059
3.09 -0.212815
3.1 -0.203877
3.11 -0.194113
3.12 -0.183381
3.13 -0.171541
3.14 -0.158457
3.15 -0.143875
3.16 -0.127745
3.17 -0.110029
3.18 -0.0906698
3.19 -0.0696441
3.2 -0.0469629
3.21 -0.0226438
3.22 0.00332246
3.23 0.0306436
3.24 0.0591431
3.25 0.0886095
3.26 0.1188
3.27 0.149447
3.28 0.180249
3.29 0.210856
3.3 0.240953
3.31 0.270232
3.32 0.298399
3.33 0.325174
3.34 0.350283
3.35 0.373296
3.36 0.394212
3.37 0.412893
3.38 0.429236
3.39 0.443184
3.4 0.454722
3.41 0.463726
3.42 0.470296
3.43 0.474663
3.44 0.47696
3.45 0.47734
3.46 0.475974
3.47 0.473044
3.48 0.468596
3.49 0.462988
3.5 0.4564
3.51 0.448993
3.52 0.440916
3.53 0.432299
3.54 0.423237
3.55 0.413825
3.56 0.404157
3.57 0.39428
3.58 0.384228
3.59 0.37402
3.6 0.363668
3.61 0.353164
3.62 0.342527
3.63 0.331765
3.64 0.320895
3.65 0.30994
3.66 0.298939
3.67 0.287944
3.68 0.277035
3.69 0.266294
3.7 0.255819
3.71 0.245718
3.72 0.236109
3.73 0.227118
3.74 0.218953
3.75 0.211704
3.76 0.205472
3.77 0.200369
3.78 0.196492
3.79 0.193924
3.8 0.192769
3.81 0.193155
3.82 0.194973
3.83 0.198215
3.84 0.20285
3.85 0.208825
3.86 0.216067
3.87 0.224573
3.88 0.234168
3.89 0.244692
3.9 0.256019
3.91 0.268018
3.92 0.28056
3.93 0.293522
3.94 0.306789
3.95 0.320209
3.96 0.333681
3.97 0.34711
3.98 0.360416
3.99 0.373528
4 0.386363
4.01 0.398869
4.02 0.411016
4.03 0.422765
4.04 0.434082
4.05 0.444931
4.06 0.455271
4.07 0.465003
4.08 0.474136
4.09 0.482619
4.1 0.490394
4.11 0.497396
4.12 0.503554
4.13 0.508735
4.14 0.51285
4.15 0.515873
4.16 0.517728
4.17 0.518342
4.18 0.517649
4.19 0.515592
4.2 0.511965
4.21 0.50689
4.22 0.500361
4.23 0.492386
4.24 0.482985
4.25 0.472199
4.26 0.460021
4.27 0.446512
4.28 0.431846
4.29 0.416119
4.3 0.399435
4.31 0.381898
4.32 0.363616
4.33 0.344639
4.34 0.325129
4.35 0.305185
4.36 0.284884
4.37 0.26429
4.38 0.243457
4.39 0.222414
4.4 0.201181
4.41 0.179785
4.42 0.158223
4.43 0.136489
4.44 0.11457
4.45 0.092451
4.46 0.0700988
4.47 0.0475186
4.48 0.0247173
4.49 0.00170758
4.5 -0.0214848
4.51 -0.0448192
4.52 -0.0682389
4.53 -0.0916599
4.54 -0.114982
4.55 -0.138099
4.56 -0.160891
4.57 -0.183229
4.58 -0.20498
4.59 -0.225937
4.6 -0.245981
4.61 -0.265011
4.62 -0.282914
4.63 -0.299589
4.64 -0.314956
4.65 -0.328932
4.66 -0.341361
4.67 -0.35238
4.68 -0.362011
4.69 -0.370304
4.7 -0.377331
4.71 -0.383188
4.72 -0.387928
4.73 -0.391723
4.74 -0.394771
4.75 -0.397221
4.76 -0.399227
4.77 -0.400938
4.78 -0.402497
4.79 -0.404044
4.8 -0.405703
4.81 -0.407564
4.82 -0.409693
4.83 -0.412137
4.84 -0.414916
4.85 -0.418046
4.86 -0.421497
4.87 -0.425199
4.88 -0.429088
4.89 -0.433082
4.9 -0.437095
4.91 -0.441032
4.92 -0.444765
4.93 -0.448212
4.94 -0.451286
4.95 -0.453911
4.96 -0.456023
4.97 -0.457572
4.98 -0.458493
4.99 -0.458753
5 -0.458396
5.01 -0.457435
5.02 -0.455899
5.03 -0.453824
5.04 -0.451258
5.05 -0.44821
5.06 -0.444773
5.07 -0.441004
5.08 -0.436948
5.09 -0.432639
5.1 -0.428105
5.11 -0.423352
5.12 -0.418374
5.13 -0.413175
5.14 -0.407731
5.15 -0.402007
5.16 -0.39596
5.17 -0.389542
5.18 -0.382657
5.19 -0.375272
5.2 -0.367351
5.21 -0.358851
5.22 -0.34974
5.23 -0.339996
5.24 -0.3296
5.25 -0.31852
5.26 -0.306848
5.27 -0.294631
5.28 -0.281934
5.29 -0.268835
5.3 -0.255429
5.31 -0.24181
5.32 -0.228114
5.33 -0.214462
5.34 -0.20097
5.35 -0.187749
5.36 -0.174903
5.37 -0.162532
5.38 -0.150773
5.39 -0.139637
5.4 -0.129164
5.41 -0.119379
5.42 -0.110286
5.43 -0.101874
5.44 -0.0941541
5.45 -0.0870645
5.46 -0.0805155
5.47 -0.0744424
5.48 -0.068776
5.49 -0.0634466
5.5 -0.0583873
5.51 -0.0535537
5.52 -0.0488668
5.53 -0.0442887
5.54 -0.0397948
5.55 -0.0353751
5.56 -0.0310338
5.57 -0.0267968
5.58 -0.0227029
5.59 -0.0187904
5.6 -0.0151114
5.61 -0.0117222
5.62 -0.00867959
5.63 -0.00603758
5.64 -0.00389598
5.65 -0.00224855
5.66 -0.00111065
5.67 -0.000484842
5.68 -0.000355052
5.69 -0.000685443
5.7 -0.0014344
5.71 -0.00252213
5.72 -0.00382176
5.73 -0.0052202
5.74 -0.00659271
5.75 -0.00780677
5.76 -0.00872645
5.77 -0.00916267
5.78 -0.00900748
5.79 -0.00815633
5.8 -0.0065127
5.81 -0.0040009
5.82 -0.000569411
5.83 0.00383765
5.84 0.00925996
5.85 0.0155772
5.86 0.0227204
5.87 0.0305941
5.88 0.0390791
5.89 0.0480363
5.9 0.0573235
5.91 0.0667364
5.92 0.0760954
5.93 0.0852331
5.94 0.0939906
5.95 0.102223
5.96 0.109788
5.97 0.116519
5.98 0.122414
5.99 0.127436
6 0.131583
6.01 0.134881
6.02 0.137388
6.03 0.139149
6.04 0.140316
6.05 0.141057
6.06 0.141522
6.07 0.14187
6.08 0.142262
6.09 0.142858
6.1 0.143852
6.11 0.145343
6.12 0.147428
6.13 0.15018
6.14 0.153638
6.15 0.157809
6.16 0.162704
6.17 0.16824
6.18 0.174278
6.19 0.180685
6.2 0.187305
6.21 0.193963
6.22 0.200468
6.23 0.20656
6.24 0.212062
6.25 0.216785
6.26 0.220555
6.27 0.223215
6.28 0.224635
6.29 0.224639
6.3 0.223139
6.31 0.220199
6.32 0.215833
6.33 0.210089
6.34 0.20305
6.35 0.194828
6.36 0.185471
6.37 0.175259
6.38 0.164383
6.39 0.153034
6.4 0.141402
6.41 0.129674
6.42 0.118038
6.43 0.106683
6.44 0.0957343
6.45 0.0853003
6.46 0.0754608
6.47 0.0662659
6.48 0.0577353
6.49 0.0499172
6.5 0.0427171
6.51 0.0360509
6.52 0.0298288
6.53 0.0239454
6.54 0.0182845
6.55 0.0127236
6.56 0.00712459
6.57 0.00136729
6.58 -0.0046494
6.59 -0.0110102
6.6 -0.0177798
6.61 -0.025
6.62 -0.0327259
6.63 -0.0409197
6.64 -0.0495238
6.65 -0.0584726
6.66 -0.0676783
6.67 -0.0770343
6.68 -0.0864166
6.69 -0.095666
6.7 -0.104642
6.71 -0.113204
6.72 -0.121217
6.73 -0.128553
6.74 -0.1351
6.75 -0.140688
6.76 -0.145259
6.77 -0.1488
6.78 -0.151286
6.79 -0.152711
6.8 -0.153094
6.81 -0.152463
6.82 -0.15079
6.83 -0.148259
6.84 -0.144955
6.85 -0.140972
6.86 -0.136406
6.87 -0.131353
6.88 -0.125883
6.89 -0.120092
6.9 -0.114068
6.91 -0.107862
6.92 -0.10151
6.93 -0.0950275
6.94 -0.0884159
6.95 -0.0816365
6.96 -0.0746655
6.97 -0.067452
6.98 -0.0599331
6.99 -0.0520385
7 -0.043693
7.01 -0.0347898
7.02 -0.0252349
7.03 -0.014999
7.04 -0.00402684
7.05 0.00772369
7.06 0.0202793
7.07 0.0336495
7.08 0.0479055
7.09 0.0629406
7.1 0.0786913
7.11 0.0950873
7.12 0.112042
7.13 0.129454
7.14 0.147218
7.15 0.165201
7.16 0.183246
7.17 0.201221
7.18 0.218991
7.19 0.236429
7.2 0.253409
7.21 0.269753
7.22 0.285386
7.23 0.300231
7.24 0.314211
7.25 0.327265
7.26 0.33934
7.27 0.350372
7.28 0.360268
7.29 0.369108
7.3 0.376888
7.31 0.38361
7.32 0.389282
7.33 0.393914
7.34 0.397435
7.35 0.399902
7.36 0.40136
7.37 0.401814
7.38 0.401261
7.39 0.399699
7.4 0.3971
7.41 0.393363
7.42 0.388571
7.43 0.382706
7.44 0.375746
7.45 0.367673
7.46 0.358469
7.47 0.348041
7.48 0.33641
7.49 0.323632
7.5 0.309722
7.51 0.294702
7.52 0.278609
7.53 0.261485
7.54 0.2433
7.55 0.224243
7.56 0.204404
7.57 0.183886
7.58 0.162799
7.59 0.141266
7.6 0.119406
7.61 0.0973741
7.62 0.0753292
7.63 0.053412
7.64 0.0317633
7.65 0.0105214
7.66 -0.01018
7.67 -0.0301253
7.68 -0.0492565
7.69 -0.0674701
7.7 -0.0846703
7.71 -0.100773
7.72 -0.115709
7.73 -0.129359
7.74 -0.141648
7.75 -0.152638
7.76 -0.162316
7.77 -0.170685
7.78 -0.177759
7.79 -0.183565
7.8 -0.188024
7.81 -0.191295
7.82 -0.193458
7.83 -0.194582
7.84 -0.194742
7.85 -0.194018
7.86 -0.192468
7.87 -0.190158
7.88 -0.187241
7.89 -0.183803
7.9 -0.17993
7.91 -0.175704
7.92 -0.171204
7.93 -0.166492
7.94 -0.161654
7.95 -0.156755
7.96 -0.151847
7.97 -0.146974
7.98 -0.142172
7.99 -0.137473
8 -0.132908
8.01 -0.128478
8.02 -0.12419
8.03 -0.120043
8.04 -0.11603
8.05 -0.112144
8.06 -0.108381
8.07 -0.104719
8.08 -0.101142
8.09 -0.0976348
8.1 -0.0941874
8.11 -0.0907912
8.12 -0.0874417
8.13 -0.0841424
8.14 -0.0808933
8.15 -0.0777036
8.16 -0.0745867
8.17 -0.07156
8.18 -0.0686438
8.19 -0.0658718
8.2 -0.0632694
8.21 -0.0608541
8.22 -0.0586485
8.23 -0.0566726
8.24 -0.0549423
8.25 -0.0534691
8.26 -0.0522859
8.27 -0.0513581
8.28 -0.0506727
8.29 -0.050208
8.3 -0.0499342
8.31 -0.0498132
8.32 -0.0498025
8.33 -0.049841
8.34 -0.0498641
8.35 -0.0498097
8.36 -0.049614
8.37 -0.0492138
8.38 -0.0485478
8.39 -0.0475182
8.4 -0.0461037
8.41 -0.044267
8.42 -0.0419783
8.43 -0.0392193
8.44 -0.0359841
8.45 -0.0322596
8.46 -0.0280594
8.47 -0.023454
8.48 -0.0184924
8.49 -0.0132348
8.5 -0.00775065
8.51 -0.0021171
8.52 0.00358111
8.53 0.00924292
8.54 0.0147808
8.55 0.0201106
8.56 0.0251529
8.57 0.0298352
8.58 0.0340773
8.59 0.0377971
8.6 0.0409928
8.61 0.0436397
8.62 0.045726
8.63 0.0472534
8.64 0.0482361
8.65 0.0486577
8.66 0.0485903
8.67 0.0480959
8.68 0.0472269
8.69 0.0460398
8.7 0.0445923
8.71 0.0429382
8.72 0.0411272
8.73 0.0392248
8.74 0.0372708
8.75 0.0352962
8.76 0.0333226
8.77 0.031361
8.78 0.0294121
8.79 0.0274629
8.8 0.0254908
8.81 0.023466
8.82 0.0213515
8.83 0.0191057
8.84 0.0166808
8.85 0.0140046
8.86 0.011052
8.87 0.0077822
8.88 0.00415956
8.89 0.000155448
8.9 -0.00425064
8.91 -0.00909701
8.92 -0.0143785
8.93 -0.0200625
8.94 -0.0261283
8.95 -0.0325463
8.96 -0.0392792
8.97 -0.0462831
8.98 -0.0535284
8.99 -0.0609321
9 -0.0684405
9.01 -0.0760008
9.02 -0.0835633
9.03 -0.0910821
9.04 -0.0985108
9.05 -0.105811
9.06 -0.112966
9.07 -0.119959
9.08 -0.126783
9.09 -0.133439
9.1 -0.139932
9.11 -0.146262
9.12 -0.152461
9.13 -0.158552
9.14 -0.164554
9.15 -0.170488
9.16 -0.17637
9.17 -0.182211
9.18 -0.188016
9.19 -0.193785
9.2 -0.199508
9.21 -0.205166
9.22 -0.210732
9.23 -0.216171
9.24 -0.221419
9.25 -0.226435
9.26 -0.231168
9.27 -0.235562
9.28 -0.23956
9.29 -0.243105
9.3 -0.246128
9.31 -0.248547
9.32 -0.250366
9.33 -0.251557
9.34 -0.252101
9.35 -0.251988
9.36 -0.251221
9.37 -0.249761
9.38 -0.247671
9.39 -0.245006
9.4 -0.241812
9.41 -0.238137
9.42 -0.234038
9.43 -0.229565
9.44 -0.224758
9.45 -0.219706
9.46 -0.214458
9.47 -0.209057
9.48 -0.203536
9.49 -0.197921
9.5 -0.192218
9.51 -0.18643
9.52 -0.18055
9.53 -0.174553
9.54 -0.168406
9.55 -0.162069
9.56 -0.155487
9.57 -0.148573
9.58 -0.141295
9.59 -0.133596
9.6 -0.125421
9.61 -0.116719
9.62 -0.107447
9.63 -0.0975288
9.64 -0.0869432
9.65 -0.075713
9.66 -0.0638402
9.67 -0.0513397
9.68 -0.0382389
9.69 -0.0245769
9.7 -0.0103521
9.71 0.00430994
9.72 0.0193387
9.73 0.0346588
9.74 0.0501913
9.75 0.0658562
9.76 0.0815726
9.77 0.0972523
9.78 0.112822
9.79 0.128219
9.8 0.143385
9.81 0.158273
9.82 0.172845
9.83 0.187031
9.84 0.20084
9.85 0.214267
9.86 0.227305
9.87 0.239954
9.88 0.252218
9.89 0.264086
9.9 0.275552
9.91 0.286648
9.92 0.297375
9.93 0.307726
9.94 0.317694
9.95 0.327261
9.96 0.336363
9.97 0.344996
9.98 0.353133
9.99 0.360732
10 0.367748
10.01 0.374133
10.02 0.379818
10.03 0.384709
10.04 0.388822
10.05 0.392122
10.06 0.394581
10.07 0.396178
10.08 0.396905
10.09 0.396696
10.1 0.395611
10.11 0.393714
10.12 0.39105
10.13 0.387676
10.14 0.383661
10.15 0.379077
10.16 0.373982
10.17 0.368527
10.18 0.36281
10.19 0.356929
10.2 0.350982
10.21 0.345064
10.22 0.339277
10.23 0.333708
10.24 0.328417
10.25 0.323461
10.26 0.31888
10.27 0.314705
10.28 0.310953
10.29 0.307667
10.3 0.304783
10.31 0.302275
10.32 0.300103
10.33 0.298218
10.34 0.296564
10.35 0.295083
10.36 0.293697
10.37 0.292328
10.38 0.290904
10.39 0.289358
10.4 0.287623
10.41 0.285638
10.42 0.283306
10.43 0.280606
10.44 0.277497
10.45 0.273942
10.46 0.269911
10.47 0.265382
10.48 0.26031
10.49 0.254673
10.5 0.248498
10.51 0.241782
10.52 0.234526
10.53 0.226732
10.54 0.218403
10.55 0.209493
10.56 0.200055
10.57 0.190105
10.58 0.179651
10.59 0.168704
10.6 0.157276
10.61 0.145363
10.62 0.132963
10.63 0.120133
10.64 0.106894
10.65 0.0932714
10.66 0.0792949
10.67 0.0649973
10.68 0.0503934
10.69 0.0355478
10.7 0.0205128
10.71 0.00533635
10.72 -0.00993179
10.73 -0.0252404
10.74 -0.0405362
10.75 -0.0557579
10.76 -0.0708589
10.77 -0.0857941
10.78 -0.100522
10.79 -0.115008
10.8 -0.129221
10.81 -0.143112
10.82 -0.156677
10.83 -0.169921
10.84 -0.182842
10.85 -0.195447
10.86 -0.20775
10.87 -0.219764
10.88 -0.231494
10.89 -0.242995
10.9 -0.254296
10.91 -0.265424
10.92 -0.276409
10.93 -0.287276
10.94 -0.298041
10.95 -0.308724
10.96 -0.319339
10.97 -0.32989
10.98 -0.340369
10.99 -0.350767
11 -0.361061
11.01 -0.371206
11.02 -0.38118
11.03 -0.39094
11.04 -0.40044
11.05 -0.409631
11.06 -0.418461
11.07 -0.426848
11.08 -0.434732
11.09 -0.442086
11.1 -0.448864
11.11 -0.455021
11.12 -0.46052
11.13 -0.465327
11.14 -0.469335
11.15 -0.472596
11.16 -0.475105
11.17 -0.476856
11.18 -0.477848
11.19 -0.478088
11.2 -0.477552
11.21 -0.476237
11.22 -0.474214
11.23 -0.471501
11.24 -0.468117
11.25 -0.464082
11.26 -0.459414
11.27 -0.454071
11.28 -0.448118
11.29 -0.441579
11.3 -0.434464
11.31 -0.426781
11.32 -0.418534
11.33 -0.409709
11.34 -0.400282
11.35 -0.390301
11.36 -0.37977
11.37 -0.368691
11.38 -0.35707
11.39 -0.344914
11.4 -0.332189
11.41 -0.318943
11.42 -0.305209
11.43 -0.291011
11.44 -0.276375
11.45 -0.261332
11.46 -0.245909
11.47 -0.230128
11.48 -0.214064
11.49 -0.197762
11.5 -0.181268
11.51 -0.164628
11.52 -0.147892
11.53 -0.131104
11.54 -0.114321
11.55 -0.097588
11.56 -0.0809475
11.57 -0.0644398
11.58 -0.0481025
11.59 -0.0319737
11.6 -0.0161109
11.61 -0.000520822
11.62 0.0147701
11.63 0.0297378
11.64 0.0443601
11.65 0.0586165
11.66 0.0724614
11.67 0.0858802
11.68 0.0988761
11.69 0.111433
11.7 0.123536
11.71 0.135171
11.72 0.146322
11.73 0.15692
11.74 0.167009
11.75 0.176579
11.76 0.185622
11.77 0.194131
11.78 0.202103
11.79 0.209506
11.8 0.216339
11.81 0.222639
11.82 0.228415
11.83 0.233675
11.84 0.238434
11.85 0.242705
11.86 0.246456
11.87 0.249751
11.88 0.252613
11.89 0.255057
11.9 0.257099
11.91 0.258751
11.92 0.260006
11.93 0.260858
11.94 0.261335
11.95 0.261432
11.96 0.261136
11.97 0.260431
11.98 0.259294
11.99 0.257648
12 0.255491
12.01 0.252794
12.02 0.249512
12.03 0.245602
12.04 0.241017
12.05 0.235686
12.06 0.229517
12.07 0.222532
12.08 0.214694
12.09 0.20597
12.1 0.196338
12.11 0.185782
12.12 0.174215
12.13 0.161694
12.14 0.148265
12.15 0.133955
