# xPDFsuite Configuration #
[PDF]
wavelength = 0.1
dataformat = QA
inputfile = BiMsol6_insitu_700 C-00511.xy
backgroundfile = Quartz2mm-dist500-00000.xy
mode = xray
bgscale = 0.0042
composition = Bi2Fe4O9
outputtype = gr
qmaxinst = 24.998449118
qmin = 0.1
qmax = 21.4986662415
rmax = 80.0
rmin = 0.0
rstep = 0.01
rpoly = 0.9

[Misc]
inputdir = C:/Data/Seafile/CPH/Beamtime/Desy Oct 20/In situ data/Processed/BiMsol6/PDF
savedir = C:/Data/Seafile/CPH/Beamtime/Desy Oct 20/In situ data/PDF/BiMsol6
backgroundfilefull = C:/Data/Seafile/CPH/Beamtime/Desy Oct 20/In situ data/Processed/Standard_Empty_Cap/Quartz2mm-dist500-00000.xy

#### start data
#S 1
#L r($\AA$)  G($\AA^{-2}$)
0 0
0.01 0.00610654
0.02 0.0118658
0.03 0.0169805
0.04 0.0211841
0.05 0.0242529
0.06 0.0260165
0.07 0.0262886
0.08 0.0250156
0.09 0.0223354
0.1 0.0183619
0.11 0.0132712
0.12 0.00729433
0.13 0.000706419
0.14 -0.00618255
0.15 -0.0129841
0.16 -0.0193701
0.17 -0.0250332
0.18 -0.0296981
0.19 -0.033135
0.2 -0.0351085
0.21 -0.0354588
0.22 -0.0342825
0.23 -0.0316457
0.24 -0.0276902
0.25 -0.0226283
0.26 -0.0167353
0.27 -0.0103256
0.28 -0.00384731
0.29 0.00230046
0.3 0.00773019
0.31 0.012074
0.32 0.0150019
0.33 0.0161797
0.34 0.0152814
0.35 0.0123619
0.36 0.00742239
0.37 0.000565368
0.38 -0.00800375
0.39 -0.0179797
0.4 -0.0290071
0.41 -0.0404812
0.42 -0.0518082
0.43 -0.062384
0.44 -0.0715838
0.45 -0.078785
0.46 -0.0833291
0.47 -0.0843664
0.48 -0.0817149
0.49 -0.0750308
0.5 -0.0640902
0.51 -0.0488027
0.52 -0.0292211
0.53 -0.00527617
0.54 0.0224914
0.55 0.0533691
0.56 0.0866951
0.57 0.121695
0.58 0.157503
0.59 0.193174
0.6 0.227505
0.61 0.259547
0.62 0.288347
0.63 0.31301
0.64 0.332729
0.65 0.34681
0.66 0.354289
0.67 0.354768
0.68 0.348412
0.69 0.335221
0.7 0.315373
0.71 0.289226
0.72 0.257305
0.73 0.219797
0.74 0.178183
0.75 0.133421
0.76 0.0865263
0.77 0.0385571
0.78 -0.00941779
0.79 -0.0562441
0.8 -0.100754
0.81 -0.14214
0.82 -0.179626
0.83 -0.212569
0.84 -0.240478
0.85 -0.263019
0.86 -0.279453
0.87 -0.290311
0.88 -0.295871
0.89 -0.296485
0.9 -0.292634
0.91 -0.28491
0.92 -0.273899
0.93 -0.26036
0.94 -0.245313
0.95 -0.229541
0.96 -0.2138
0.97 -0.198797
0.98 -0.18517
0.99 -0.173684
1 -0.164683
1.01 -0.158415
1.02 -0.155054
1.03 -0.154654
1.04 -0.157152
1.05 -0.162447
1.06 -0.170375
1.07 -0.18033
1.08 -0.191889
1.09 -0.204588
1.1 -0.217949
1.11 -0.231491
1.12 -0.244698
1.13 -0.257117
1.14 -0.268406
1.15 -0.278284
1.16 -0.286541
1.17 -0.293051
1.18 -0.297736
1.19 -0.300497
1.2 -0.301637
1.21 -0.301342
1.22 -0.299847
1.23 -0.297425
1.24 -0.29437
1.25 -0.29098
1.26 -0.287598
1.27 -0.284499
1.28 -0.281912
1.29 -0.280015
1.3 -0.278935
1.31 -0.278744
1.32 -0.279534
1.33 -0.281136
1.34 -0.283424
1.35 -0.286229
1.36 -0.289339
1.37 -0.292521
1.38 -0.295495
1.39 -0.297974
1.4 -0.299733
1.41 -0.300566
1.42 -0.300302
1.43 -0.298818
1.44 -0.296047
1.45 -0.29184
1.46 -0.286405
1.47 -0.279875
1.48 -0.272436
1.49 -0.264318
1.5 -0.255793
1.51 -0.247172
1.52 -0.238822
1.53 -0.231063
1.54 -0.224198
1.55 -0.218501
1.56 -0.214204
1.57 -0.211489
1.58 -0.210657
1.59 -0.211611
1.6 -0.214287
1.61 -0.218579
1.62 -0.224308
1.63 -0.231236
1.64 -0.239084
1.65 -0.24748
1.66 -0.255974
1.67 -0.264165
1.68 -0.271653
1.69 -0.27805
1.7 -0.282995
1.71 -0.285988
1.72 -0.286854
1.73 -0.28546
1.74 -0.281698
1.75 -0.275536
1.76 -0.267023
1.77 -0.256231
1.78 -0.243262
1.79 -0.228598
1.8 -0.212572
1.81 -0.195559
1.82 -0.17796
1.83 -0.16019
1.84 -0.142713
1.85 -0.125961
1.86 -0.110276
1.87 -0.0959642
1.88 -0.0832725
1.89 -0.0723837
1.9 -0.0634382
1.91 -0.0566403
1.92 -0.0517368
1.93 -0.0486032
1.94 -0.0470532
1.95 -0.0468471
1.96 -0.047703
1.97 -0.0493365
1.98 -0.0513574
1.99 -0.0534037
2 -0.0551646
2.01 -0.056359
2.02 -0.0567478
2.03 -0.0561398
2.04 -0.0542781
2.05 -0.0512385
2.06 -0.0470499
2.07 -0.0418105
2.08 -0.0356846
2.09 -0.0288968
2.1 -0.0217211
2.11 -0.0145304
2.12 -0.00769881
2.13 -0.00159228
2.14 0.00342536
2.15 0.00700625
2.16 0.00883208
2.17 0.00837952
2.18 0.00562324
2.19 0.000437741
2.2 -0.00724676
2.21 -0.0174253
2.22 -0.0300173
2.23 -0.0449599
2.24 -0.0620388
2.25 -0.0807915
2.26 -0.100864
2.27 -0.121864
2.28 -0.143372
2.29 -0.164954
2.3 -0.186104
2.31 -0.206391
2.32 -0.225445
2.33 -0.24293
2.34 -0.258566
2.35 -0.272132
2.36 -0.283397
2.37 -0.292167
2.38 -0.298637
2.39 -0.302888
2.4 -0.305062
2.41 -0.305364
2.42 -0.304044
2.43 -0.301309
2.44 -0.297598
2.45 -0.293289
2.46 -0.288724
2.47 -0.284234
2.48 -0.280128
2.49 -0.276705
2.5 -0.274293
2.51 -0.273004
2.52 -0.272964
2.53 -0.274243
2.54 -0.276858
2.55 -0.280772
2.56 -0.285983
2.57 -0.29229
2.58 -0.299469
2.59 -0.307315
2.6 -0.315604
2.61 -0.324102
2.62 -0.332572
2.63 -0.340736
2.64 -0.348397
2.65 -0.355371
2.66 -0.361508
2.67 -0.366688
2.68 -0.370827
2.69 -0.373809
2.7 -0.375644
2.71 -0.376421
2.72 -0.376205
2.73 -0.375088
2.74 -0.37318
2.75 -0.370606
2.76 -0.367457
2.77 -0.363944
2.78 -0.3602
2.79 -0.356348
2.8 -0.352497
2.81 -0.348738
2.82 -0.345154
2.83 -0.341801
2.84 -0.338688
2.85 -0.335817
2.86 -0.333168
2.87 -0.330704
2.88 -0.328375
2.89 -0.32612
2.9 -0.323856
2.91 -0.321513
2.92 -0.319021
2.93 -0.316315
2.94 -0.313338
2.95 -0.310024
2.96 -0.306322
2.97 -0.302231
2.98 -0.297735
2.99 -0.292829
3 -0.287514
3.01 -0.281795
3.02 -0.275642
3.03 -0.269088
3.04 -0.262142
3.05 -0.254795
3.06 -0.247027
3.07 -0.238808
3.08 -0.230073
3.09 -0.220725
3.1 -0.21073
3.11 -0.2
3.12 -0.188438
3.13 -0.175939
3.14 -0.162397
3.15 -0.147599
3.16 -0.131498
3.17 -0.114045
3.18 -0.0951732
3.19 -0.0748382
3.2 -0.0530201
3.21 -0.0296989
3.22 -0.00481823
3.23 0.0213954
3.24 0.0488225
3.25 0.0773097
3.26 0.106672
3.27 0.136694
3.28 0.167149
3.29 0.197722
3.3 0.228119
3.31 0.258053
3.32 0.287237
3.33 0.315389
3.34 0.342225
3.35 0.367312
3.36 0.390575
3.37 0.411823
3.38 0.430899
3.39 0.44768
3.4 0.462084
3.41 0.473911
3.42 0.48318
3.43 0.49006
3.44 0.494622
3.45 0.496965
3.46 0.497215
3.47 0.495515
3.48 0.491838
3.49 0.486576
3.5 0.479905
3.51 0.472
3.52 0.463028
3.53 0.453149
3.54 0.442478
3.55 0.43116
3.56 0.419355
3.57 0.407162
3.58 0.394665
3.59 0.381934
3.6 0.369026
3.61 0.35598
3.62 0.342854
3.63 0.329685
3.64 0.31651
3.65 0.30337
3.66 0.290307
3.67 0.277382
3.68 0.264671
3.69 0.252238
3.7 0.240164
3.71 0.228544
3.72 0.217477
3.73 0.207072
3.74 0.197526
3.75 0.188911
3.76 0.181323
3.77 0.17487
3.78 0.169653
3.79 0.16576
3.8 0.163311
3.81 0.162456
3.82 0.163107
3.83 0.16528
3.84 0.168971
3.85 0.174154
3.86 0.180785
3.87 0.188907
3.88 0.198358
3.89 0.208991
3.9 0.220692
3.91 0.23334
3.92 0.246806
3.93 0.260969
3.94 0.275723
3.95 0.290873
3.96 0.306294
3.97 0.321869
3.98 0.337485
3.99 0.353041
4 0.368427
4.01 0.383552
4.02 0.398352
4.03 0.41276
4.04 0.426716
4.05 0.440166
4.06 0.453054
4.07 0.465259
4.08 0.476796
4.09 0.48761
4.1 0.49765
4.11 0.506856
4.12 0.515168
4.13 0.522462
4.14 0.528663
4.15 0.533757
4.16 0.537678
4.17 0.540358
4.18 0.541735
4.19 0.54175
4.2 0.540191
4.21 0.537168
4.22 0.532659
4.23 0.526652
4.24 0.519147
4.25 0.510156
4.26 0.499641
4.27 0.487625
4.28 0.474269
4.29 0.459644
4.3 0.443832
4.31 0.426925
4.32 0.409019
4.33 0.390132
4.34 0.370456
4.35 0.350102
4.36 0.329166
4.37 0.307736
4.38 0.285891
4.39 0.263694
4.4 0.241201
4.41 0.218485
4.42 0.195586
4.43 0.172532
4.44 0.149345
4.45 0.126039
4.46 0.102616
4.47 0.0790924
4.48 0.0554797
4.49 0.0317903
4.5 0.00804174
4.51 -0.0157412
4.52 -0.0395239
4.53 -0.0632524
4.54 -0.0868699
4.55 -0.110308
4.56 -0.133486
4.57 -0.156317
4.58 -0.178702
4.59 -0.200487
4.6 -0.221572
4.61 -0.241871
4.62 -0.261279
4.63 -0.279695
4.64 -0.297028
4.65 -0.31318
4.66 -0.327974
4.67 -0.341483
4.68 -0.353683
4.69 -0.364567
4.7 -0.374149
4.71 -0.382462
4.72 -0.38948
4.73 -0.395314
4.74 -0.400111
4.75 -0.403976
4.76 -0.407024
4.77 -0.409377
4.78 -0.411157
4.79 -0.412458
4.8 -0.413463
4.81 -0.414287
4.82 -0.415035
4.83 -0.4158
4.84 -0.416663
4.85 -0.4177
4.86 -0.418963
4.87 -0.420469
4.88 -0.422227
4.89 -0.424231
4.9 -0.426461
4.91 -0.428883
4.92 -0.431463
4.93 -0.434125
4.94 -0.436807
4.95 -0.439444
4.96 -0.441968
4.97 -0.444313
4.98 -0.4464
4.99 -0.448155
5 -0.449541
5.01 -0.450511
5.02 -0.451025
5.03 -0.451049
5.04 -0.450556
5.05 -0.44947
5.06 -0.44782
5.07 -0.445605
5.08 -0.44282
5.09 -0.439463
5.1 -0.435533
5.11 -0.431011
5.12 -0.425872
5.13 -0.420165
5.14 -0.413893
5.15 -0.407058
5.16 -0.399664
5.17 -0.391718
5.18 -0.383179
5.19 -0.374092
5.2 -0.364491
5.21 -0.354396
5.22 -0.343835
5.23 -0.332842
5.24 -0.321452
5.25 -0.309699
5.26 -0.297677
5.27 -0.285452
5.28 -0.273098
5.29 -0.260693
5.3 -0.248319
5.31 -0.236076
5.32 -0.224057
5.33 -0.212341
5.34 -0.201007
5.35 -0.190128
5.36 -0.17977
5.37 -0.169998
5.38 -0.160918
5.39 -0.152498
5.4 -0.144755
5.41 -0.137693
5.42 -0.131302
5.43 -0.125561
5.44 -0.120472
5.45 -0.115976
5.46 -0.111987
5.47 -0.108445
5.48 -0.105288
5.49 -0.102451
5.5 -0.0998704
5.51 -0.0975014
5.52 -0.0952622
5.53 -0.0931061
5.54 -0.0909944
5.55 -0.0888978
5.56 -0.086796
5.57 -0.0846773
5.58 -0.0825402
5.59 -0.0803932
5.6 -0.0782495
5.61 -0.0761264
5.62 -0.074043
5.63 -0.0720185
5.64 -0.0700796
5.65 -0.0682315
5.66 -0.0664777
5.67 -0.0648142
5.68 -0.0632275
5.69 -0.0616939
5.7 -0.0601776
5.71 -0.0586256
5.72 -0.0569803
5.73 -0.0551775
5.74 -0.053147
5.75 -0.0508151
5.76 -0.0481068
5.77 -0.0448984
5.78 -0.0411493
5.79 -0.0368101
5.8 -0.031833
5.81 -0.0261835
5.82 -0.0198423
5.83 -0.0127846
5.84 -0.00499583
5.85 0.00342709
5.86 0.0124279
5.87 0.0219338
5.88 0.0318571
5.89 0.0420976
5.9 0.0525527
5.91 0.0630789
5.92 0.0735507
5.93 0.0838496
5.94 0.0938631
5.95 0.103487
5.96 0.112618
5.97 0.12113
5.98 0.129016
5.99 0.136243
6 0.142796
6.01 0.148682
6.02 0.153928
6.03 0.158539
6.04 0.162609
6.05 0.16624
6.06 0.169524
6.07 0.172554
6.08 0.175429
6.09 0.178244
6.1 0.181101
6.11 0.184082
6.12 0.18725
6.13 0.190648
6.14 0.194304
6.15 0.198223
6.16 0.202402
6.17 0.20679
6.18 0.21131
6.19 0.215879
6.2 0.220398
6.21 0.224753
6.22 0.228822
6.23 0.232415
6.24 0.235437
6.25 0.237764
6.26 0.239279
6.27 0.239878
6.28 0.239471
6.29 0.237928
6.3 0.235183
6.31 0.231287
6.32 0.226241
6.33 0.220075
6.34 0.212837
6.35 0.204599
6.36 0.195365
6.37 0.185343
6.38 0.174663
6.39 0.163454
6.4 0.151849
6.41 0.139982
6.42 0.12798
6.43 0.115979
6.44 0.104095
6.45 0.0924171
6.46 0.0810211
6.47 0.0699629
6.48 0.0592796
6.49 0.0490267
6.5 0.0391724
6.51 0.0296863
6.52 0.0205322
6.53 0.0116621
6.54 0.0030187
6.55 -0.00545829
6.56 -0.0138383
6.57 -0.0221991
6.58 -0.0306005
6.59 -0.0390948
6.6 -0.0477242
6.61 -0.0565191
6.62 -0.0655112
6.63 -0.074691
6.64 -0.0840348
6.65 -0.0935103
6.66 -0.103071
6.67 -0.112659
6.68 -0.122202
6.69 -0.1316
6.7 -0.140773
6.71 -0.149632
6.72 -0.158088
6.73 -0.166052
6.74 -0.173443
6.75 -0.18013
6.76 -0.186057
6.77 -0.191196
6.78 -0.195504
6.79 -0.198946
6.8 -0.201502
6.81 -0.203151
6.82 -0.203806
6.83 -0.203572
6.84 -0.202468
6.85 -0.200517
6.86 -0.197743
6.87 -0.194175
6.88 -0.189797
6.89 -0.184641
6.9 -0.178774
6.91 -0.172213
6.92 -0.164971
6.93 -0.157057
6.94 -0.148472
6.95 -0.139137
6.96 -0.129117
6.97 -0.118403
6.98 -0.106983
6.99 -0.0948414
7 -0.0819673
7.01 -0.0683129
7.02 -0.0538606
7.03 -0.0386622
7.04 -0.0227277
7.05 -0.00607557
7.06 0.0112664
7.07 0.0292606
7.08 0.0479156
7.09 0.0671117
7.1 0.086771
7.11 0.106815
7.12 0.127159
7.13 0.147712
7.14 0.168377
7.15 0.189041
7.16 0.209596
7.17 0.229943
7.18 0.249983
7.19 0.269622
7.2 0.288771
7.21 0.307283
7.22 0.325112
7.23 0.342204
7.24 0.358496
7.25 0.373932
7.26 0.388463
7.27 0.402018
7.28 0.414496
7.29 0.425948
7.3 0.436345
7.31 0.445661
7.32 0.453869
7.33 0.460946
7.34 0.466772
7.35 0.471369
7.36 0.474755
7.37 0.476902
7.38 0.477785
7.39 0.477376
7.4 0.475627
7.41 0.472398
7.42 0.467802
7.43 0.461821
7.44 0.454444
7.45 0.445664
7.46 0.435484
7.47 0.423818
7.48 0.410724
7.49 0.3963
7.5 0.380592
7.51 0.363655
7.52 0.34556
7.53 0.326379
7.54 0.306111
7.55 0.28498
7.56 0.263098
7.57 0.240588
7.58 0.217579
7.59 0.194202
7.6 0.170593
7.61 0.146912
7.62 0.123311
7.63 0.099929
7.64 0.0768993
7.65 0.0543517
7.66 0.0324093
7.67 0.0112797
7.68 -0.00899931
7.69 -0.0283382
7.7 -0.0466547
7.71 -0.0638781
7.72 -0.0799495
7.73 -0.0947634
7.74 -0.108256
7.75 -0.120491
7.76 -0.131462
7.77 -0.141173
7.78 -0.149639
7.79 -0.156884
7.8 -0.162829
7.81 -0.167622
7.82 -0.171334
7.83 -0.174024
7.84 -0.175756
7.85 -0.176598
7.86 -0.176593
7.87 -0.175794
7.88 -0.174339
7.89 -0.172302
7.9 -0.169755
7.91 -0.16677
7.92 -0.163413
7.93 -0.159726
7.94 -0.155792
7.95 -0.151672
7.96 -0.147412
7.97 -0.143051
7.98 -0.138625
7.99 -0.134161
8 -0.129682
8.01 -0.125205
8.02 -0.120741
8.03 -0.116295
8.04 -0.111871
8.05 -0.107466
8.06 -0.103081
8.07 -0.098711
8.08 -0.0943523
8.09 -0.0900037
8.1 -0.0856655
8.11 -0.081341
8.12 -0.077037
8.13 -0.072768
8.14 -0.0685468
8.15 -0.0643922
8.16 -0.0603265
8.17 -0.056375
8.18 -0.0525655
8.19 -0.048941
8.2 -0.0455327
8.21 -0.0423609
8.22 -0.0394525
8.23 -0.0368315
8.24 -0.0345172
8.25 -0.0325248
8.26 -0.030898
8.27 -0.0295983
8.28 -0.0286161
8.29 -0.0279336
8.3 -0.0275247
8.31 -0.0273556
8.32 -0.0273937
8.33 -0.0275838
8.34 -0.0278604
8.35 -0.0281661
8.36 -0.0284416
8.37 -0.0286278
8.38 -0.0286671
8.39 -0.0284782
8.4 -0.0280293
8.41 -0.0272829
8.42 -0.0262087
8.43 -0.0247868
8.44 -0.0230081
8.45 -0.0208601
8.46 -0.0183526
8.47 -0.0155407
8.48 -0.0124652
8.49 -0.00917715
8.5 -0.00573634
8.51 -0.00220974
8.52 0.00132399
8.53 0.00477927
8.54 0.00807917
8.55 0.0111485
8.56 0.0139159
8.57 0.0163157
8.58 0.0182735
8.59 0.0197121
8.6 0.0206323
8.61 0.0210106
8.62 0.0208354
8.63 0.0201072
8.64 0.0188383
8.65 0.0170098
8.66 0.0146903
8.67 0.011939
8.68 0.00880602
8.69 0.00534601
8.7 0.00161606
8.71 -0.00232973
8.72 -0.0064394
8.73 -0.0106427
8.74 -0.0148936
8.75 -0.0191534
8.76 -0.023391
8.77 -0.0275841
8.78 -0.0317149
8.79 -0.0357822
8.8 -0.0397955
8.81 -0.0437693
8.82 -0.0477252
8.83 -0.0516899
8.84 -0.0556947
8.85 -0.0597834
8.86 -0.0639842
8.87 -0.0683282
8.88 -0.0728435
8.89 -0.077553
8.9 -0.0824738
8.91 -0.0876307
8.92 -0.0930221
8.93 -0.0986286
8.94 -0.104434
8.95 -0.110416
8.96 -0.116542
8.97 -0.122778
8.98 -0.129084
8.99 -0.135404
9 -0.14169
9.01 -0.147896
9.02 -0.153978
9.03 -0.159894
9.04 -0.165594
9.05 -0.171039
9.06 -0.17622
9.07 -0.18112
9.08 -0.185731
9.09 -0.19005
9.1 -0.194084
9.11 -0.197815
9.12 -0.20129
9.13 -0.204534
9.14 -0.207571
9.15 -0.210427
9.16 -0.213129
9.17 -0.215696
9.18 -0.218147
9.19 -0.22051
9.2 -0.222796
9.21 -0.225008
9.22 -0.227148
9.23 -0.229209
9.24 -0.231166
9.25 -0.233005
9.26 -0.234705
9.27 -0.236236
9.28 -0.237571
9.29 -0.238675
9.3 -0.239511
9.31 -0.240027
9.32 -0.240222
9.33 -0.240073
9.34 -0.239564
9.35 -0.238684
9.36 -0.237428
9.37 -0.235767
9.38 -0.233732
9.39 -0.23135
9.4 -0.228641
9.41 -0.225632
9.42 -0.222348
9.43 -0.218816
9.44 -0.215052
9.45 -0.211108
9.46 -0.207008
9.47 -0.202773
9.48 -0.198417
9.49 -0.193949
9.5 -0.189363
9.51 -0.184654
9.52 -0.17981
9.53 -0.17481
9.54 -0.169623
9.55 -0.164213
9.56 -0.158538
9.57 -0.152517
9.58 -0.146135
9.59 -0.139344
9.6 -0.132099
9.61 -0.124361
9.62 -0.116092
9.63 -0.107226
9.64 -0.0977417
9.65 -0.0876576
9.66 -0.0769707
9.67 -0.0656873
9.68 -0.0538228
9.69 -0.041402
9.7 -0.028402
9.71 -0.0149286
9.72 -0.00103134
9.73 0.013236
9.74 0.0278159
9.75 0.0426492
9.76 0.0576821
9.77 0.0728485
9.78 0.0880795
9.79 0.103322
9.8 0.118526
9.81 0.133647
9.82 0.148647
9.83 0.16347
9.84 0.178101
9.85 0.192518
9.86 0.206701
9.87 0.220633
9.88 0.234299
9.89 0.247675
9.9 0.260733
9.91 0.273479
9.92 0.285896
9.93 0.297963
9.94 0.309656
9.95 0.320947
9.96 0.331761
9.97 0.342086
9.98 0.351894
9.99 0.361142
10 0.369787
10.01 0.377785
10.02 0.385072
10.03 0.391559
10.04 0.397272
10.05 0.402181
10.06 0.406263
10.07 0.409503
10.08 0.411896
10.09 0.413378
10.1 0.414006
10.11 0.413837
10.12 0.412911
10.13 0.411275
10.14 0.408986
10.15 0.406101
10.16 0.40266
10.17 0.3988
10.18 0.394602
10.19 0.39015
10.2 0.385528
10.21 0.380816
10.22 0.376098
10.23 0.371455
10.24 0.36695
10.25 0.362638
10.26 0.358566
10.27 0.354769
10.28 0.351275
10.29 0.348132
10.3 0.34531
10.31 0.3428
10.32 0.340585
10.33 0.33864
10.34 0.336931
10.35 0.335429
10.36 0.334078
10.37 0.332818
10.38 0.331595
10.39 0.330352
10.4 0.329032
10.41 0.327577
10.42 0.325902
10.43 0.323965
10.44 0.321713
10.45 0.319093
10.46 0.316053
10.47 0.312547
10.48 0.3085
10.49 0.303853
10.5 0.298602
10.51 0.292713
10.52 0.286154
10.53 0.278895
10.54 0.270914
10.55 0.262116
10.56 0.25255
10.57 0.242222
10.58 0.231134
10.59 0.219293
10.6 0.206714
10.61 0.193397
10.62 0.17935
10.63 0.164672
10.64 0.149415
10.65 0.133638
10.66 0.117408
10.67 0.100799
10.68 0.0838699
10.69 0.0667362
10.7 0.0494929
10.71 0.0322293
10.72 0.0150336
10.73 -0.00200803
10.74 -0.0188056
10.75 -0.0352546
10.76 -0.0513128
10.77 -0.0669249
10.78 -0.0820473
10.79 -0.0966484
10.8 -0.11071
10.81 -0.124184
10.82 -0.137105
10.83 -0.14952
10.84 -0.161465
10.85 -0.172988
10.86 -0.184145
10.87 -0.194998
10.88 -0.205605
10.89 -0.216068
10.9 -0.226458
10.91 -0.236844
10.92 -0.24729
10.93 -0.257852
10.94 -0.26859
10.95 -0.279537
10.96 -0.290704
10.97 -0.302093
10.98 -0.313694
10.99 -0.325481
11 -0.337412
11.01 -0.349437
11.02 -0.361469
11.03 -0.37343
11.04 -0.38523
11.05 -0.396775
11.06 -0.40797
11.07 -0.418683
11.08 -0.428802
11.09 -0.438265
11.1 -0.446988
11.11 -0.454897
11.12 -0.461927
11.13 -0.468028
11.14 -0.47305
11.15 -0.477071
11.16 -0.480088
11.17 -0.482108
11.18 -0.483149
11.19 -0.483239
11.2 -0.482378
11.21 -0.480598
11.22 -0.478017
11.23 -0.474691
11.24 -0.470677
11.25 -0.466033
11.26 -0.460812
11.27 -0.455016
11.28 -0.448733
11.29 -0.442008
11.3 -0.434866
11.31 -0.427324
11.32 -0.419392
11.33 -0.411057
11.34 -0.402293
11.35 -0.393118
11.36 -0.383514
11.37 -0.373459
11.38 -0.362932
11.39 -0.35191
11.4 -0.340326
11.41 -0.328194
11.42 -0.31552
11.43 -0.302301
11.44 -0.288542
11.45 -0.27426
11.46 -0.259464
11.47 -0.244163
11.48 -0.228444
11.49 -0.212361
11.5 -0.195974
11.51 -0.179347
11.52 -0.162553
11.53 -0.145662
11.54 -0.128766
11.55 -0.111943
11.56 -0.0952685
11.57 -0.0788116
11.58 -0.0626388
11.59 -0.0468153
11.6 -0.0314357
11.61 -0.0165061
11.62 -0.00206111
11.63 0.0118732
11.64 0.0252792
11.65 0.0381472
11.66 0.0504399
11.67 0.0621721
11.68 0.0733832
11.69 0.08409
11.7 0.0943123
11.71 0.104072
11.72 0.113392
11.73 0.122251
11.74 0.13072
11.75 0.138819
11.76 0.146564
11.77 0.153968
11.78 0.16104
11.79 0.167768
11.8 0.17415
11.81 0.180203
11.82 0.185919
11.83 0.191288
11.84 0.196298
11.85 0.200933
11.86 0.205133
11.87 0.208918
11.88 0.212274
11.89 0.215184
11.9 0.217633
11.91 0.219605
11.92 0.221064
11.93 0.221983
11.94 0.222387
11.95 0.222266
11.96 0.221613
11.97 0.220421
11.98 0.218684
11.99 0.21634
12 0.213427
12.01 0.209946
12.02 0.205892
12.03 0.201256
12.04 0.196029
12.05 0.19018
12.06 0.183665
12.07 0.176525
12.08 0.168746
12.09 0.160318
12.1 0.151232
12.11 0.141478
12.12 0.130993
12.13 0.119811
12.14 0.107955
12.15 0.0954333
12.16 0.0822574
