# xPDFsuite Configuration #
[PDF]
wavelength = 0.1
dataformat = QA
inputfile = BiMsol6_insitu_700 C-00646.xy
backgroundfile = Quartz2mm-dist500-00000.xy
mode = xray
bgscale = 0.0042
composition = Bi2Fe4O9
outputtype = gr
qmaxinst = 24.998449118
qmin = 0.1
qmax = 21.4986662415
rmax = 80.0
rmin = 0.0
rstep = 0.01
rpoly = 0.9

[Misc]
inputdir = C:/Data/Seafile/CPH/Beamtime/Desy Oct 20/In situ data/Processed/BiMsol6/PDF
savedir = C:/Data/Seafile/CPH/Beamtime/Desy Oct 20/In situ data/PDF/BiMsol6
backgroundfilefull = C:/Data/Seafile/CPH/Beamtime/Desy Oct 20/In situ data/Processed/Standard_Empty_Cap/Quartz2mm-dist500-00000.xy

#### start data
#S 1
#L r($\AA$)  G($\AA^{-2}$)
0 0
0.01 0.00591874
0.02 0.0114971
0.03 0.0164439
0.04 0.0204983
0.05 0.0234417
0.06 0.0251081
0.07 0.0253167
0.08 0.0240172
0.09 0.0213467
0.1 0.0174192
0.11 0.0124097
0.12 0.0065471
0.13 0.00010311
0.14 -0.00661471
0.15 -0.0132264
0.16 -0.0194109
0.17 -0.0248677
0.18 -0.0293291
0.19 -0.0325733
0.2 -0.0343735
0.21 -0.0345789
0.22 -0.0332913
0.23 -0.0305822
0.24 -0.0265976
0.25 -0.0215527
0.26 -0.0157239
0.27 -0.00942933
0.28 -0.00311052
0.29 0.0028392
0.3 0.00803893
0.31 0.0121291
0.32 0.0147893
0.33 0.0156967
0.34 0.0145391
0.35 0.0113836
0.36 0.00624339
0.37 -0.000767615
0.38 -0.00943374
0.39 -0.019441
0.4 -0.0304211
0.41 -0.0417685
0.42 -0.0528915
0.43 -0.0631884
0.44 -0.0720403
0.45 -0.0788337
0.46 -0.0829217
0.47 -0.0834697
0.48 -0.0803186
0.49 -0.0731453
0.5 -0.0617478
0.51 -0.0460583
0.52 -0.0261525
0.53 -0.00199174
0.54 0.0258634
0.55 0.0566878
0.56 0.0898064
0.57 0.124435
0.58 0.159704
0.59 0.194667
0.6 0.228111
0.61 0.25912
0.62 0.286759
0.63 0.310157
0.64 0.328537
0.65 0.341237
0.66 0.347332
0.67 0.346468
0.68 0.338852
0.69 0.324521
0.7 0.303694
0.71 0.276764
0.72 0.244288
0.73 0.206511
0.74 0.164909
0.75 0.120448
0.76 0.0741507
0.77 0.0270703
0.78 -0.0197358
0.79 -0.0651215
0.8 -0.107948
0.81 -0.147461
0.82 -0.182928
0.83 -0.213753
0.84 -0.239494
0.85 -0.259873
0.86 -0.274217
0.87 -0.283107
0.88 -0.286874
0.89 -0.285913
0.9 -0.280748
0.91 -0.272003
0.92 -0.260303
0.93 -0.246439
0.94 -0.231413
0.95 -0.216003
0.96 -0.200954
0.97 -0.18695
0.98 -0.174599
0.99 -0.164649
1 -0.157378
1.01 -0.152978
1.02 -0.151569
1.03 -0.153152
1.04 -0.157611
1.05 -0.164786
1.06 -0.174449
1.07 -0.185957
1.08 -0.198847
1.09 -0.212625
1.1 -0.226785
1.11 -0.240831
1.12 -0.254211
1.13 -0.266487
1.14 -0.277339
1.15 -0.286499
1.16 -0.293784
1.17 -0.299095
1.18 -0.302385
1.19 -0.303584
1.2 -0.303057
1.21 -0.30103
1.22 -0.297779
1.23 -0.293617
1.24 -0.288876
1.25 -0.283899
1.26 -0.279059
1.27 -0.274654
1.28 -0.270932
1.29 -0.268089
1.3 -0.266259
1.31 -0.265524
1.32 -0.265995
1.33 -0.267477
1.34 -0.269838
1.35 -0.272894
1.36 -0.276422
1.37 -0.28017
1.38 -0.283852
1.39 -0.287156
1.4 -0.289832
1.41 -0.291656
1.42 -0.292439
1.43 -0.29204
1.44 -0.290375
1.45 -0.287278
1.46 -0.28294
1.47 -0.277481
1.48 -0.271072
1.49 -0.263931
1.5 -0.256318
1.51 -0.248527
1.52 -0.240911
1.53 -0.233786
1.54 -0.227443
1.55 -0.222147
1.56 -0.218122
1.57 -0.215544
1.58 -0.21469
1.59 -0.215474
1.6 -0.21783
1.61 -0.221654
1.62 -0.226772
1.63 -0.23295
1.64 -0.239914
1.65 -0.247303
1.66 -0.254691
1.67 -0.261697
1.68 -0.267942
1.69 -0.27306
1.7 -0.276717
1.71 -0.27844
1.72 -0.278082
1.73 -0.275536
1.74 -0.270716
1.75 -0.263613
1.76 -0.254293
1.77 -0.242848
1.78 -0.229401
1.79 -0.214426
1.8 -0.198254
1.81 -0.181257
1.82 -0.163826
1.83 -0.14636
1.84 -0.129313
1.85 -0.113086
1.86 -0.0979916
1.87 -0.0843065
1.88 -0.0722508
1.89 -0.061979
1.9 -0.0536034
1.91 -0.0472952
1.92 -0.042786
1.93 -0.0399356
1.94 -0.0385466
1.95 -0.0383738
1.96 -0.0391354
1.97 -0.0405459
1.98 -0.0422314
1.99 -0.0438543
2 -0.0451266
2.01 -0.045794
2.02 -0.0456469
2.03 -0.0445253
2.04 -0.0422139
2.05 -0.0388156
2.06 -0.0343878
2.07 -0.0290536
2.08 -0.0229979
2.09 -0.0164607
2.1 -0.00973612
2.11 -0.00319975
2.12 0.0027915
2.13 0.00788442
2.14 0.0117342
2.15 0.0140178
2.16 0.014447
2.17 0.0125294
2.18 0.00828742
2.19 0.00163495
2.2 -0.00745907
2.21 -0.0189524
2.22 -0.0327301
2.23 -0.0486904
2.24 -0.0665866
2.25 -0.0859509
2.26 -0.10642
2.27 -0.127598
2.28 -0.149072
2.29 -0.170423
2.3 -0.191148
2.31 -0.210862
2.32 -0.229231
2.33 -0.245961
2.34 -0.26081
2.35 -0.273601
2.36 -0.284148
2.37 -0.292307
2.38 -0.298306
2.39 -0.302256
2.4 -0.304327
2.41 -0.304741
2.42 -0.303759
2.43 -0.301608
2.44 -0.298709
2.45 -0.295416
2.46 -0.292046
2.47 -0.288898
2.48 -0.286244
2.49 -0.284343
2.5 -0.283471
2.51 -0.283686
2.52 -0.285066
2.53 -0.287636
2.54 -0.291369
2.55 -0.296189
2.56 -0.30204
2.57 -0.308704
2.58 -0.315947
2.59 -0.323558
2.6 -0.331313
2.61 -0.338989
2.62 -0.346362
2.63 -0.353161
2.64 -0.35925
2.65 -0.364486
2.66 -0.36876
2.67 -0.371999
2.68 -0.37417
2.69 -0.375207
2.7 -0.375173
2.71 -0.374203
2.72 -0.372399
2.73 -0.369889
2.74 -0.366812
2.75 -0.363318
2.76 -0.359545
2.77 -0.355683
2.78 -0.351868
2.79 -0.348218
2.8 -0.344831
2.81 -0.341786
2.82 -0.339156
2.83 -0.336973
2.84 -0.335208
2.85 -0.333835
2.86 -0.332807
2.87 -0.332062
2.88 -0.331524
2.89 -0.331112
2.9 -0.330717
2.91 -0.330247
2.92 -0.329618
2.93 -0.328753
2.94 -0.327583
2.95 -0.326033
2.96 -0.324042
2.97 -0.321606
2.98 -0.318708
2.99 -0.315338
3 -0.311491
3.01 -0.307168
3.02 -0.302325
3.03 -0.296993
3.04 -0.291174
3.05 -0.284847
3.06 -0.277982
3.07 -0.270534
3.08 -0.26242
3.09 -0.253518
3.1 -0.243791
3.11 -0.233137
3.12 -0.221446
3.13 -0.208602
3.14 -0.194489
3.15 -0.178869
3.16 -0.161699
3.17 -0.142942
3.18 -0.122534
3.19 -0.100437
3.2 -0.0766429
3.21 -0.0511413
3.22 -0.0238827
3.23 0.00486628
3.24 0.0349626
3.25 0.0662277
3.26 0.0984495
3.27 0.131386
3.28 0.16478
3.29 0.198288
3.3 0.231584
3.31 0.264358
3.32 0.296298
3.33 0.3271
3.34 0.356456
3.35 0.383899
3.36 0.409352
3.37 0.43261
3.38 0.453502
3.39 0.471896
3.4 0.487698
3.41 0.500688
3.42 0.510877
3.43 0.518441
3.44 0.523445
3.45 0.525984
3.46 0.526179
3.47 0.524172
3.48 0.519903
3.49 0.513791
3.5 0.506014
3.51 0.496747
3.52 0.486162
3.53 0.474422
3.54 0.461641
3.55 0.447967
3.56 0.433593
3.57 0.418631
3.58 0.403183
3.59 0.387338
3.6 0.371178
3.61 0.354755
3.62 0.338166
3.63 0.321479
3.64 0.304757
3.65 0.288069
3.66 0.271486
3.67 0.255098
3.68 0.239012
3.69 0.22331
3.7 0.208094
3.71 0.193474
3.72 0.179565
3.73 0.166485
3.74 0.154458
3.75 0.143548
3.76 0.133849
3.77 0.125469
3.78 0.118507
3.79 0.113048
3.8 0.109214
3.81 0.107161
3.82 0.106784
3.83 0.108098
3.84 0.111101
3.85 0.11577
3.86 0.122068
3.87 0.130061
3.88 0.139593
3.89 0.150525
3.9 0.16276
3.91 0.176194
3.92 0.190717
3.93 0.206234
3.94 0.222684
3.95 0.239861
3.96 0.257653
3.97 0.275952
3.98 0.294653
3.99 0.313657
4 0.332873
4.01 0.35219
4.02 0.371507
4.03 0.390735
4.04 0.409783
4.05 0.42856
4.06 0.446969
4.07 0.464856
4.08 0.482161
4.09 0.498781
4.1 0.514607
4.11 0.52953
4.12 0.543437
4.13 0.556139
4.14 0.567511
4.15 0.57751
4.16 0.586033
4.17 0.592985
4.18 0.598282
4.19 0.60185
4.2 0.603425
4.21 0.603158
4.22 0.601037
4.23 0.597057
4.24 0.591237
4.25 0.58361
4.26 0.574145
4.27 0.562891
4.28 0.550053
4.29 0.535729
4.3 0.520024
4.31 0.503051
4.32 0.484926
4.33 0.465673
4.34 0.445505
4.35 0.424547
4.36 0.402897
4.37 0.380645
4.38 0.35787
4.39 0.334626
4.4 0.310958
4.41 0.286945
4.42 0.262618
4.43 0.238002
4.44 0.213115
4.45 0.187972
4.46 0.162564
4.47 0.136923
4.48 0.111075
4.49 0.0850459
4.5 0.0588696
4.51 0.0325912
4.52 0.00626788
4.53 -0.0200194
4.54 -0.0461833
4.55 -0.072128
4.56 -0.0977475
4.57 -0.122928
4.58 -0.147548
4.59 -0.17142
4.6 -0.194434
4.61 -0.216496
4.62 -0.237493
4.63 -0.257325
4.64 -0.275902
4.65 -0.293133
4.66 -0.308841
4.67 -0.323135
4.68 -0.336009
4.69 -0.347481
4.7 -0.357589
4.71 -0.366392
4.72 -0.373891
4.73 -0.380222
4.74 -0.385557
4.75 -0.39002
4.76 -0.393739
4.77 -0.396847
4.78 -0.399476
4.79 -0.401731
4.8 -0.403781
4.81 -0.405733
4.82 -0.40768
4.83 -0.409701
4.84 -0.411857
4.85 -0.414202
4.86 -0.416764
4.87 -0.419534
4.88 -0.422499
4.89 -0.42563
4.9 -0.428886
4.91 -0.432213
4.92 -0.435545
4.93 -0.438807
4.94 -0.441927
4.95 -0.444834
4.96 -0.44746
4.97 -0.449738
4.98 -0.451587
4.99 -0.452936
5 -0.453772
5.01 -0.454059
5.02 -0.453771
5.03 -0.452891
5.04 -0.451407
5.05 -0.449255
5.06 -0.44649
5.07 -0.443131
5.08 -0.43919
5.09 -0.434682
5.1 -0.429626
5.11 -0.424022
5.12 -0.417868
5.13 -0.411228
5.14 -0.404122
5.15 -0.396572
5.16 -0.388599
5.17 -0.380229
5.18 -0.371456
5.19 -0.362337
5.2 -0.352914
5.21 -0.343226
5.22 -0.333315
5.23 -0.323228
5.24 -0.313016
5.25 -0.30274
5.26 -0.292471
5.27 -0.282276
5.28 -0.272221
5.29 -0.262374
5.3 -0.252803
5.31 -0.243605
5.32 -0.234836
5.33 -0.226536
5.34 -0.218751
5.35 -0.21152
5.36 -0.204871
5.37 -0.198831
5.38 -0.193461
5.39 -0.188692
5.4 -0.184506
5.41 -0.180876
5.42 -0.177767
5.43 -0.175137
5.44 -0.172961
5.45 -0.171175
5.46 -0.169703
5.47 -0.168492
5.48 -0.167495
5.49 -0.166665
5.5 -0.165964
5.51 -0.165368
5.52 -0.164841
5.53 -0.164367
5.54 -0.16394
5.55 -0.163561
5.56 -0.163232
5.57 -0.162968
5.58 -0.162782
5.59 -0.162679
5.6 -0.162666
5.61 -0.162746
5.62 -0.16291
5.63 -0.163144
5.64 -0.163421
5.65 -0.16369
5.66 -0.163895
5.67 -0.163966
5.68 -0.163822
5.69 -0.163371
5.7 -0.162487
5.71 -0.16103
5.72 -0.15892
5.73 -0.156045
5.74 -0.152297
5.75 -0.147578
5.76 -0.141801
5.77 -0.13478
5.78 -0.126549
5.79 -0.117108
5.8 -0.106458
5.81 -0.094626
5.82 -0.0816668
5.83 -0.0676298
5.84 -0.0525909
5.85 -0.0367715
5.86 -0.0203258
5.87 -0.00342349
5.88 0.0137544
5.89 0.0310205
5.9 0.0481607
5.91 0.064974
5.92 0.0812918
5.93 0.096957
5.94 0.111832
5.95 0.125804
5.96 0.13876
5.97 0.150563
5.98 0.161286
5.99 0.17094
6 0.17956
6.01 0.187212
6.02 0.193983
6.03 0.199932
6.04 0.205225
6.05 0.210029
6.06 0.214481
6.07 0.218716
6.08 0.222862
6.09 0.227034
6.1 0.23135
6.11 0.235875
6.12 0.240652
6.13 0.245697
6.14 0.250997
6.15 0.256513
6.16 0.26218
6.17 0.267886
6.18 0.273503
6.19 0.278893
6.2 0.283907
6.21 0.288388
6.22 0.292177
6.23 0.295002
6.24 0.296806
6.25 0.297459
6.26 0.296855
6.27 0.294909
6.28 0.291563
6.29 0.28671
6.3 0.280339
6.31 0.272576
6.32 0.263488
6.33 0.253163
6.34 0.241713
6.35 0.229271
6.36 0.215908
6.37 0.201878
6.38 0.187353
6.39 0.172492
6.4 0.15745
6.41 0.14237
6.42 0.127391
6.43 0.112646
6.44 0.098211
6.45 0.084151
6.46 0.0705067
6.47 0.0572969
6.48 0.0445186
6.49 0.0321837
6.5 0.0202152
6.51 0.00854628
6.52 -0.00289048
6.53 -0.0141685
6.54 -0.0253635
6.55 -0.0365512
6.56 -0.0478118
6.57 -0.0592021
6.58 -0.0707669
6.59 -0.0825369
6.6 -0.0945268
6.61 -0.106735
6.62 -0.119156
6.63 -0.131739
6.64 -0.144423
6.65 -0.15714
6.66 -0.169814
6.67 -0.182357
6.68 -0.194673
6.69 -0.206629
6.7 -0.218156
6.71 -0.229161
6.72 -0.239561
6.73 -0.249277
6.74 -0.258241
6.75 -0.266332
6.76 -0.273518
6.77 -0.279803
6.78 -0.285159
6.79 -0.289573
6.8 -0.293034
6.81 -0.295533
6.82 -0.296976
6.83 -0.297473
6.84 -0.297028
6.85 -0.295644
6.86 -0.293323
6.87 -0.290062
6.88 -0.285793
6.89 -0.280506
6.9 -0.274234
6.91 -0.266955
6.92 -0.258641
6.93 -0.249263
6.94 -0.23879
6.95 -0.227062
6.96 -0.214177
6.97 -0.200119
6.98 -0.184875
6.99 -0.168442
7 -0.150827
7.01 -0.131991
7.02 -0.111952
7.03 -0.0908357
7.04 -0.0687001
7.05 -0.0456165
7.06 -0.0216668
7.07 0.0030574
7.08 0.0285148
7.09 0.0545269
7.1 0.0809733
7.11 0.107741
7.12 0.134718
7.13 0.161793
7.14 0.188856
7.15 0.215785
7.16 0.242491
7.17 0.268886
7.18 0.294891
7.19 0.320433
7.2 0.345447
7.21 0.369812
7.22 0.393505
7.23 0.416489
7.24 0.438713
7.25 0.460124
7.26 0.480668
7.27 0.500262
7.28 0.518773
7.29 0.536218
7.3 0.552522
7.31 0.567606
7.32 0.581386
7.33 0.593774
7.34 0.604549
7.35 0.613675
7.36 0.621115
7.37 0.626781
7.38 0.630593
7.39 0.63248
7.4 0.632346
7.41 0.629972
7.42 0.62553
7.43 0.619013
7.44 0.61043
7.45 0.599813
7.46 0.58721
7.47 0.572565
7.48 0.556027
7.49 0.537795
7.5 0.517998
7.51 0.496774
7.52 0.474274
7.53 0.450651
7.54 0.425987
7.55 0.400568
7.56 0.374559
7.57 0.348118
7.58 0.321399
7.59 0.294548
7.6 0.267709
7.61 0.241024
7.62 0.214601
7.63 0.18854
7.64 0.162929
7.65 0.137846
7.66 0.113357
7.67 0.0896042
7.68 0.0665741
7.69 0.0443114
7.7 0.0228608
7.71 0.00226539
7.72 -0.0174324
7.73 -0.0361428
7.74 -0.0537944
7.75 -0.0704078
7.76 -0.0859374
7.77 -0.100338
7.78 -0.113564
7.79 -0.125573
7.8 -0.136197
7.81 -0.145506
7.82 -0.153497
7.83 -0.160155
7.84 -0.165477
7.85 -0.169473
7.86 -0.172117
7.87 -0.1734
7.88 -0.173479
7.89 -0.172423
7.9 -0.170316
7.91 -0.16725
7.92 -0.163329
7.93 -0.158611
7.94 -0.153273
7.95 -0.147457
7.96 -0.141281
7.97 -0.134863
7.98 -0.128311
7.99 -0.121727
8 -0.115214
8.01 -0.108846
8.02 -0.102678
8.03 -0.0967519
8.04 -0.0910921
8.05 -0.0857084
8.06 -0.0806156
8.07 -0.0757804
8.08 -0.0711609
8.09 -0.0667177
8.1 -0.0624064
8.11 -0.0581802
8.12 -0.0539929
8.13 -0.049797
8.14 -0.0455551
8.15 -0.041242
8.16 -0.036843
8.17 -0.0323556
8.18 -0.0277898
8.19 -0.0231671
8.2 -0.0185303
8.21 -0.0139305
8.22 -0.00942509
8.23 -0.00507775
8.24 -0.000955988
8.25 0.00287052
8.26 0.00628841
8.27 0.00927341
8.28 0.0117751
8.29 0.0137543
8.3 0.0151853
8.31 0.0160573
8.32 0.0163455
8.33 0.016075
8.34 0.0153211
8.35 0.0141402
8.36 0.0126015
8.37 0.0107843
8.38 0.00877572
8.39 0.00666601
8.4 0.00456596
8.41 0.00256351
8.42 0.000738166
8.43 -0.000841584
8.44 -0.00212133
8.45 -0.00304707
8.46 -0.00359036
8.47 -0.00378235
8.48 -0.00364999
8.49 -0.00324021
8.5 -0.00261873
8.51 -0.00186808
8.52 -0.00109257
8.53 -0.000415963
8.54 4.52914e-05
8.55 0.000173282
8.56 -0.000147547
8.57 -0.00102617
8.58 -0.00258647
8.59 -0.00495757
8.6 -0.0081445
8.61 -0.012187
8.62 -0.0171022
8.63 -0.0228836
8.64 -0.029501
8.65 -0.0369627
8.66 -0.0451368
8.67 -0.0539018
8.68 -0.0631448
8.69 -0.0727418
8.7 -0.0825616
8.71 -0.0924696
8.72 -0.102314
8.73 -0.111967
8.74 -0.121317
8.75 -0.130267
8.76 -0.13874
8.77 -0.146678
8.78 -0.154
8.79 -0.160715
8.8 -0.166862
8.81 -0.172475
8.82 -0.177609
8.83 -0.182333
8.84 -0.186726
8.85 -0.19087
8.86 -0.194892
8.87 -0.198886
8.88 -0.202941
8.89 -0.207137
8.9 -0.21154
8.91 -0.21622
8.92 -0.221208
8.93 -0.226496
8.94 -0.23207
8.95 -0.237895
8.96 -0.243916
8.97 -0.250061
8.98 -0.256235
8.99 -0.262324
9 -0.268217
9.01 -0.273803
9.02 -0.278971
9.03 -0.283615
9.04 -0.287599
9.05 -0.290824
9.06 -0.293268
9.07 -0.294887
9.08 -0.29566
9.09 -0.295587
9.1 -0.294689
9.11 -0.292933
9.12 -0.290467
9.13 -0.287383
9.14 -0.283779
9.15 -0.279763
9.16 -0.275448
9.17 -0.270948
9.18 -0.266391
9.19 -0.261894
9.2 -0.257554
9.21 -0.253452
9.22 -0.249654
9.23 -0.246207
9.24 -0.243179
9.25 -0.240548
9.26 -0.23829
9.27 -0.236376
9.28 -0.234756
9.29 -0.233372
9.3 -0.232157
9.31 -0.231027
9.32 -0.229892
9.33 -0.228673
9.34 -0.2273
9.35 -0.225707
9.36 -0.223843
9.37 -0.22164
9.38 -0.219088
9.39 -0.216195
9.4 -0.212969
9.41 -0.209439
9.42 -0.205645
9.43 -0.201633
9.44 -0.197463
9.45 -0.193222
9.46 -0.188978
9.47 -0.1848
9.48 -0.18075
9.49 -0.176882
9.5 -0.173258
9.51 -0.169899
9.52 -0.166803
9.53 -0.16396
9.54 -0.16134
9.55 -0.158897
9.56 -0.156564
9.57 -0.154254
9.58 -0.151857
9.59 -0.149266
9.6 -0.146367
9.61 -0.14304
9.62 -0.139171
9.63 -0.134598
9.64 -0.129207
9.65 -0.122948
9.66 -0.115746
9.67 -0.107545
9.68 -0.0983106
9.69 -0.0880268
9.7 -0.0765827
9.71 -0.0641313
9.72 -0.0507267
9.73 -0.0364398
9.74 -0.0213569
9.75 -0.00557718
9.76 0.0108142
9.77 0.0276904
9.78 0.0448953
9.79 0.0623117
9.8 0.079827
9.81 0.0973357
9.82 0.114743
9.83 0.131937
9.84 0.148862
9.85 0.165467
9.86 0.181715
9.87 0.197581
9.88 0.213055
9.89 0.22812
9.9 0.242773
9.91 0.257063
9.92 0.271008
9.93 0.284631
9.94 0.297952
9.95 0.310985
9.96 0.323716
9.97 0.336163
9.98 0.348323
9.99 0.360176
10 0.371691
10.01 0.382827
10.02 0.393522
10.03 0.40368
10.04 0.413278
10.05 0.422248
10.06 0.430523
10.07 0.43804
10.08 0.444739
10.09 0.450494
10.1 0.455301
10.11 0.459166
10.12 0.462077
10.13 0.464039
10.14 0.465074
10.15 0.465202
10.16 0.464418
10.17 0.462881
10.18 0.460677
10.19 0.457899
10.2 0.454652
10.21 0.451045
10.22 0.447181
10.23 0.443191
10.24 0.439193
10.25 0.435286
10.26 0.431558
10.27 0.428086
10.28 0.424935
10.29 0.422193
10.3 0.419848
10.31 0.417909
10.32 0.416365
10.33 0.415191
10.34 0.414346
10.35 0.413786
10.36 0.41343
10.37 0.413184
10.38 0.412962
10.39 0.412671
10.4 0.412218
10.41 0.41151
10.42 0.410409
10.43 0.408857
10.44 0.40678
10.45 0.404107
10.46 0.400778
10.47 0.396744
10.48 0.391926
10.49 0.386277
10.5 0.379832
10.51 0.372583
10.52 0.364533
10.53 0.35569
10.54 0.346072
10.55 0.335626
10.56 0.324448
10.57 0.312583
10.58 0.300065
10.59 0.28693
10.6 0.273216
10.61 0.258943
10.62 0.244137
10.63 0.22888
10.64 0.213211
10.65 0.197172
10.66 0.180805
10.67 0.164152
10.68 0.147238
10.69 0.130128
10.7 0.112874
10.71 0.0955222
10.72 0.0781193
10.73 0.0607127
10.74 0.0433519
10.75 0.0260954
10.76 0.00898304
10.77 -0.00794254
10.78 -0.0246419
10.79 -0.0410794
10.8 -0.057224
10.81 -0.0730229
10.82 -0.0884681
10.83 -0.10356
10.84 -0.118293
10.85 -0.13267
10.86 -0.146698
10.87 -0.160387
10.88 -0.173733
10.89 -0.186795
10.9 -0.199603
10.91 -0.212189
10.92 -0.224583
10.93 -0.23682
10.94 -0.248922
10.95 -0.260923
10.96 -0.27285
10.97 -0.284718
10.98 -0.296538
10.99 -0.30831
11 -0.320029
11.01 -0.331669
11.02 -0.343213
11.03 -0.354628
11.04 -0.365874
11.05 -0.376908
11.06 -0.387677
11.07 -0.398107
11.08 -0.408129
11.09 -0.417707
11.1 -0.426781
11.11 -0.435296
11.12 -0.4432
11.13 -0.450445
11.14 -0.456907
11.15 -0.46262
11.16 -0.467561
11.17 -0.471707
11.18 -0.475047
11.19 -0.477572
11.2 -0.479244
11.21 -0.480051
11.22 -0.48006
11.23 -0.479288
11.24 -0.477752
11.25 -0.475473
11.26 -0.472471
11.27 -0.468701
11.28 -0.464242
11.29 -0.459126
11.3 -0.453369
11.31 -0.446987
11.32 -0.43999
11.33 -0.43237
11.34 -0.424106
11.35 -0.415255
11.36 -0.405823
11.37 -0.395813
11.38 -0.385233
11.39 -0.374089
11.4 -0.362345
11.41 -0.350046
11.42 -0.337226
11.43 -0.323906
11.44 -0.310113
11.45 -0.295877
11.46 -0.281225
11.47 -0.266179
11.48 -0.250822
11.49 -0.235206
11.5 -0.219383
11.51 -0.203411
11.52 -0.187349
11.53 -0.17126
11.54 -0.155213
11.55 -0.139268
11.56 -0.123485
11.57 -0.107918
11.58 -0.0926222
11.59 -0.0776506
11.6 -0.0630878
11.61 -0.04894
11.62 -0.0352431
11.63 -0.0220286
11.64 -0.00932361
11.65 0.00284917
11.66 0.0144337
11.67 0.0254219
11.68 0.0358318
11.69 0.0456563
11.7 0.0548914
11.71 0.0635358
11.72 0.0715894
11.73 0.0789904
11.74 0.0858131
11.75 0.0920662
11.76 0.0977609
11.77 0.102911
11.78 0.107531
11.79 0.111613
11.8 0.115179
11.81 0.118283
11.82 0.120952
11.83 0.123214
11.84 0.1251
11.85 0.126643
11.86 0.127845
11.87 0.128776
11.88 0.12947
11.89 0.129961
11.9 0.130278
11.91 0.13045
11.92 0.130494
11.93 0.130429
11.94 0.130274
11.95 0.130033
11.96 0.129704
11.97 0.129275
11.98 0.128727
11.99 0.128016
12 0.127113
12.01 0.125976
12.02 0.124552
12.03 0.122785
12.04 0.120613
12.05 0.117953
12.06 0.114699
12.07 0.110826
12.08 0.106269
12.09 0.100965
12.1 0.0948585
12.11 0.0879009
12.12 0.0799725
12.13 0.0710898
12.14 0.0612652
12.15 0.0504953
12.16 0.0387902
12.17 0.0261732
12.18 0.0126635
