# xPDFsuite Configuration #
[PDF]
wavelength = 0.1
dataformat = QA
inputfile = BiMsol6_insitu_700 C-00568.xy
backgroundfile = Quartz2mm-dist500-00000.xy
mode = xray
bgscale = 0.0042
composition = Bi2Fe4O9
outputtype = gr
qmaxinst = 24.998449118
qmin = 0.1
qmax = 21.4986662415
rmax = 80.0
rmin = 0.0
rstep = 0.01
rpoly = 0.9

[Misc]
inputdir = C:/Data/Seafile/CPH/Beamtime/Desy Oct 20/In situ data/Processed/BiMsol6/PDF
savedir = C:/Data/Seafile/CPH/Beamtime/Desy Oct 20/In situ data/PDF/BiMsol6
backgroundfilefull = C:/Data/Seafile/CPH/Beamtime/Desy Oct 20/In situ data/Processed/Standard_Empty_Cap/Quartz2mm-dist500-00000.xy

#### start data
#S 1
#L r($\AA$)  G($\AA^{-2}$)
0 0
0.01 0.00624762
0.02 0.0121382
0.03 0.0173663
0.04 0.0216582
0.05 0.0247843
0.06 0.0265703
0.07 0.026826
0.08 0.0254976
0.09 0.0227284
0.1 0.018637
0.11 0.0134062
0.12 0.00727483
0.13 0.000527024
0.14 -0.0065164
0.15 -0.013457
0.16 -0.0199582
0.17 -0.025705
0.18 -0.0304164
0.19 -0.0338588
0.2 -0.0357934
0.21 -0.0360603
0.22 -0.0347629
0.23 -0.0319737
0.24 -0.0278421
0.25 -0.0225901
0.26 -0.0165037
0.27 -0.00990995
0.28 -0.00326872
0.29 0.00301112
0.3 0.00853362
0.31 0.0129245
0.32 0.0158498
0.33 0.0169728
0.34 0.0159675
0.35 0.0128988
0.36 0.0077766
0.37 0.000714805
0.38 -0.00806794
0.39 -0.0182516
0.4 -0.0294623
0.41 -0.041079
0.42 -0.0524952
0.43 -0.0630947
0.44 -0.0722438
0.45 -0.079315
0.46 -0.083647
0.47 -0.0843891
0.48 -0.081377
0.49 -0.0742819
0.5 -0.062899
0.51 -0.0471615
0.52 -0.0271488
0.53 -0.00282666
0.54 0.0252314
0.55 0.0562849
0.56 0.0896443
0.57 0.12451
0.58 0.159996
0.59 0.195142
0.6 0.228714
0.61 0.259789
0.62 0.287424
0.63 0.310744
0.64 0.328969
0.65 0.341443
0.66 0.347241
0.67 0.346024
0.68 0.338017
0.69 0.323275
0.7 0.302037
0.71 0.274716
0.72 0.241889
0.73 0.203834
0.74 0.162037
0.75 0.117483
0.76 0.0712038
0.77 0.0242624
0.78 -0.0222807
0.79 -0.0672753
0.8 -0.109589
0.81 -0.14849
0.82 -0.18326
0.83 -0.213329
0.84 -0.238278
0.85 -0.257855
0.86 -0.271422
0.87 -0.279589
0.88 -0.282714
0.89 -0.281217
0.9 -0.275642
0.91 -0.266631
0.92 -0.254825
0.93 -0.241027
0.94 -0.226224
0.95 -0.211185
0.96 -0.196639
0.97 -0.183252
0.98 -0.171603
0.99 -0.162414
1 -0.155922
1.01 -0.152283
1.02 -0.151585
1.03 -0.153795
1.04 -0.158767
1.05 -0.166313
1.06 -0.176174
1.07 -0.187707
1.08 -0.200446
1.09 -0.213901
1.1 -0.227575
1.11 -0.240993
1.12 -0.253622
1.13 -0.265062
1.14 -0.275038
1.15 -0.283322
1.16 -0.289771
1.17 -0.294329
1.18 -0.296992
1.19 -0.297745
1.2 -0.296966
1.21 -0.294906
1.22 -0.291857
1.23 -0.288135
1.24 -0.28407
1.25 -0.280006
1.26 -0.276284
1.27 -0.273159
1.28 -0.270838
1.29 -0.269469
1.3 -0.269138
1.31 -0.26987
1.32 -0.271709
1.33 -0.27441
1.34 -0.277792
1.35 -0.281631
1.36 -0.285668
1.37 -0.289626
1.38 -0.293183
1.39 -0.296025
1.4 -0.297931
1.41 -0.298697
1.42 -0.298167
1.43 -0.296243
1.44 -0.292891
1.45 -0.287997
1.46 -0.281834
1.47 -0.274588
1.48 -0.266493
1.49 -0.257832
1.5 -0.24892
1.51 -0.24012
1.52 -0.231837
1.53 -0.224395
1.54 -0.218102
1.55 -0.213227
1.56 -0.209984
1.57 -0.208527
1.58 -0.209128
1.59 -0.211619
1.6 -0.215876
1.61 -0.221731
1.62 -0.228941
1.63 -0.237202
1.64 -0.246167
1.65 -0.255389
1.66 -0.264391
1.67 -0.272738
1.68 -0.280008
1.69 -0.285804
1.7 -0.289771
1.71 -0.291399
1.72 -0.290572
1.73 -0.287215
1.74 -0.281279
1.75 -0.272799
1.76 -0.261894
1.77 -0.248715
1.78 -0.233455
1.79 -0.216665
1.8 -0.198745
1.81 -0.180129
1.82 -0.161265
1.83 -0.142603
1.84 -0.124661
1.85 -0.107862
1.86 -0.09252
1.87 -0.0789161
1.88 -0.0672604
1.89 -0.0576861
1.9 -0.0502771
1.91 -0.0451765
1.92 -0.0420388
1.93 -0.040668
1.94 -0.0408078
1.95 -0.0421534
1.96 -0.044365
1.97 -0.0470906
1.98 -0.049904
1.99 -0.0524344
2 -0.054364
2.01 -0.0554182
2.02 -0.0553777
2.03 -0.0540829
2.04 -0.051303
2.05 -0.0471964
2.06 -0.0418527
2.07 -0.0354339
2.08 -0.0281693
2.09 -0.0203461
2.1 -0.0123089
2.11 -0.00448892
2.12 0.00271095
2.13 0.00889735
2.14 0.0136915
2.15 0.0167439
2.16 0.0177477
2.17 0.0161787
2.18 0.012081
2.19 0.00538024
2.2 -0.00393666
2.21 -0.0158026
2.22 -0.0300723
2.23 -0.0466117
2.24 -0.0651329
2.25 -0.0851248
2.26 -0.106188
2.27 -0.127895
2.28 -0.149802
2.29 -0.171468
2.3 -0.19236
2.31 -0.212095
2.32 -0.230344
2.33 -0.246817
2.34 -0.26129
2.35 -0.273605
2.36 -0.283602
2.37 -0.29117
2.38 -0.296574
2.39 -0.299957
2.4 -0.301522
2.41 -0.301517
2.42 -0.300231
2.43 -0.29792
2.44 -0.295011
2.45 -0.291856
2.46 -0.288769
2.47 -0.286036
2.48 -0.283912
2.49 -0.28263
2.5 -0.282436
2.51 -0.283346
2.52 -0.2854
2.53 -0.288587
2.54 -0.292844
2.55 -0.298063
2.56 -0.304145
2.57 -0.310855
2.58 -0.317954
2.59 -0.325227
2.6 -0.332455
2.61 -0.339429
2.62 -0.345946
2.63 -0.35176
2.64 -0.356788
2.65 -0.360931
2.66 -0.364129
2.67 -0.366357
2.68 -0.36763
2.69 -0.36794
2.7 -0.367397
2.71 -0.366156
2.72 -0.364348
2.73 -0.36211
2.74 -0.359589
2.75 -0.356924
2.76 -0.354264
2.77 -0.351733
2.78 -0.349424
2.79 -0.347405
2.8 -0.345717
2.81 -0.344374
2.82 -0.34338
2.83 -0.342688
2.84 -0.342213
2.85 -0.341871
2.86 -0.341566
2.87 -0.341195
2.88 -0.340653
2.89 -0.339799
2.9 -0.338558
2.91 -0.336859
2.92 -0.334642
2.93 -0.33187
2.94 -0.328523
2.95 -0.324582
2.96 -0.320058
2.97 -0.315039
2.98 -0.309583
2.99 -0.303754
3 -0.297624
3.01 -0.29126
3.02 -0.284713
3.03 -0.278045
3.04 -0.271286
3.05 -0.26444
3.06 -0.257482
3.07 -0.250365
3.08 -0.242998
3.09 -0.23524
3.1 -0.226977
3.11 -0.218051
3.12 -0.20829
3.13 -0.197511
3.14 -0.18553
3.15 -0.172033
3.16 -0.156905
3.17 -0.140049
3.18 -0.121351
3.19 -0.100731
3.2 -0.0781485
3.21 -0.0535701
3.22 -0.0269173
3.23 0.00150738
3.24 0.0315412
3.25 0.0629754
3.26 0.0955594
3.27 0.129005
3.28 0.163009
3.29 0.197161
3.3 0.23108
3.31 0.264405
3.32 0.296777
3.33 0.327853
3.34 0.357291
3.35 0.384581
3.36 0.409658
3.37 0.432319
3.38 0.452407
3.39 0.469812
3.4 0.484474
3.41 0.496209
3.42 0.505082
3.43 0.511327
3.44 0.515062
3.45 0.516435
3.46 0.515616
3.47 0.51279
3.48 0.507969
3.49 0.501574
3.5 0.493801
3.51 0.484835
3.52 0.474842
3.53 0.463975
3.54 0.452334
3.55 0.440036
3.56 0.427212
3.57 0.413932
3.58 0.400245
3.59 0.386193
3.6 0.371803
3.61 0.357072
3.62 0.342055
3.63 0.326787
3.64 0.311305
3.65 0.29566
3.66 0.279917
3.67 0.264159
3.68 0.248503
3.69 0.233069
3.7 0.217989
3.71 0.203411
3.72 0.189492
3.73 0.176393
3.74 0.164388
3.75 0.153586
3.76 0.144118
3.77 0.136121
3.78 0.129717
3.79 0.125006
3.8 0.122118
3.81 0.121213
3.82 0.122146
3.83 0.124905
3.84 0.129446
3.85 0.135701
3.86 0.143579
3.87 0.15308
3.88 0.163984
3.89 0.176094
3.9 0.18926
3.91 0.203326
3.92 0.218141
3.93 0.233567
3.94 0.249487
3.95 0.265724
3.96 0.282169
3.97 0.298731
3.98 0.315333
3.99 0.331913
4 0.348414
4.01 0.364796
4.02 0.381034
4.03 0.397107
4.04 0.412989
4.05 0.428657
4.06 0.444077
4.07 0.459174
4.08 0.473919
4.09 0.488245
4.1 0.502069
4.11 0.515293
4.12 0.527806
4.13 0.539425
4.14 0.55
4.15 0.559435
4.16 0.567589
4.17 0.574319
4.18 0.579492
4.19 0.582983
4.2 0.58447
4.21 0.584056
4.22 0.581687
4.23 0.57733
4.24 0.570976
4.25 0.56265
4.26 0.55231
4.27 0.540015
4.28 0.526004
4.29 0.510408
4.3 0.493375
4.31 0.475065
4.32 0.455649
4.33 0.43522
4.34 0.414048
4.35 0.392306
4.36 0.370141
4.37 0.347684
4.38 0.325045
4.39 0.302314
4.4 0.279559
4.41 0.256822
4.42 0.234115
4.43 0.211432
4.44 0.188747
4.45 0.166019
4.46 0.143187
4.47 0.120195
4.48 0.0969915
4.49 0.0735289
4.5 0.0497696
4.51 0.0256914
4.52 0.00128184
4.53 -0.0234558
4.54 -0.0484455
4.55 -0.073616
4.56 -0.0988724
4.57 -0.124098
4.58 -0.149154
4.59 -0.173849
4.6 -0.198007
4.61 -0.221464
4.62 -0.244047
4.63 -0.265582
4.64 -0.285909
4.65 -0.30486
4.66 -0.322169
4.67 -0.337883
4.68 -0.351938
4.69 -0.364301
4.7 -0.374971
4.71 -0.383981
4.72 -0.391291
4.73 -0.397046
4.74 -0.401452
4.75 -0.404657
4.76 -0.40683
4.77 -0.408149
4.78 -0.408799
4.79 -0.408938
4.8 -0.408816
4.81 -0.408603
4.82 -0.408451
4.83 -0.408495
4.84 -0.408843
4.85 -0.409606
4.86 -0.410847
4.87 -0.412565
4.88 -0.414754
4.89 -0.417385
4.9 -0.420406
4.91 -0.423746
4.92 -0.427331
4.93 -0.431027
4.94 -0.434723
4.95 -0.43831
4.96 -0.441679
4.97 -0.444726
4.98 -0.447335
4.99 -0.4494
5 -0.450886
5.01 -0.451745
5.02 -0.451942
5.03 -0.451459
5.04 -0.450292
5.05 -0.448384
5.06 -0.445816
5.07 -0.442631
5.08 -0.438866
5.09 -0.434561
5.1 -0.429757
5.11 -0.424478
5.12 -0.418745
5.13 -0.412624
5.14 -0.406136
5.15 -0.399298
5.16 -0.392118
5.17 -0.384598
5.18 -0.376707
5.19 -0.368457
5.2 -0.359851
5.21 -0.350883
5.22 -0.34155
5.23 -0.331857
5.24 -0.321805
5.25 -0.311397
5.26 -0.300699
5.27 -0.289757
5.28 -0.278629
5.29 -0.267385
5.3 -0.256104
5.31 -0.24489
5.32 -0.23385
5.33 -0.223085
5.34 -0.212698
5.35 -0.20279
5.36 -0.193459
5.37 -0.184802
5.38 -0.176972
5.39 -0.169957
5.4 -0.163798
5.41 -0.158521
5.42 -0.15413
5.43 -0.150611
5.44 -0.147981
5.45 -0.146166
5.46 -0.145051
5.47 -0.144549
5.48 -0.144565
5.49 -0.144993
5.5 -0.145726
5.51 -0.146663
5.52 -0.147666
5.53 -0.148636
5.54 -0.149484
5.55 -0.150132
5.56 -0.150515
5.57 -0.150565
5.58 -0.15024
5.59 -0.149547
5.6 -0.148482
5.61 -0.147058
5.62 -0.145293
5.63 -0.143218
5.64 -0.140839
5.65 -0.138223
5.66 -0.135406
5.67 -0.132417
5.68 -0.129279
5.69 -0.126004
5.7 -0.122587
5.71 -0.119012
5.72 -0.11526
5.73 -0.111296
5.74 -0.107069
5.75 -0.102521
5.76 -0.0975882
5.77 -0.0921493
5.78 -0.0861615
5.79 -0.0795668
5.8 -0.072305
5.81 -0.0643254
5.82 -0.0555904
5.83 -0.0460518
5.84 -0.0356676
5.85 -0.0245239
5.86 -0.0126615
5.87 -0.00014167
5.88 0.0129551
5.89 0.0265305
5.9 0.0404903
5.91 0.05467
5.92 0.0689208
5.93 0.0831004
5.94 0.0970665
5.95 0.110681
5.96 0.123799
5.97 0.136246
5.98 0.147973
5.99 0.1589
6 0.16897
6.01 0.178149
6.02 0.186425
6.03 0.193746
6.04 0.200182
6.05 0.205828
6.06 0.210761
6.07 0.215067
6.08 0.218843
6.09 0.222188
6.1 0.225187
6.11 0.227981
6.12 0.230659
6.13 0.233298
6.14 0.235958
6.15 0.238683
6.16 0.241501
6.17 0.24441
6.18 0.247381
6.19 0.250367
6.2 0.253303
6.21 0.256109
6.22 0.25869
6.23 0.260889
6.24 0.262621
6.25 0.263773
6.26 0.264233
6.27 0.263897
6.28 0.262672
6.29 0.260422
6.3 0.257065
6.31 0.252627
6.32 0.247088
6.33 0.240452
6.34 0.232743
6.35 0.224006
6.36 0.21421
6.37 0.203536
6.38 0.192092
6.39 0.179985
6.4 0.167325
6.41 0.154229
6.42 0.140802
6.43 0.127162
6.44 0.113432
6.45 0.0997024
6.46 0.0860503
6.47 0.0725392
6.48 0.0592175
6.49 0.0461418
6.5 0.0333141
6.51 0.0207307
6.52 0.00838122
6.53 -0.00375469
6.54 -0.0157047
6.55 -0.0274982
6.56 -0.0391683
6.57 -0.0507621
6.58 -0.0623103
6.59 -0.0738379
6.6 -0.0853624
6.61 -0.0968921
6.62 -0.108424
6.63 -0.119943
6.64 -0.131422
6.65 -0.142824
6.66 -0.154104
6.67 -0.165206
6.68 -0.176065
6.69 -0.186582
6.7 -0.196712
6.71 -0.206387
6.72 -0.215538
6.73 -0.224102
6.74 -0.232017
6.75 -0.239176
6.76 -0.245546
6.77 -0.251121
6.78 -0.255871
6.79 -0.259773
6.8 -0.262812
6.81 -0.264968
6.82 -0.266149
6.83 -0.266448
6.84 -0.265865
6.85 -0.2644
6.86 -0.262053
6.87 -0.258822
6.88 -0.254646
6.89 -0.249519
6.9 -0.243478
6.91 -0.236506
6.92 -0.228582
6.93 -0.219683
6.94 -0.209787
6.95 -0.19875
6.96 -0.186663
6.97 -0.173511
6.98 -0.159283
6.99 -0.143973
7 -0.127587
7.01 -0.110085
7.02 -0.091482
7.03 -0.0718879
7.04 -0.0513551
7.05 -0.0299481
7.06 -0.00774239
7.07 0.0151756
7.08 0.0387632
7.09 0.0628495
7.1 0.0873157
7.11 0.112048
7.12 0.136931
7.13 0.16185
7.14 0.186688
7.15 0.211315
7.16 0.235642
7.17 0.259577
7.18 0.28304
7.19 0.305958
7.2 0.328269
7.21 0.349854
7.22 0.370709
7.23 0.390812
7.24 0.410133
7.25 0.428644
7.26 0.44632
7.27 0.46311
7.28 0.478928
7.29 0.49382
7.3 0.507746
7.31 0.520664
7.32 0.532523
7.33 0.543265
7.34 0.552723
7.35 0.560866
7.36 0.567661
7.37 0.573025
7.38 0.576875
7.39 0.579128
7.4 0.579675
7.41 0.578289
7.42 0.575077
7.43 0.56999
7.44 0.562993
7.45 0.554065
7.46 0.543207
7.47 0.530307
7.48 0.515457
7.49 0.498813
7.5 0.480464
7.51 0.460515
7.52 0.439092
7.53 0.41633
7.54 0.392282
7.55 0.367265
7.56 0.341458
7.57 0.315045
7.58 0.288213
7.59 0.261146
7.6 0.234035
7.61 0.207079
7.62 0.180441
7.63 0.154273
7.64 0.128711
7.65 0.103876
7.66 0.0798749
7.67 0.0569105
7.68 0.034963
7.69 0.0140832
7.7 -0.00568735
7.71 -0.0243199
7.72 -0.0417971
7.73 -0.0580564
7.74 -0.0730752
7.75 -0.0869434
7.76 -0.0996756
7.77 -0.11129
7.78 -0.121806
7.79 -0.131246
7.8 -0.139529
7.81 -0.146768
7.82 -0.153004
7.83 -0.15826
7.84 -0.162559
7.85 -0.165924
7.86 -0.168348
7.87 -0.169823
7.88 -0.170452
7.89 -0.170268
7.9 -0.169305
7.91 -0.167605
7.92 -0.165211
7.93 -0.162117
7.94 -0.158421
7.95 -0.154197
7.96 -0.149502
7.97 -0.144397
7.98 -0.138942
7.99 -0.133194
8 -0.127206
8.01 -0.121061
8.02 -0.114815
8.03 -0.10852
8.04 -0.102223
8.05 -0.0959675
8.06 -0.0897992
8.07 -0.0837507
8.08 -0.0778444
8.09 -0.0721007
8.1 -0.0665355
8.11 -0.0611608
8.12 -0.0559882
8.13 -0.0510421
8.14 -0.0463058
8.15 -0.0417822
8.16 -0.0374739
8.17 -0.0333842
8.18 -0.0295168
8.19 -0.0258926
8.2 -0.022515
8.21 -0.0193804
8.22 -0.0164975
8.23 -0.0138752
8.24 -0.0115223
8.25 -0.00944773
8.26 -0.00768954
8.27 -0.00621906
8.28 -0.0050359
8.29 -0.00413557
8.3 -0.00350895
8.31 -0.00314186
8.32 -0.003027
8.33 -0.00313605
8.34 -0.00342382
8.35 -0.00385522
8.36 -0.00439178
8.37 -0.0049926
8.38 -0.00561562
8.39 -0.00621228
8.4 -0.00674079
8.41 -0.0071653
8.42 -0.00745474
8.43 -0.00758441
8.44 -0.00753713
8.45 -0.00729586
8.46 -0.00685787
8.47 -0.00624966
8.48 -0.00549412
8.49 -0.00462359
8.5 -0.00367922
8.51 -0.00270996
8.52 -0.00178037
8.53 -0.000955915
8.54 -0.000300082
8.55 0.000122265
8.56 0.000247557
8.57 1.55055e-05
8.58 -0.000644868
8.59 -0.00180961
8.6 -0.00348079
8.61 -0.0056853
8.62 -0.00843917
8.63 -0.011747
8.64 -0.0156021
8.65 -0.02003
8.66 -0.0249666
8.67 -0.0303559
8.68 -0.03615
8.69 -0.042295
8.7 -0.0487329
8.71 -0.0554074
8.72 -0.0622623
8.73 -0.069219
8.74 -0.0762235
8.75 -0.0832274
8.76 -0.090189
8.77 -0.0970746
8.78 -0.103849
8.79 -0.110499
8.8 -0.117022
8.81 -0.123419
8.82 -0.129699
8.83 -0.135874
8.84 -0.141962
8.85 -0.147979
8.86 -0.153955
8.87 -0.159907
8.88 -0.165852
8.89 -0.171801
8.9 -0.177758
8.91 -0.183722
8.92 -0.189681
8.93 -0.195613
8.94 -0.201492
8.95 -0.207284
8.96 -0.212948
8.97 -0.218439
8.98 -0.223675
8.99 -0.228627
9 -0.233245
9.01 -0.237483
9.02 -0.241296
9.03 -0.24465
9.04 -0.247489
9.05 -0.249786
9.06 -0.251569
9.07 -0.252842
9.08 -0.253623
9.09 -0.253937
9.1 -0.253824
9.11 -0.253295
9.12 -0.252448
9.13 -0.251347
9.14 -0.250058
9.15 -0.248646
9.16 -0.247175
9.17 -0.245708
9.18 -0.244309
9.19 -0.243022
9.2 -0.241883
9.21 -0.240918
9.22 -0.240138
9.23 -0.239547
9.24 -0.239149
9.25 -0.238905
9.26 -0.238777
9.27 -0.238723
9.28 -0.238693
9.29 -0.238633
9.3 -0.238482
9.31 -0.238169
9.32 -0.237646
9.33 -0.236867
9.34 -0.235786
9.35 -0.234372
9.36 -0.232599
9.37 -0.23042
9.38 -0.227854
9.39 -0.224923
9.4 -0.221649
9.41 -0.218061
9.42 -0.214197
9.43 -0.210099
9.44 -0.205808
9.45 -0.201396
9.46 -0.196914
9.47 -0.192408
9.48 -0.187922
9.49 -0.183489
9.5 -0.179142
9.51 -0.174895
9.52 -0.170746
9.53 -0.166682
9.54 -0.16268
9.55 -0.158706
9.56 -0.154713
9.57 -0.150629
9.58 -0.146392
9.59 -0.141932
9.6 -0.137173
9.61 -0.13204
9.62 -0.126458
9.63 -0.120321
9.64 -0.113558
9.65 -0.106143
9.66 -0.098032
9.67 -0.0891902
9.68 -0.0795961
9.69 -0.0692405
9.7 -0.0580414
9.71 -0.046105
9.72 -0.0334636
9.73 -0.0201585
9.74 -0.00624029
9.75 0.00823275
9.76 0.0232181
9.77 0.0386427
9.78 0.0544043
9.79 0.0704319
9.8 0.0866558
9.81 0.103009
9.82 0.119429
9.83 0.135853
9.84 0.152221
9.85 0.168487
9.86 0.18461
9.87 0.200555
9.88 0.216287
9.89 0.231768
9.9 0.246958
9.91 0.26185
9.92 0.276419
9.93 0.290638
9.94 0.304481
9.95 0.317916
9.96 0.330866
9.97 0.343319
9.98 0.355247
9.99 0.366606
10 0.377352
10.01 0.387439
10.02 0.396801
10.03 0.405344
10.04 0.413092
10.05 0.420011
10.06 0.426071
10.07 0.431253
10.08 0.435546
10.09 0.438875
10.1 0.441296
10.11 0.442864
10.12 0.443613
10.13 0.443591
10.14 0.442853
10.15 0.441457
10.16 0.439439
10.17 0.436946
10.18 0.434064
10.19 0.430883
10.2 0.42749
10.21 0.423974
10.22 0.42042
10.23 0.416917
10.24 0.413532
10.25 0.410323
10.26 0.407338
10.27 0.404609
10.28 0.402163
10.29 0.400038
10.3 0.398197
10.31 0.396624
10.32 0.395289
10.33 0.394156
10.34 0.393178
10.35 0.392304
10.36 0.391466
10.37 0.390596
10.38 0.389629
10.39 0.388502
10.4 0.387151
10.41 0.385516
10.42 0.383496
10.43 0.381071
10.44 0.378197
10.45 0.374834
10.46 0.370947
10.47 0.366507
10.48 0.361461
10.49 0.355775
10.5 0.349476
10.51 0.342555
10.52 0.335004
10.53 0.326819
10.54 0.317999
10.55 0.308479
10.56 0.298318
10.57 0.287528
10.58 0.276116
10.59 0.264089
10.6 0.251458
10.61 0.238215
10.62 0.224353
10.63 0.209942
10.64 0.195007
10.65 0.179578
10.66 0.163692
10.67 0.147391
10.68 0.130691
10.69 0.113677
10.7 0.0964177
10.71 0.0789751
10.72 0.0614162
10.73 0.0438099
10.74 0.0262293
10.75 0.0087598
10.76 -0.00853371
10.77 -0.0255866
10.78 -0.042339
10.79 -0.0587377
10.8 -0.0747367
10.81 -0.0902622
10.82 -0.105304
10.83 -0.119863
10.84 -0.133939
10.85 -0.147538
10.86 -0.16068
10.87 -0.173385
10.88 -0.185664
10.89 -0.197606
10.9 -0.209263
10.91 -0.22069
10.92 -0.231945
10.93 -0.243085
10.94 -0.254164
10.95 -0.265241
10.96 -0.276358
10.97 -0.287551
10.98 -0.298842
10.99 -0.310243
11 -0.321755
11.01 -0.333372
11.02 -0.345055
11.03 -0.356763
11.04 -0.368444
11.05 -0.380036
11.06 -0.391467
11.07 -0.402641
11.08 -0.413459
11.09 -0.42385
11.1 -0.433724
11.11 -0.442995
11.12 -0.451581
11.13 -0.459403
11.14 -0.466294
11.15 -0.472274
11.16 -0.477301
11.17 -0.481338
11.18 -0.48436
11.19 -0.486356
11.2 -0.487276
11.21 -0.48711
11.22 -0.485955
11.23 -0.483845
11.24 -0.480821
11.25 -0.47693
11.26 -0.472227
11.27 -0.466696
11.28 -0.460464
11.29 -0.453602
11.3 -0.446164
11.31 -0.438202
11.32 -0.429763
11.33 -0.420874
11.34 -0.411557
11.35 -0.401874
11.36 -0.391844
11.37 -0.381482
11.38 -0.370795
11.39 -0.359787
11.4 -0.348426
11.41 -0.336724
11.42 -0.324683
11.43 -0.312294
11.44 -0.299547
11.45 -0.286437
11.46 -0.272949
11.47 -0.25906
11.48 -0.24481
11.49 -0.230212
11.5 -0.215285
11.51 -0.200054
11.52 -0.184552
11.53 -0.168806
11.54 -0.152878
11.55 -0.136832
11.56 -0.120729
11.57 -0.104631
11.58 -0.0886079
11.59 -0.0727323
11.6 -0.0571042
11.61 -0.0417781
11.62 -0.0268231
11.63 -0.0123055
11.64 0.00171311
11.65 0.0151761
11.66 0.0279905
11.67 0.0401175
11.68 0.051556
11.69 0.0622819
11.7 0.0722803
11.71 0.0815451
11.72 0.0900779
11.73 0.0978115
11.74 0.104851
11.75 0.111227
11.76 0.116974
11.77 0.122133
11.78 0.12675
11.79 0.130849
11.8 0.134485
11.81 0.137739
11.82 0.14066
11.83 0.143295
11.84 0.14569
11.85 0.147881
11.86 0.149888
11.87 0.151755
11.88 0.153501
11.89 0.155135
11.9 0.156659
11.91 0.158067
11.92 0.159337
11.93 0.160437
11.94 0.161347
11.95 0.162028
11.96 0.162438
11.97 0.16253
11.98 0.162253
11.99 0.161509
12 0.160271
12.01 0.158496
12.02 0.156134
12.03 0.153138
12.04 0.149466
12.05 0.145057
12.06 0.139837
12.07 0.133845
12.08 0.127067
12.09 0.119495
12.1 0.11113
12.11 0.10198
12.12 0.0919971
12.13 0.08125
12.14 0.0697941
12.15 0.0576667
12.16 0.0449102
