# xPDFsuite Configuration #
[PDF]
wavelength = 0.1
dataformat = QA
inputfile = BiMsol6_insitu_700 C-00689.xy
backgroundfile = Quartz2mm-dist500-00000.xy
mode = xray
bgscale = 0.0042
composition = Bi2Fe4O9
outputtype = gr
qmaxinst = 24.998449118
qmin = 0.1
qmax = 21.4986662415
rmax = 80.0
rmin = 0.0
rstep = 0.01
rpoly = 0.9

[Misc]
inputdir = C:/Data/Seafile/CPH/Beamtime/Desy Oct 20/In situ data/Processed/BiMsol6/PDF
savedir = C:/Data/Seafile/CPH/Beamtime/Desy Oct 20/In situ data/PDF/BiMsol6
backgroundfilefull = C:/Data/Seafile/CPH/Beamtime/Desy Oct 20/In situ data/Processed/Standard_Empty_Cap/Quartz2mm-dist500-00000.xy

#### start data
#S 1
#L r($\AA$)  G($\AA^{-2}$)
0 0
0.01 0.00601717
0.02 0.0116911
0.03 0.0167282
0.04 0.0208649
0.05 0.0238804
0.06 0.0256064
0.07 0.0258593
0.08 0.0245863
0.09 0.0219241
0.1 0.0179858
0.11 0.0129458
0.12 0.00703284
0.13 0.000519272
0.14 -0.00628789
0.15 -0.0130048
0.16 -0.0193074
0.17 -0.0248919
0.18 -0.0294866
0.19 -0.032865
0.2 -0.0347952
0.21 -0.0351201
0.22 -0.0339365
0.23 -0.0313109
0.24 -0.0273846
0.25 -0.0223687
0.26 -0.0165362
0.27 -0.0101997
0.28 -0.00380241
0.29 0.00226095
0.3 0.00760723
0.31 0.0118731
0.32 0.0147329
0.33 0.0158575
0.34 0.0149259
0.35 0.0119946
0.36 0.00706698
0.37 0.000246661
0.38 -0.00826091
0.39 -0.0181515
0.4 -0.0290706
0.41 -0.0404185
0.42 -0.0516071
0.43 -0.062038
0.44 -0.0710929
0.45 -0.0781567
0.46 -0.082579
0.47 -0.0835208
0.48 -0.0808063
0.49 -0.0740993
0.5 -0.0631824
0.51 -0.0479712
0.52 -0.0285233
0.53 -0.00477734
0.54 0.0227259
0.55 0.0532766
0.56 0.0862152
0.57 0.120771
0.58 0.156084
0.59 0.191216
0.6 0.22497
0.61 0.256412
0.62 0.284602
0.63 0.308658
0.64 0.327784
0.65 0.341302
0.66 0.348263
0.67 0.348285
0.68 0.341542
0.69 0.328045
0.7 0.307983
0.71 0.281721
0.72 0.249792
0.73 0.212398
0.74 0.171013
0.75 0.126592
0.76 0.0801479
0.77 0.0327347
0.78 -0.0145857
0.79 -0.0606642
0.8 -0.104344
0.81 -0.144837
0.82 -0.18138
0.83 -0.213346
0.84 -0.24026
0.85 -0.261804
0.86 -0.27726
0.87 -0.287175
0.88 -0.291843
0.89 -0.291631
0.9 -0.287035
0.91 -0.27866
0.92 -0.267108
0.93 -0.253153
0.94 -0.237814
0.95 -0.221879
0.96 -0.206109
0.97 -0.191209
0.98 -0.177817
0.99 -0.166704
1 -0.158199
1.01 -0.152537
1.02 -0.149878
1.03 -0.150265
1.04 -0.153619
1.05 -0.159822
1.06 -0.168689
1.07 -0.17959
1.08 -0.192081
1.09 -0.205677
1.1 -0.219876
1.11 -0.234179
1.12 -0.248037
1.13 -0.26098
1.14 -0.272655
1.15 -0.282764
1.16 -0.291087
1.17 -0.297487
1.18 -0.301879
1.19 -0.304146
1.2 -0.304614
1.21 -0.303476
1.22 -0.300979
1.23 -0.297411
1.24 -0.293086
1.25 -0.288321
1.26 -0.283491
1.27 -0.278907
1.28 -0.274829
1.29 -0.271471
1.3 -0.268991
1.31 -0.267498
1.32 -0.267133
1.33 -0.267746
1.34 -0.269241
1.35 -0.271468
1.36 -0.274238
1.37 -0.277329
1.38 -0.280487
1.39 -0.283424
1.4 -0.285895
1.41 -0.28768
1.42 -0.288589
1.43 -0.288476
1.44 -0.287242
1.45 -0.28471
1.46 -0.281033
1.47 -0.276299
1.48 -0.270647
1.49 -0.264263
1.5 -0.257372
1.51 -0.250233
1.52 -0.243162
1.53 -0.236457
1.54 -0.230389
1.55 -0.225209
1.56 -0.221134
1.57 -0.218338
1.58 -0.217091
1.59 -0.217332
1.6 -0.219021
1.61 -0.222075
1.62 -0.22635
1.63 -0.231645
1.64 -0.23772
1.65 -0.244254
1.66 -0.250855
1.67 -0.257172
1.68 -0.262854
1.69 -0.267558
1.7 -0.270967
1.71 -0.272637
1.72 -0.272414
1.73 -0.270183
1.74 -0.265847
1.75 -0.259381
1.76 -0.25083
1.77 -0.240261
1.78 -0.227767
1.79 -0.213777
1.8 -0.198591
1.81 -0.182542
1.82 -0.16599
1.83 -0.149302
1.84 -0.132891
1.85 -0.117141
1.86 -0.102351
1.87 -0.0887895
1.88 -0.076673
1.89 -0.066159
1.9 -0.0573674
1.91 -0.0504739
1.92 -0.0452499
1.93 -0.0415821
1.94 -0.0393032
1.95 -0.0382008
1.96 -0.0380266
1.97 -0.0385331
1.98 -0.0393828
1.99 -0.0402657
2 -0.0409197
2.01 -0.0411116
2.02 -0.0406478
2.03 -0.0393795
2.04 -0.0371148
2.05 -0.0339342
2.06 -0.0298861
2.07 -0.0250796
2.08 -0.0196806
2.09 -0.0139061
2.1 -0.00802707
2.11 -0.00238656
2.12 0.00269255
2.13 0.00688623
2.14 0.00987757
2.15 0.0113693
2.16 0.0110958
2.17 0.00859714
2.18 0.00389978
2.19 -0.00307477
2.2 -0.0123541
2.21 -0.0238973
2.22 -0.0375956
2.23 -0.0533533
2.24 -0.0709377
2.25 -0.0899078
2.26 -0.10992
2.27 -0.130603
2.28 -0.151563
2.29 -0.172403
2.3 -0.192646
2.31 -0.211926
2.32 -0.229923
2.33 -0.246354
2.34 -0.260985
2.35 -0.273644
2.36 -0.284146
2.37 -0.292348
2.38 -0.298462
2.39 -0.302585
2.4 -0.304874
2.41 -0.305532
2.42 -0.304806
2.43 -0.302901
2.44 -0.300216
2.45 -0.297089
2.46 -0.293822
2.47 -0.2907
2.48 -0.287986
2.49 -0.285929
2.5 -0.284795
2.51 -0.284653
2.52 -0.285586
2.53 -0.287626
2.54 -0.29076
2.55 -0.294926
2.56 -0.300082
2.57 -0.306033
2.58 -0.312569
2.59 -0.319496
2.6 -0.326613
2.61 -0.333714
2.62 -0.340593
2.63 -0.347006
2.64 -0.352819
2.65 -0.357897
2.66 -0.362137
2.67 -0.365468
2.68 -0.367854
2.69 -0.369233
2.7 -0.369656
2.71 -0.369239
2.72 -0.368073
2.73 -0.366268
2.74 -0.363948
2.75 -0.361243
2.76 -0.358274
2.77 -0.355211
2.78 -0.352172
2.79 -0.349261
2.8 -0.346563
2.81 -0.344145
2.82 -0.342068
2.83 -0.340356
2.84 -0.338983
2.85 -0.33792
2.86 -0.337124
2.87 -0.336537
2.88 -0.33609
2.89 -0.335703
2.9 -0.335284
2.91 -0.334753
2.92 -0.334035
2.93 -0.333064
2.94 -0.331783
2.95 -0.330128
2.96 -0.328046
2.97 -0.325542
2.98 -0.322603
2.99 -0.319223
3 -0.3154
3.01 -0.311135
3.02 -0.306385
3.03 -0.301176
3.04 -0.295502
3.05 -0.289337
3.06 -0.282642
3.07 -0.275364
3.08 -0.267411
3.09 -0.258647
3.1 -0.249029
3.11 -0.238445
3.12 -0.226776
3.13 -0.2139
3.14 -0.199693
3.15 -0.183907
3.16 -0.1665
3.17 -0.147435
3.18 -0.126648
3.19 -0.104105
3.2 -0.0797994
3.21 -0.053728
3.22 -0.0258449
3.23 0.00356853
3.24 0.0343591
3.25 0.0663368
3.26 0.0992778
3.27 0.132927
3.28 0.167014
3.29 0.201179
3.3 0.235088
3.31 0.268419
3.32 0.300848
3.33 0.332063
3.34 0.361748
3.35 0.389422
3.36 0.415013
3.37 0.438313
3.38 0.459152
3.39 0.477401
3.4 0.492968
3.41 0.505636
3.42 0.515424
3.43 0.522522
3.44 0.527005
3.45 0.528981
3.46 0.52858
3.47 0.525958
3.48 0.521067
3.49 0.51434
3.5 0.505966
3.51 0.496132
3.52 0.485017
3.53 0.472796
3.54 0.459589
3.55 0.445554
3.56 0.430882
3.57 0.415686
3.58 0.40007
3.59 0.384121
3.6 0.367917
3.61 0.351512
3.62 0.334992
3.63 0.318418
3.64 0.301845
3.65 0.285335
3.66 0.268951
3.67 0.252775
3.68 0.236907
3.69 0.221418
3.7 0.206405
3.71 0.191971
3.72 0.178226
3.73 0.165285
3.74 0.153362
3.75 0.142523
3.76 0.13286
3.77 0.12448
3.78 0.11748
3.79 0.111948
3.8 0.108005
3.81 0.105808
3.82 0.105255
3.83 0.106365
3.84 0.109138
3.85 0.113555
3.86 0.119581
3.87 0.127287
3.88 0.13652
3.89 0.147146
3.9 0.159072
3.91 0.1722
3.92 0.186426
3.93 0.201657
3.94 0.217843
3.95 0.23478
3.96 0.252364
3.97 0.270492
3.98 0.289068
3.99 0.307995
4 0.327196
4.01 0.346563
4.02 0.365997
4.03 0.385414
4.04 0.404726
4.05 0.423844
4.06 0.442672
4.07 0.461063
4.08 0.478946
4.09 0.496212
4.1 0.512749
4.11 0.528438
4.12 0.543157
4.13 0.556709
4.14 0.568955
4.15 0.579836
4.16 0.589236
4.17 0.597047
4.18 0.603171
4.19 0.607521
4.2 0.609811
4.21 0.610189
4.22 0.608631
4.23 0.605128
4.24 0.599691
4.25 0.59235
4.26 0.58307
4.27 0.571899
4.28 0.559054
4.29 0.544639
4.3 0.528769
4.31 0.511567
4.32 0.493161
4.33 0.473585
4.34 0.453073
4.35 0.431761
4.36 0.409763
4.37 0.387182
4.38 0.364108
4.39 0.340606
4.4 0.316735
4.41 0.292574
4.42 0.268159
4.43 0.243516
4.44 0.218662
4.45 0.193608
4.46 0.168345
4.47 0.142892
4.48 0.117264
4.49 0.0914766
4.5 0.0655528
4.51 0.0395254
4.52 0.013439
4.53 -0.0126404
4.54 -0.038635
4.55 -0.064459
4.56 -0.0900153
4.57 -0.115197
4.58 -0.139889
4.59 -0.163915
4.6 -0.187162
4.61 -0.209534
4.62 -0.230919
4.63 -0.251213
4.64 -0.270324
4.65 -0.288154
4.66 -0.304526
4.67 -0.319537
4.68 -0.333173
4.69 -0.345445
4.7 -0.356381
4.71 -0.366035
4.72 -0.374398
4.73 -0.381597
4.74 -0.387795
4.75 -0.393107
4.76 -0.397653
4.77 -0.401556
4.78 -0.404937
4.79 -0.407884
4.8 -0.410562
4.81 -0.413065
4.82 -0.415476
4.83 -0.417861
4.84 -0.420271
4.85 -0.422741
4.86 -0.425286
4.87 -0.427898
4.88 -0.430554
4.89 -0.433221
4.9 -0.435856
4.91 -0.438406
4.92 -0.440791
4.93 -0.442961
4.94 -0.444858
4.95 -0.446428
4.96 -0.447621
4.97 -0.448396
4.98 -0.448698
4.99 -0.448492
5 -0.4478
5.01 -0.446623
5.02 -0.44497
5.03 -0.442858
5.04 -0.440312
5.05 -0.437321
5.06 -0.433956
5.07 -0.430253
5.08 -0.426243
5.09 -0.421953
5.1 -0.417404
5.11 -0.412602
5.12 -0.407546
5.13 -0.402255
5.14 -0.396722
5.15 -0.390933
5.16 -0.384869
5.17 -0.37851
5.18 -0.371802
5.19 -0.364737
5.2 -0.357307
5.21 -0.349496
5.22 -0.341298
5.23 -0.332715
5.24 -0.323751
5.25 -0.314412
5.26 -0.30477
5.27 -0.294879
5.28 -0.284801
5.29 -0.274612
5.3 -0.264393
5.31 -0.25425
5.32 -0.244287
5.33 -0.234601
5.34 -0.225288
5.35 -0.216442
5.36 -0.208146
5.37 -0.200489
5.38 -0.193602
5.39 -0.187467
5.4 -0.182116
5.41 -0.177563
5.42 -0.173808
5.43 -0.170833
5.44 -0.168652
5.45 -0.167198
5.46 -0.166371
5.47 -0.1661
5.48 -0.166307
5.49 -0.16691
5.5 -0.167826
5.51 -0.168987
5.52 -0.170283
5.53 -0.17164
5.54 -0.172995
5.55 -0.17429
5.56 -0.175481
5.57 -0.176519
5.58 -0.177373
5.59 -0.178034
5.6 -0.178491
5.61 -0.178735
5.62 -0.178762
5.63 -0.178569
5.64 -0.178124
5.65 -0.177437
5.66 -0.176495
5.67 -0.175271
5.68 -0.173734
5.69 -0.17184
5.7 -0.169518
5.71 -0.166685
5.72 -0.163305
5.73 -0.159303
5.74 -0.154606
5.75 -0.149138
5.76 -0.142829
5.77 -0.13552
5.78 -0.127224
5.79 -0.117921
5.8 -0.107591
5.81 -0.0962317
5.82 -0.0838626
5.83 -0.0704949
5.84 -0.0561575
5.85 -0.0410226
5.86 -0.0252018
5.87 -0.00882538
5.88 0.00796099
5.89 0.0249995
5.9 0.0421164
5.91 0.0591159
5.92 0.075828
5.93 0.092092
5.94 0.107758
5.95 0.122693
5.96 0.136761
5.97 0.149793
5.98 0.161814
5.99 0.17279
6 0.182718
6.01 0.191619
6.02 0.199544
6.03 0.206502
6.04 0.21263
6.05 0.218078
6.06 0.222968
6.07 0.227427
6.08 0.231582
6.09 0.235556
6.1 0.239467
6.11 0.243423
6.12 0.247499
6.13 0.251743
6.14 0.256181
6.15 0.260808
6.16 0.265603
6.17 0.270493
6.18 0.275383
6.19 0.280163
6.2 0.284704
6.21 0.288865
6.22 0.292496
6.23 0.295345
6.24 0.297328
6.25 0.298302
6.26 0.29814
6.27 0.296732
6.28 0.29399
6.29 0.289779
6.3 0.284047
6.31 0.276889
6.32 0.268338
6.33 0.258457
6.34 0.247335
6.35 0.235086
6.36 0.221753
6.37 0.207599
6.38 0.192798
6.39 0.177519
6.4 0.16193
6.41 0.146194
6.42 0.130469
6.43 0.114917
6.44 0.0996492
6.45 0.0847575
6.46 0.0703106
6.47 0.056352
6.48 0.0429001
6.49 0.0299943
6.5 0.0175633
6.51 0.00554318
6.52 -0.00613442
6.53 -0.0175495
6.54 -0.0287898
6.55 -0.0399462
6.56 -0.0511199
6.57 -0.0623982
6.58 -0.0738516
6.59 -0.0855366
6.6 -0.0974927
6.61 -0.109741
6.62 -0.122303
6.63 -0.135139
6.64 -0.148191
6.65 -0.161394
6.66 -0.174664
6.67 -0.187905
6.68 -0.201002
6.69 -0.213803
6.7 -0.226199
6.71 -0.23807
6.72 -0.249297
6.73 -0.259769
6.74 -0.269385
6.75 -0.277982
6.76 -0.285504
6.77 -0.291941
6.78 -0.297256
6.79 -0.301427
6.8 -0.304448
6.81 -0.30632
6.82 -0.306953
6.83 -0.306505
6.84 -0.305013
6.85 -0.30252
6.86 -0.299069
6.87 -0.294701
6.88 -0.2894
6.89 -0.283204
6.9 -0.276181
6.91 -0.268339
6.92 -0.259675
6.93 -0.250178
6.94 -0.239825
6.95 -0.228478
6.96 -0.216195
6.97 -0.202933
6.98 -0.188647
6.99 -0.173291
7 -0.156824
7.01 -0.139152
7.02 -0.120228
7.03 -0.10012
7.04 -0.07883
7.05 -0.056379
7.06 -0.0328038
7.07 -0.0081585
7.08 0.0175786
7.09 0.0442167
7.1 0.0716333
7.11 0.0997055
7.12 0.128299
7.13 0.15727
7.14 0.18647
7.15 0.215726
7.16 0.244866
7.17 0.273738
7.18 0.302194
7.19 0.330092
7.2 0.357301
7.21 0.383615
7.22 0.408968
7.23 0.433285
7.24 0.456487
7.25 0.478502
7.26 0.499273
7.27 0.518713
7.28 0.536698
7.29 0.553313
7.3 0.568532
7.31 0.582331
7.32 0.594692
7.33 0.605592
7.34 0.614888
7.35 0.62262
7.36 0.628815
7.37 0.633442
7.38 0.636471
7.39 0.637867
7.4 0.637566
7.41 0.635387
7.42 0.631467
7.43 0.625778
7.44 0.618296
7.45 0.609009
7.46 0.597911
7.47 0.584884
7.48 0.569996
7.49 0.553368
7.5 0.535054
7.51 0.515125
7.52 0.493666
7.53 0.470772
7.54 0.446436
7.55 0.420951
7.56 0.394465
7.57 0.367135
7.58 0.339128
7.59 0.310619
7.6 0.281775
7.61 0.252806
7.62 0.223905
7.63 0.195247
7.64 0.167
7.65 0.139323
7.66 0.112366
7.67 0.0863792
7.68 0.0614047
7.69 0.037546
7.7 0.0148964
7.71 -0.00646639
7.72 -0.0264795
7.73 -0.0450267
7.74 -0.0620416
7.75 -0.0776061
7.76 -0.0917182
7.77 -0.104388
7.78 -0.115636
7.79 -0.125495
7.8 -0.133873
7.81 -0.140938
7.82 -0.146771
7.83 -0.151431
7.84 -0.154986
7.85 -0.157504
7.86 -0.159025
7.87 -0.159592
7.88 -0.159356
7.89 -0.158389
7.9 -0.156763
7.91 -0.154545
7.92 -0.151803
7.93 -0.148564
7.94 -0.144922
7.95 -0.140942
7.96 -0.136674
7.97 -0.132161
7.98 -0.127442
7.99 -0.122547
8 -0.117499
8.01 -0.112334
8.02 -0.107073
8.03 -0.101728
8.04 -0.0963109
8.05 -0.0908317
8.06 -0.0852934
8.07 -0.0797056
8.08 -0.0740773
8.09 -0.0684164
8.1 -0.0627327
8.11 -0.0570387
8.12 -0.0513504
8.13 -0.0456922
8.14 -0.0400875
8.15 -0.0345643
8.16 -0.0291546
8.17 -0.0238933
8.18 -0.0188182
8.19 -0.0139868
8.2 -0.00944105
8.21 -0.00520907
8.22 -0.00132827
8.23 0.00216724
8.24 0.005248
8.25 0.00788889
8.26 0.0100222
8.27 0.0116921
8.28 0.0129012
8.29 0.0136616
8.3 0.0139948
8.31 0.0139311
8.32 0.0134924
8.33 0.0127325
8.34 0.0117274
8.35 0.0105364
8.36 0.00922142
8.37 0.00784498
8.38 0.00646827
8.39 0.005161
8.4 0.00397312
8.41 0.00294603
8.42 0.00211175
8.43 0.00149099
8.44 0.00109207
8.45 0.000919138
8.46 0.000954594
8.47 0.00114795
8.48 0.00145191
8.49 0.00180812
8.5 0.00214876
8.51 0.00239851
8.52 0.0024517
8.53 0.00222931
8.54 0.0016521
8.55 0.000640881
8.56 -0.000877372
8.57 -0.00296713
8.58 -0.00570494
8.59 -0.00916788
8.6 -0.013326
8.61 -0.0181865
8.62 -0.0237408
8.63 -0.0299647
8.64 -0.0368192
8.65 -0.0442958
8.66 -0.0522866
8.67 -0.0606971
8.68 -0.0694429
8.69 -0.0784354
8.7 -0.0875845
8.71 -0.0968006
8.72 -0.105987
8.73 -0.115064
8.74 -0.123963
8.75 -0.132629
8.76 -0.141018
8.77 -0.149101
8.78 -0.156836
8.79 -0.164231
8.8 -0.171312
8.81 -0.178103
8.82 -0.184634
8.83 -0.190943
8.84 -0.197073
8.85 -0.203059
8.86 -0.208964
8.87 -0.214826
8.88 -0.220677
8.89 -0.226542
8.9 -0.232435
8.91 -0.23836
8.92 -0.244304
8.93 -0.25024
8.94 -0.256132
8.95 -0.261933
8.96 -0.267586
8.97 -0.273028
8.98 -0.278148
8.99 -0.282901
9 -0.287218
9.01 -0.29103
9.02 -0.294278
9.03 -0.29691
9.04 -0.298848
9.05 -0.300057
9.06 -0.300569
9.07 -0.300389
9.08 -0.29954
9.09 -0.298057
9.1 -0.29599
9.11 -0.293353
9.12 -0.290279
9.13 -0.286855
9.14 -0.283169
9.15 -0.279308
9.16 -0.27536
9.17 -0.271412
9.18 -0.267552
9.19 -0.263843
9.2 -0.260337
9.21 -0.257072
9.22 -0.254072
9.23 -0.251347
9.24 -0.248914
9.25 -0.246731
9.26 -0.244756
9.27 -0.242943
9.28 -0.24124
9.29 -0.239587
9.3 -0.237921
9.31 -0.23617
9.32 -0.234277
9.33 -0.232193
9.34 -0.229877
9.35 -0.227296
9.36 -0.224433
9.37 -0.221257
9.38 -0.217795
9.39 -0.214078
9.4 -0.210145
9.41 -0.206039
9.42 -0.201817
9.43 -0.197538
9.44 -0.193276
9.45 -0.189098
9.46 -0.185065
9.47 -0.181229
9.48 -0.177635
9.49 -0.174316
9.5 -0.17131
9.51 -0.168611
9.52 -0.166187
9.53 -0.164002
9.54 -0.162004
9.55 -0.160126
9.56 -0.158285
9.57 -0.15637
9.58 -0.154273
9.59 -0.151882
9.6 -0.149086
9.61 -0.145772
9.62 -0.141833
9.63 -0.137118
9.64 -0.131533
9.65 -0.125049
9.66 -0.11761
9.67 -0.10918
9.68 -0.0997431
9.69 -0.0892999
9.7 -0.0777628
9.71 -0.0652906
9.72 -0.0519451
9.73 -0.037801
9.74 -0.0229443
9.75 -0.00747014
9.76 0.00854126
9.77 0.0249761
9.78 0.0416986
9.79 0.0586095
9.8 0.075616
9.81 0.0926336
9.82 0.109588
9.83 0.126399
9.84 0.143024
9.85 0.159428
9.86 0.17559
9.87 0.191496
9.88 0.207141
9.89 0.222518
9.9 0.237629
9.91 0.252502
9.92 0.267149
9.93 0.281578
9.94 0.29579
9.95 0.309782
9.96 0.323519
9.97 0.33699
9.98 0.350167
9.99 0.363006
10 0.375454
10.01 0.38745
10.02 0.398908
10.03 0.409712
10.04 0.419833
10.05 0.429198
10.06 0.437736
10.07 0.445384
10.08 0.452089
10.09 0.457722
10.1 0.462302
10.11 0.465853
10.12 0.468383
10.13 0.469918
10.14 0.4705
10.15 0.470173
10.16 0.468958
10.17 0.467036
10.18 0.464509
10.19 0.461491
10.2 0.458099
10.21 0.454453
10.22 0.450671
10.23 0.446887
10.24 0.44321
10.25 0.439734
10.26 0.436539
10.27 0.433689
10.28 0.431234
10.29 0.429247
10.3 0.427687
10.31 0.426542
10.32 0.425778
10.33 0.425348
10.34 0.425187
10.35 0.425227
10.36 0.425366
10.37 0.425499
10.38 0.425527
10.39 0.42535
10.4 0.424869
10.41 0.423991
10.42 0.422564
10.43 0.420556
10.44 0.417904
10.45 0.414551
10.46 0.410457
10.47 0.405591
10.48 0.399895
10.49 0.393349
10.5 0.386014
10.51 0.377906
10.52 0.369048
10.53 0.359471
10.54 0.34921
10.55 0.33824
10.56 0.326662
10.57 0.314525
10.58 0.301868
10.59 0.288727
10.6 0.275136
10.61 0.261114
10.62 0.246675
10.63 0.231878
10.64 0.216745
10.65 0.2013
10.66 0.185561
10.67 0.169552
10.68 0.153272
10.69 0.136764
10.7 0.120061
10.71 0.103192
10.72 0.086189
10.73 0.0690876
10.74 0.0519258
10.75 0.0347496
10.76 0.0176077
10.77 0.000545157
10.78 -0.0163926
10.79 -0.0331609
10.8 -0.0497173
10.81 -0.0659994
10.82 -0.0819787
10.83 -0.0976366
10.84 -0.112951
10.85 -0.127907
10.86 -0.142497
10.87 -0.156716
10.88 -0.170541
10.89 -0.184027
10.9 -0.197196
10.91 -0.210076
10.92 -0.222697
10.93 -0.235094
10.94 -0.247292
10.95 -0.259333
10.96 -0.271258
10.97 -0.283093
10.98 -0.294859
10.99 -0.306572
11 -0.318237
11.01 -0.329846
11.02 -0.341389
11.03 -0.352845
11.04 -0.364179
11.05 -0.375352
11.06 -0.386315
11.07 -0.396994
11.08 -0.407317
11.09 -0.417236
11.1 -0.426684
11.11 -0.435596
11.12 -0.443906
11.13 -0.451552
11.14 -0.458394
11.15 -0.464452
11.16 -0.469691
11.17 -0.474078
11.18 -0.477591
11.19 -0.480213
11.2 -0.4819
11.21 -0.482634
11.22 -0.482491
11.23 -0.481494
11.24 -0.479666
11.25 -0.477039
11.26 -0.473646
11.27 -0.469455
11.28 -0.464565
11.29 -0.459024
11.3 -0.452865
11.31 -0.446119
11.32 -0.438812
11.33 -0.430948
11.34 -0.422523
11.35 -0.413595
11.36 -0.404172
11.37 -0.394259
11.38 -0.383859
11.39 -0.372974
11.4 -0.361562
11.41 -0.349653
11.42 -0.337263
11.43 -0.324398
11.44 -0.311068
11.45 -0.297287
11.46 -0.283064
11.47 -0.268403
11.48 -0.253375
11.49 -0.238023
11.5 -0.222392
11.51 -0.206535
11.52 -0.19051
11.53 -0.174378
11.54 -0.158219
11.55 -0.142106
11.56 -0.126111
11.57 -0.110305
11.58 -0.0947592
11.59 -0.0795465
11.6 -0.0647747
11.61 -0.0504672
11.62 -0.036677
11.63 -0.0234508
11.64 -0.0108282
11.65 0.00115837
11.66 0.0124397
11.67 0.0230076
11.68 0.032889
11.69 0.0420842
11.7 0.0506004
11.71 0.0584514
11.72 0.0656552
11.73 0.0721699
11.74 0.0780994
11.75 0.0834772
11.76 0.0883393
11.77 0.0927239
11.78 0.0966699
11.79 0.100197
11.8 0.103348
11.81 0.106185
11.82 0.108745
11.83 0.11106
11.84 0.113162
11.85 0.115079
11.86 0.11682
11.87 0.118423
11.88 0.119904
11.89 0.121272
11.9 0.122534
11.91 0.12369
11.92 0.124728
11.93 0.125633
11.94 0.126396
11.95 0.126994
11.96 0.127399
11.97 0.127578
11.98 0.127496
11.99 0.127075
12 0.12629
12.01 0.125098
12.02 0.123449
12.03 0.121291
12.04 0.118573
12.05 0.115223
12.06 0.111152
12.07 0.106368
12.08 0.100831
12.09 0.0945072
12.1 0.087369
12.11 0.0793966
12.12 0.0705053
12.13 0.0607402
12.14 0.0501375
12.15 0.038717
12.16 0.0265086
12.17 0.0135522
12.18 -0.000116289
