# xPDFsuite Configuration #
[PDF]
wavelength = 0.1
dataformat = QA
inputfile = BiMsol6_insitu_700 C-00029.xy
backgroundfile = Quartz2mm-dist500-00000.xy
mode = xray
bgscale = 0.0042
composition = Bi2Fe4O9
outputtype = gr
qmaxinst = 24.998449118
qmin = 0.1
qmax = 21.4986662415
rmax = 80.0
rmin = 0.0
rstep = 0.01
rpoly = 0.9

[Misc]
inputdir = C:/Data/Seafile/CPH/Beamtime/Desy Oct 20/In situ data/Processed/BiMsol6/PDF
savedir = C:/Data/Seafile/CPH/Beamtime/Desy Oct 20/In situ data/PDF/BiMsol6
backgroundfilefull = C:/Data/Seafile/CPH/Beamtime/Desy Oct 20/In situ data/Processed/Standard_Empty_Cap/Quartz2mm-dist500-00000.xy

#### start data
#S 1
#L r($\AA$)  G($\AA^{-2}$)
0 0
0.01 0.00653943
0.02 0.0127125
0.03 0.0182056
0.04 0.0227375
0.05 0.0260718
0.06 0.0280284
0.07 0.0284103
0.08 0.0271599
0.09 0.024422
0.1 0.0203156
0.11 0.0150254
0.12 0.00879392
0.13 0.00191037
0.14 -0.00530031
0.15 -0.0124283
0.16 -0.0191281
0.17 -0.0250752
0.18 -0.0299789
0.19 -0.0335961
0.2 -0.035677
0.21 -0.0360506
0.22 -0.0348154
0.23 -0.0320376
0.24 -0.0278624
0.25 -0.0225092
0.26 -0.0162632
0.27 -0.00944833
0.28 -0.00253278
0.29 0.00406698
0.3 0.00994678
0.31 0.0147225
0.32 0.0180486
0.33 0.0195758
0.34 0.0189623
0.35 0.0162597
0.36 0.0114647
0.37 0.00467872
0.38 -0.00389053
0.39 -0.0139324
0.4 -0.0250872
0.41 -0.0367349
0.42 -0.0482673
0.43 -0.0590666
0.44 -0.0684943
0.45 -0.0759148
0.46 -0.0806572
0.47 -0.081859
0.48 -0.0793341
0.49 -0.0727358
0.5 -0.0618407
0.51 -0.0465622
0.52 -0.0269609
0.53 -0.00297786
0.54 0.0248301
0.55 0.0557336
0.56 0.0890538
0.57 0.123999
0.58 0.159686
0.59 0.195155
0.6 0.229178
0.61 0.260809
0.62 0.28909
0.63 0.313127
0.64 0.33212
0.65 0.345387
0.66 0.351976
0.67 0.351516
0.68 0.344204
0.69 0.330068
0.7 0.309321
0.71 0.282354
0.72 0.249724
0.73 0.211671
0.74 0.169692
0.75 0.124765
0.76 0.0779239
0.77 0.0302386
0.78 -0.017219
0.79 -0.0632884
0.8 -0.106814
0.81 -0.147026
0.82 -0.183179
0.83 -0.214667
0.84 -0.241041
0.85 -0.262013
0.86 -0.276902
0.87 -0.28629
0.88 -0.290505
0.89 -0.289945
0.9 -0.285131
0.91 -0.276688
0.92 -0.265239
0.93 -0.251571
0.94 -0.236686
0.95 -0.22136
0.96 -0.206331
0.97 -0.192276
0.98 -0.179794
0.99 -0.169614
1 -0.162007
1.01 -0.157154
1.02 -0.155168
1.03 -0.156038
1.04 -0.159638
1.05 -0.165801
1.06 -0.174286
1.07 -0.184467
1.08 -0.195887
1.09 -0.208066
1.1 -0.220514
1.11 -0.232758
1.12 -0.244273
1.13 -0.254658
1.14 -0.263634
1.15 -0.270974
1.16 -0.276536
1.17 -0.280264
1.18 -0.282158
1.19 -0.282211
1.2 -0.280804
1.21 -0.278194
1.22 -0.274683
1.23 -0.270599
1.24 -0.266282
1.25 -0.262099
1.26 -0.258401
1.27 -0.255448
1.28 -0.253456
1.29 -0.252578
1.3 -0.252903
1.31 -0.254453
1.32 -0.257283
1.33 -0.261118
1.34 -0.265757
1.35 -0.270955
1.36 -0.276424
1.37 -0.281856
1.38 -0.286891
1.39 -0.291172
1.4 -0.294438
1.41 -0.296447
1.42 -0.297004
1.43 -0.295977
1.44 -0.293301
1.45 -0.288809
1.46 -0.28278
1.47 -0.275393
1.48 -0.266884
1.49 -0.257545
1.5 -0.24771
1.51 -0.237758
1.52 -0.228136
1.53 -0.219226
1.54 -0.211389
1.55 -0.204948
1.56 -0.200175
1.57 -0.197285
1.58 -0.196626
1.59 -0.19808
1.6 -0.201567
1.61 -0.206958
1.62 -0.214043
1.63 -0.222537
1.64 -0.232117
1.65 -0.242346
1.66 -0.252697
1.67 -0.262707
1.68 -0.27191
1.69 -0.279856
1.7 -0.28613
1.71 -0.290152
1.72 -0.291722
1.73 -0.290685
1.74 -0.286917
1.75 -0.28038
1.76 -0.271129
1.77 -0.259244
1.78 -0.244839
1.79 -0.228465
1.8 -0.210502
1.81 -0.191376
1.82 -0.171544
1.83 -0.151478
1.84 -0.131703
1.85 -0.112713
1.86 -0.0948988
1.87 -0.0786103
1.88 -0.0641309
1.89 -0.0516708
1.9 -0.0413923
1.91 -0.03353
1.92 -0.0278026
1.93 -0.0240732
1.94 -0.0221341
1.95 -0.0217171
1.96 -0.022505
1.97 -0.0241775
1.98 -0.0262924
1.99 -0.0284374
2 -0.0302566
2.01 -0.0314256
2.02 -0.0316654
2.03 -0.0307487
2.04 -0.0283654
2.05 -0.0245889
2.06 -0.0194342
2.07 -0.0129933
2.08 -0.00543192
2.09 0.00301673
2.1 0.0120737
2.11 0.0213407
2.12 0.0304027
2.13 0.0388614
2.14 0.0463177
2.15 0.0523867
2.16 0.0567126
2.17 0.0587285
2.18 0.0583732
2.19 0.0554896
2.2 0.0499796
2.21 0.0418242
2.22 0.0310844
2.23 0.0177995
2.24 0.00216832
2.25 -0.0153366
2.26 -0.0343605
2.27 -0.0545053
2.28 -0.0753428
2.29 -0.0964286
2.3 -0.117254
2.31 -0.137357
2.32 -0.156346
2.33 -0.173869
2.34 -0.189624
2.35 -0.203373
2.36 -0.214867
2.37 -0.223893
2.38 -0.230628
2.39 -0.235135
2.4 -0.237545
2.41 -0.238047
2.42 -0.236881
2.43 -0.234234
2.44 -0.230537
2.45 -0.226162
2.46 -0.221438
2.47 -0.216687
2.48 -0.212209
2.49 -0.208294
2.5 -0.205251
2.51 -0.203195
2.52 -0.202248
2.53 -0.202477
2.54 -0.203896
2.55 -0.20647
2.56 -0.210186
2.57 -0.214858
2.58 -0.220275
2.59 -0.226244
2.6 -0.232557
2.61 -0.238999
2.62 -0.245352
2.63 -0.251364
2.64 -0.256868
2.65 -0.261711
2.66 -0.265768
2.67 -0.26895
2.68 -0.271203
2.69 -0.272447
2.7 -0.272717
2.71 -0.27212
2.72 -0.270737
2.73 -0.268672
2.74 -0.266045
2.75 -0.262984
2.76 -0.259603
2.77 -0.256077
2.78 -0.252524
2.79 -0.249047
2.8 -0.245731
2.81 -0.242639
2.82 -0.239824
2.83 -0.237303
2.84 -0.235045
2.85 -0.233013
2.86 -0.231152
2.87 -0.229393
2.88 -0.227655
2.89 -0.225836
2.9 -0.223846
2.91 -0.221602
2.92 -0.219029
2.93 -0.216066
2.94 -0.212667
2.95 -0.208783
2.96 -0.204389
2.97 -0.199537
2.98 -0.194258
2.99 -0.188602
3 -0.182632
3.01 -0.176422
3.02 -0.170047
3.03 -0.16361
3.04 -0.157197
3.05 -0.15088
3.06 -0.144725
3.07 -0.13878
3.08 -0.133086
3.09 -0.127672
3.1 -0.122505
3.11 -0.117555
3.12 -0.112772
3.13 -0.108088
3.14 -0.103423
3.15 -0.0986658
3.16 -0.0937063
3.17 -0.0884407
3.18 -0.0827643
3.19 -0.0765775
3.2 -0.0697901
3.21 -0.0623093
3.22 -0.0540118
3.23 -0.044926
3.24 -0.0350333
3.25 -0.0243356
3.26 -0.0128545
3.27 -0.000630473
3.28 0.0123245
3.29 0.025906
3.3 0.0399999
3.31 0.054515
3.32 0.0693575
3.33 0.0844347
3.34 0.0996592
3.35 0.11495
3.36 0.130227
3.37 0.14544
3.38 0.160553
3.39 0.175547
3.4 0.190416
3.41 0.205165
3.42 0.219825
3.43 0.234438
3.44 0.249047
3.45 0.263697
3.46 0.278434
3.47 0.293299
3.48 0.308345
3.49 0.323573
3.5 0.338984
3.51 0.354561
3.52 0.370268
3.53 0.386047
3.54 0.401816
3.55 0.417456
3.56 0.432848
3.57 0.447857
3.58 0.462335
3.59 0.476125
3.6 0.489069
3.61 0.500886
3.62 0.511498
3.63 0.520778
3.64 0.528598
3.65 0.534851
3.66 0.539449
3.67 0.54226
3.68 0.543181
3.69 0.542342
3.7 0.539767
3.71 0.535505
3.72 0.52963
3.73 0.522237
3.74 0.513322
3.75 0.50313
3.76 0.491839
3.77 0.479599
3.78 0.466564
3.79 0.452889
3.8 0.438712
3.81 0.424173
3.82 0.409442
3.83 0.394636
3.84 0.379857
3.85 0.365193
3.86 0.350718
3.87 0.336513
3.88 0.322616
3.89 0.309046
3.9 0.295822
3.91 0.282952
3.92 0.270438
3.93 0.258284
3.94 0.24651
3.95 0.235071
3.96 0.223958
3.97 0.213161
3.98 0.202674
3.99 0.192488
4 0.182618
4.01 0.173052
4.02 0.163772
4.03 0.154771
4.04 0.146042
4.05 0.137577
4.06 0.129363
4.07 0.121405
4.08 0.113654
4.09 0.106084
4.1 0.0986617
4.11 0.0913543
4.12 0.0841244
4.13 0.076933
4.14 0.0697354
4.15 0.0624936
4.16 0.0551749
4.17 0.0477526
4.18 0.0402073
4.19 0.0325283
4.2 0.0247014
4.21 0.0167551
4.22 0.0087158
4.23 0.000620633
4.24 -0.00748206
4.25 -0.015534
4.26 -0.0234589
4.27 -0.0311684
4.28 -0.0385935
4.29 -0.0456559
4.3 -0.0522799
4.31 -0.0583952
4.32 -0.0639398
4.33 -0.0687956
4.34 -0.0729786
4.35 -0.0764812
4.36 -0.0793042
4.37 -0.0814666
4.38 -0.0830056
4.39 -0.0839576
4.4 -0.0843861
4.41 -0.0844248
4.42 -0.0841745
4.43 -0.083744
4.44 -0.0832462
4.45 -0.0827947
4.46 -0.0825234
4.47 -0.0825354
4.48 -0.0829141
4.49 -0.0837318
4.5 -0.0850428
4.51 -0.086881
4.52 -0.0892728
4.53 -0.0922367
4.54 -0.0956852
4.55 -0.0995587
4.56 -0.103778
4.57 -0.108249
4.58 -0.112863
4.59 -0.117496
4.6 -0.122007
4.61 -0.126274
4.62 -0.130181
4.63 -0.13362
4.64 -0.136498
4.65 -0.138726
4.66 -0.140183
4.67 -0.140906
4.68 -0.140889
4.69 -0.140151
4.7 -0.138734
4.71 -0.1367
4.72 -0.134102
4.73 -0.131069
4.74 -0.12774
4.75 -0.124239
4.76 -0.120693
4.77 -0.117229
4.78 -0.113968
4.79 -0.11107
4.8 -0.108602
4.81 -0.106643
4.82 -0.105251
4.83 -0.104463
4.84 -0.104296
4.85 -0.104776
4.86 -0.105871
4.87 -0.107492
4.88 -0.109573
4.89 -0.112031
4.9 -0.114777
4.91 -0.117714
4.92 -0.120741
4.93 -0.123745
4.94 -0.126634
4.95 -0.129328
4.96 -0.13176
4.97 -0.133878
4.98 -0.135627
4.99 -0.136979
5 -0.137961
5.01 -0.138593
5.02 -0.138908
5.03 -0.138951
5.04 -0.138781
5.05 -0.138451
5.06 -0.138052
5.07 -0.137652
5.08 -0.137318
5.09 -0.137108
5.1 -0.137071
5.11 -0.137256
5.12 -0.137699
5.13 -0.138392
5.14 -0.139327
5.15 -0.140484
5.16 -0.141829
5.17 -0.143317
5.18 -0.144897
5.19 -0.146494
5.2 -0.148039
5.21 -0.149466
5.22 -0.150713
5.23 -0.151722
5.24 -0.152434
5.25 -0.152784
5.26 -0.152776
5.27 -0.152399
5.28 -0.151656
5.29 -0.150564
5.3 -0.149152
5.31 -0.147443
5.32 -0.145507
5.33 -0.143413
5.34 -0.141225
5.35 -0.139005
5.36 -0.136817
5.37 -0.134719
5.38 -0.132779
5.39 -0.131022
5.4 -0.129476
5.41 -0.128151
5.42 -0.127046
5.43 -0.126145
5.44 -0.12543
5.45 -0.124848
5.46 -0.124338
5.47 -0.12384
5.48 -0.123289
5.49 -0.122619
5.5 -0.121763
5.51 -0.120626
5.52 -0.119181
5.53 -0.117385
5.54 -0.115211
5.55 -0.112643
5.56 -0.109682
5.57 -0.106325
5.58 -0.102604
5.59 -0.0985913
5.6 -0.0943455
5.61 -0.0899347
5.62 -0.0854341
5.63 -0.0809221
5.64 -0.0764937
5.65 -0.072225
5.66 -0.0681833
5.67 -0.0644267
5.68 -0.061001
5.69 -0.0579377
5.7 -0.055269
5.71 -0.0530017
5.72 -0.0510857
5.73 -0.0494821
5.74 -0.0481378
5.75 -0.046987
5.76 -0.0459537
5.77 -0.0449501
5.78 -0.0438769
5.79 -0.0426479
5.8 -0.0411817
5.81 -0.0394052
5.82 -0.037256
5.83 -0.0346709
5.84 -0.0315927
5.85 -0.028048
5.86 -0.0240464
5.87 -0.0196161
5.88 -0.0148032
5.89 -0.00967042
5.9 -0.00428132
5.91 0.00124974
5.92 0.00681753
5.93 0.0123207
5.94 0.0176582
5.95 0.0227338
5.96 0.0274496
5.97 0.0316899
5.98 0.0354326
5.99 0.038639
6 0.0412902
6.01 0.0433883
6.02 0.0449563
6.03 0.0460061
6.04 0.0466281
6.05 0.0469263
6.06 0.0469978
6.07 0.0469494
6.08 0.0468937
6.09 0.0469476
6.1 0.0472569
6.11 0.0479102
6.12 0.048998
6.13 0.0505956
6.14 0.0527596
6.15 0.0555263
6.16 0.0589486
6.17 0.0630055
6.18 0.067626
6.19 0.07275
6.2 0.0782975
6.21 0.0841715
6.22 0.0902607
6.23 0.0964394
6.24 0.102556
6.25 0.108481
6.26 0.114088
6.27 0.119259
6.28 0.123886
6.29 0.127841
6.3 0.131032
6.31 0.133455
6.32 0.135084
6.33 0.135917
6.34 0.135974
6.35 0.135297
6.36 0.133884
6.37 0.131891
6.38 0.129421
6.39 0.126583
6.4 0.12349
6.41 0.120259
6.42 0.11701
6.43 0.11387
6.44 0.110937
6.45 0.108299
6.46 0.106025
6.47 0.104169
6.48 0.102767
6.49 0.101879
6.5 0.101466
6.51 0.101492
6.52 0.101915
6.53 0.102679
6.54 0.103717
6.55 0.104955
6.56 0.106306
6.57 0.107667
6.58 0.108954
6.59 0.110085
6.6 0.110987
6.61 0.111592
6.62 0.111815
6.63 0.111628
6.64 0.111016
6.65 0.109969
6.66 0.108488
6.67 0.106589
6.68 0.104292
6.69 0.101613
6.7 0.0986358
6.71 0.0954158
6.72 0.0920104
6.73 0.0884792
6.74 0.0848814
6.75 0.0812774
6.76 0.0777271
6.77 0.0742763
6.78 0.0709641
6.79 0.0678217
6.8 0.0648723
6.81 0.0621328
6.82 0.0596321
6.83 0.0573453
6.84 0.055264
6.85 0.0533749
6.86 0.0516603
6.87 0.0500998
6.88 0.0486776
6.89 0.0473668
6.9 0.0461384
6.91 0.0449721
6.92 0.0438498
6.93 0.0427564
6.94 0.0416797
6.95 0.0406107
6.96 0.0395423
6.97 0.0384714
6.98 0.0373968
6.99 0.0363188
7 0.0352378
7.01 0.0341542
7.02 0.0330676
7.03 0.0319756
7.04 0.0308741
7.05 0.0297562
7.06 0.0286127
7.07 0.0274318
7.08 0.0261923
7.09 0.0248807
7.1 0.0234802
7.11 0.0219724
7.12 0.0203397
7.13 0.0185653
7.14 0.0166284
7.15 0.0145102
7.16 0.0122168
7.17 0.00974731
7.18 0.00710593
7.19 0.00430296
7.2 0.0013548
7.21 -0.00172465
7.22 -0.00489426
7.23 -0.00811572
7.24 -0.0113491
7.25 -0.0145506
7.26 -0.0176739
7.27 -0.0206662
7.28 -0.0234621
7.29 -0.0260273
7.3 -0.0283177
7.31 -0.0302937
7.32 -0.0319207
7.33 -0.0331701
7.34 -0.0339875
7.35 -0.0343772
7.36 -0.034351
7.37 -0.0339154
7.38 -0.0330852
7.39 -0.0318841
7.4 -0.0303387
7.41 -0.0284692
7.42 -0.0263566
7.43 -0.0240539
7.44 -0.0216185
7.45 -0.0191107
7.46 -0.0165927
7.47 -0.0141354
7.48 -0.0118076
7.49 -0.00966532
7.5 -0.00776329
7.51 -0.00615148
7.52 -0.00487388
7.53 -0.00397
7.54 -0.00351412
7.55 -0.00348307
7.56 -0.00388697
7.57 -0.00472697
7.58 -0.0059952
7.59 -0.00767491
7.6 -0.00976142
7.61 -0.0122145
7.62 -0.0149692
7.63 -0.0179761
7.64 -0.0211808
7.65 -0.0245241
7.66 -0.027944
7.67 -0.031371
7.68 -0.0347333
7.69 -0.0379681
7.7 -0.0410158
7.71 -0.0438209
7.72 -0.0463334
7.73 -0.0484928
7.74 -0.0502524
7.75 -0.0516125
7.76 -0.0525602
7.77 -0.0530928
7.78 -0.0532185
7.79 -0.0529559
7.8 -0.0523024
7.81 -0.0513333
7.82 -0.0501045
7.83 -0.0486738
7.84 -0.0471042
7.85 -0.0454632
7.86 -0.0438227
7.87 -0.0422646
7.88 -0.0408544
7.89 -0.0396534
7.9 -0.0387158
7.91 -0.0380871
7.92 -0.0378021
7.93 -0.037917
7.94 -0.0384171
7.95 -0.0392837
7.96 -0.0404943
7.97 -0.0420122
7.98 -0.0437877
7.99 -0.0457623
8 -0.0478616
8.01 -0.0499871
8.02 -0.0520523
8.03 -0.0539688
8.04 -0.055649
8.05 -0.0570093
8.06 -0.0579367
8.07 -0.0583739
8.08 -0.0582867
8.09 -0.0576413
8.1 -0.0564208
8.11 -0.0546275
8.12 -0.0522756
8.13 -0.0493686
8.14 -0.0460276
8.15 -0.0423343
8.16 -0.0383857
8.17 -0.0342909
8.18 -0.030168
8.19 -0.0261561
8.2 -0.0223969
8.21 -0.019006
8.22 -0.0160968
8.23 -0.0137711
8.24 -0.0121151
8.25 -0.011199
8.26 -0.0111578
8.27 -0.0119218
8.28 -0.0134811
8.29 -0.0158002
8.3 -0.0188186
8.31 -0.0224518
8.32 -0.0266149
8.33 -0.0311625
8.34 -0.0359209
8.35 -0.0407366
8.36 -0.0454508
8.37 -0.0499045
8.38 -0.053943
8.39 -0.0573462
8.4 -0.0600307
8.41 -0.0618951
8.42 -0.0628566
8.43 -0.0628585
8.44 -0.0618721
8.45 -0.0598541
8.46 -0.0568175
8.47 -0.0528985
8.48 -0.0481884
8.49 -0.0428017
8.5 -0.0368722
8.51 -0.0305488
8.52 -0.0239846
8.53 -0.0173814
8.54 -0.0109068
8.55 -0.00471771
8.56 0.001041
8.57 0.00624058
8.58 0.0107466
8.59 0.0144296
8.6 0.0172952
8.61 0.0193201
8.62 0.0205093
8.63 0.0208951
8.64 0.020536
8.65 0.0194651
8.66 0.0178386
8.67 0.0157979
8.68 0.0134759
8.69 0.0110107
8.7 0.00854136
8.71 0.00620854
8.72 0.00417074
8.73 0.00252095
8.74 0.00134851
8.75 0.000721573
8.76 0.000685069
8.77 0.00125945
8.78 0.00248422
8.79 0.0043015
8.8 0.00662916
8.81 0.00939025
8.82 0.0124914
8.83 0.0158266
8.84 0.0192813
8.85 0.0227221
8.86 0.026022
8.87 0.0290701
8.88 0.0317663
8.89 0.0340242
8.9 0.0357748
8.91 0.0369303
8.92 0.0374692
8.93 0.0374207
8.94 0.0368066
8.95 0.0356695
8.96 0.0340708
8.97 0.0320879
8.98 0.02979
8.99 0.0273222
9 0.0247911
9.01 0.022304
9.02 0.019964
9.03 0.0178667
9.04 0.016118
9.05 0.0147997
9.06 0.0139383
9.07 0.0135626
9.08 0.0136818
9.09 0.0142847
9.1 0.0153409
9.11 0.0168385
9.12 0.0186648
9.13 0.0207354
9.14 0.0229608
9.15 0.0252462
9.16 0.0274952
9.17 0.0296036
9.18 0.031464
9.19 0.0330109
9.2 0.0341805
9.21 0.0349243
9.22 0.0352108
9.23 0.0350262
9.24 0.0343324
9.25 0.0331924
9.26 0.0316597
9.27 0.0297922
9.28 0.0276599
9.29 0.025342
9.3 0.0229236
9.31 0.0205039
9.32 0.0181764
9.33 0.0160222
9.34 0.0141141
9.35 0.0125142
9.36 0.0112716
9.37 0.010455
9.38 0.0100614
9.39 0.0100753
9.4 0.0104776
9.41 0.0112343
9.42 0.0122979
9.43 0.013613
9.44 0.0151153
9.45 0.0167066
9.46 0.0183093
9.47 0.0198465
9.48 0.0212449
9.49 0.0224381
9.5 0.0233457
9.51 0.0239252
9.52 0.0241588
9.53 0.0240312
9.54 0.0235417
9.55 0.0227038
9.56 0.0215418
9.57 0.0200738
9.58 0.0183861
9.59 0.0165387
9.6 0.0145967
9.61 0.0126277
9.62 0.010699
9.63 0.00888534
9.64 0.00725256
9.65 0.00584298
9.66 0.00469507
9.67 0.00383587
9.68 0.00328013
9.69 0.00303001
9.7 0.00310672
9.71 0.00345027
9.72 0.00402489
9.73 0.00478683
9.74 0.00568594
9.75 0.00666784
9.76 0.00767477
9.77 0.00864285
9.78 0.00951989
9.79 0.0102608
9.8 0.0108282
9.81 0.0111944
9.82 0.0113421
9.83 0.0112422
9.84 0.0109238
9.85 0.0104094
9.86 0.00972902
9.87 0.00892166
9.88 0.00803355
9.89 0.00711756
9.9 0.00623753
9.91 0.00545057
9.92 0.0048101
9.93 0.00436513
9.94 0.00415825
9.95 0.00422374
9.96 0.00461508
9.97 0.00532461
9.98 0.00634378
9.99 0.00765929
10 0.00924634
10.01 0.0110694
10.02 0.0130872
10.03 0.0152466
10.04 0.0174709
10.05 0.0196962
10.06 0.0218572
10.07 0.0238897
10.08 0.0257331
10.09 0.0273079
10.1 0.0285729
10.11 0.0295008
10.12 0.0300658
10.13 0.0302536
10.14 0.0300614
10.15 0.0294919
10.16 0.0285408
10.17 0.0272776
10.18 0.0257443
10.19 0.0239897
10.2 0.022068
10.21 0.0200371
10.22 0.0179568
10.23 0.0158947
10.24 0.0139077
10.25 0.0120457
10.26 0.0103525
10.27 0.00886421
10.28 0.00761013
10.29 0.00663573
10.3 0.00592136
10.31 0.00546428
10.32 0.00525308
10.33 0.00526842
10.34 0.0054841
10.35 0.00587605
10.36 0.00640149
10.37 0.00701165
10.38 0.00766616
10.39 0.00832523
10.4 0.00895094
10.41 0.00950842
10.42 0.00995272
10.43 0.0102673
10.44 0.0104336
10.45 0.0104386
10.46 0.0102748
10.47 0.00994049
10.48 0.00943129
10.49 0.00875391
10.5 0.00793242
10.51 0.00698239
10.52 0.00592133
10.53 0.00476785
10.54 0.00354089
10.55 0.00225517
10.56 0.000934519
10.57 -0.000404797
10.58 -0.00174925
10.59 -0.00308736
10.6 -0.00440968
10.61 -0.00570754
10.62 -0.00697313
10.63 -0.00820397
10.64 -0.0093963
10.65 -0.0105466
10.66 -0.011651
10.67 -0.012705
10.68 -0.0136975
10.69 -0.0146242
10.7 -0.0154781
10.71 -0.0162493
10.72 -0.0169267
10.73 -0.0174983
10.74 -0.0179484
10.75 -0.0182549
10.76 -0.0184177
10.77 -0.0184274
10.78 -0.0182771
10.79 -0.0179631
10.8 -0.0174852
10.81 -0.0168354
10.82 -0.0160315
10.83 -0.0150943
10.84 -0.0140436
10.85 -0.0129043
10.86 -0.011705
10.87 -0.0104785
10.88 -0.0092656
10.89 -0.00810622
10.9 -0.00703846
10.91 -0.00609976
10.92 -0.00532557
10.93 -0.00474812
10.94 -0.00441219
10.95 -0.00433761
10.96 -0.004527
10.97 -0.00498651
10.98 -0.00571426
10.99 -0.00670004
11 -0.00792634
11.01 -0.00938555
11.02 -0.0110152
11.03 -0.0127731
11.04 -0.0146114
11.05 -0.0164787
11.06 -0.0183208
11.07 -0.0200747
11.08 -0.0216777
11.09 -0.0230838
11.1 -0.0242463
11.11 -0.0251241
11.12 -0.0256833
11.13 -0.0258981
11.14 -0.0257106
11.15 -0.0251522
11.16 -0.0242302
11.17 -0.0229593
11.18 -0.0213631
11.19 -0.0194739
11.2 -0.017322
11.21 -0.0149561
11.22 -0.0124456
11.23 -0.00984586
11.24 -0.00721326
11.25 -0.00460412
11.26 -0.00207289
11.27 0.000311769
11.28 0.00250997
11.29 0.0044855
11.3 0.00620693
11.31 0.00765066
11.32 0.00880139
11.33 0.00964166
11.34 0.0101604
11.35 0.0103937
11.36 0.0103602
11.37 0.0100845
11.38 0.00959691
11.39 0.00893126
11.4 0.00811541
11.41 0.00720083
11.42 0.00622962
11.43 0.00523858
11.44 0.0042619
11.45 0.00333024
11.46 0.00247213
11.47 0.00171721
11.48 0.00107258
11.49 0.000546639
11.5 0.00014209
11.51 -0.00014382
11.52 -0.000318871
11.53 -0.000388948
11.54 -0.000376352
11.55 -0.00030434
11.56 -0.000193963
11.57 -6.69565e-05
11.58 5.52103e-05
11.59 0.000151659
11.6 0.000198269
11.61 0.000183512
11.62 9.64273e-05
11.63 -6.99357e-05
11.64 -0.000318242
11.65 -0.000646764
11.66 -0.00105364
11.67 -0.00152542
11.68 -0.00204354
11.69 -0.0025901
11.7 -0.00314487
11.71 -0.00368598
11.72 -0.00419064
11.73 -0.00462698
11.74 -0.00497839
11.75 -0.00522549
11.76 -0.00535159
11.77 -0.00534338
11.78 -0.00519142
11.79 -0.00488239
11.8 -0.00441543
11.81 -0.00380538
11.82 -0.0030625
