# xPDFsuite Configuration #
[PDF]
wavelength = 0.1
dataformat = QA
inputfile = BiMsol6_insitu_700 C-00479.xy
backgroundfile = Quartz2mm-dist500-00000.xy
mode = xray
bgscale = 0.0042
composition = Bi2Fe4O9
outputtype = gr
qmaxinst = 24.998449118
qmin = 0.1
qmax = 21.4986662415
rmax = 80.0
rmin = 0.0
rstep = 0.01
rpoly = 0.9

[Misc]
inputdir = C:/Data/Seafile/CPH/Beamtime/Desy Oct 20/In situ data/Processed/BiMsol6/PDF
savedir = C:/Data/Seafile/CPH/Beamtime/Desy Oct 20/In situ data/PDF/BiMsol6
backgroundfilefull = C:/Data/Seafile/CPH/Beamtime/Desy Oct 20/In situ data/Processed/Standard_Empty_Cap/Quartz2mm-dist500-00000.xy

#### start data
#S 1
#L r($\AA$)  G($\AA^{-2}$)
0 0
0.01 0.00685167
0.02 0.0133209
0.03 0.0190801
0.04 0.0238354
0.05 0.0273392
0.06 0.0294025
0.07 0.0298176
0.08 0.028522
0.09 0.0256648
0.1 0.0213675
0.11 0.0158202
0.12 0.00927336
0.13 0.00202637
0.14 -0.00558599
0.15 -0.0131353
0.16 -0.0202607
0.17 -0.0266231
0.18 -0.0319171
0.19 -0.0358857
0.2 -0.0382645
0.21 -0.0388689
0.22 -0.0377942
0.23 -0.035102
0.24 -0.0309362
0.25 -0.0255176
0.26 -0.0191362
0.27 -0.0121183
0.28 -0.00494864
0.29 0.00194191
0.3 0.00813437
0.31 0.0132286
0.32 0.0168625
0.33 0.0186689
0.34 0.0182856
0.35 0.0157529
0.36 0.0110552
0.37 0.00428483
0.38 -0.00435711
0.39 -0.0145629
0.4 -0.0259798
0.41 -0.0379776
0.42 -0.0499362
0.43 -0.0612256
0.44 -0.0711919
0.45 -0.0791814
0.46 -0.0845029
0.47 -0.0862683
0.48 -0.0842683
0.49 -0.0781341
0.5 -0.0676206
0.51 -0.0526215
0.52 -0.03318
0.53 -0.00921202
0.54 0.0187334
0.55 0.0499266
0.56 0.0836899
0.57 0.119228
0.58 0.155651
0.59 0.191987
0.6 0.227001
0.61 0.259711
0.62 0.289136
0.63 0.314357
0.64 0.334544
0.65 0.348988
0.66 0.356705
0.67 0.357292
0.68 0.350925
0.69 0.33761
0.7 0.317541
0.71 0.291096
0.72 0.258822
0.73 0.220935
0.74 0.17895
0.75 0.133855
0.76 0.0866944
0.77 0.0385516
0.78 -0.00948153
0.79 -0.0562259
0.8 -0.100499
0.81 -0.141497
0.82 -0.178449
0.83 -0.210723
0.84 -0.237843
0.85 -0.259501
0.86 -0.274984
0.87 -0.284864
0.88 -0.289461
0.89 -0.289165
0.9 -0.284496
0.91 -0.276084
0.92 -0.264555
0.93 -0.25071
0.94 -0.235578
0.95 -0.219956
0.96 -0.204605
0.97 -0.190233
0.98 -0.177464
0.99 -0.167063
1 -0.159328
1.01 -0.154465
1.02 -0.152607
1.03 -0.153761
1.04 -0.157819
1.05 -0.164627
1.06 -0.17396
1.07 -0.185173
1.08 -0.197803
1.09 -0.211355
1.1 -0.225322
1.11 -0.239208
1.12 -0.252466
1.13 -0.264658
1.14 -0.275466
1.15 -0.28463
1.16 -0.291971
1.17 -0.297399
1.18 -0.300878
1.19 -0.302355
1.2 -0.302194
1.21 -0.300632
1.22 -0.297949
1.23 -0.294463
1.24 -0.290505
1.25 -0.286424
1.26 -0.282582
1.27 -0.279261
1.28 -0.276693
1.29 -0.275053
1.3 -0.274455
1.31 -0.274951
1.32 -0.27662
1.33 -0.279234
1.34 -0.282631
1.35 -0.286596
1.36 -0.290878
1.37 -0.295201
1.38 -0.299242
1.39 -0.302673
1.4 -0.305248
1.41 -0.306738
1.42 -0.306963
1.43 -0.305793
1.44 -0.303165
1.45 -0.298925
1.46 -0.293318
1.47 -0.286506
1.48 -0.278703
1.49 -0.270175
1.5 -0.261229
1.51 -0.252212
1.52 -0.243534
1.53 -0.235542
1.54 -0.228563
1.55 -0.222889
1.56 -0.218765
1.57 -0.216377
1.58 -0.216036
1.59 -0.217617
1.6 -0.221034
1.61 -0.226152
1.62 -0.232761
1.63 -0.240585
1.64 -0.249305
1.65 -0.258499
1.66 -0.267681
1.67 -0.276415
1.68 -0.28427
1.69 -0.290833
1.7 -0.295727
1.71 -0.298421
1.72 -0.298756
1.73 -0.296615
1.74 -0.291911
1.75 -0.284641
1.76 -0.274887
1.77 -0.262764
1.78 -0.248423
1.79 -0.232401
1.8 -0.215084
1.81 -0.196893
1.82 -0.178277
1.83 -0.15969
1.84 -0.14165
1.85 -0.124609
1.86 -0.108914
1.87 -0.094874
1.88 -0.0827323
1.89 -0.0726555
1.9 -0.064762
1.91 -0.0592353
1.92 -0.0557558
1.93 -0.0541508
1.94 -0.0541824
1.95 -0.0555575
1.96 -0.057941
1.97 -0.0609871
1.98 -0.0642548
1.99 -0.0673484
2 -0.0699254
2.01 -0.0716819
2.02 -0.0723655
2.03 -0.0717802
2.04 -0.0696485
2.05 -0.0660947
2.06 -0.0611741
2.07 -0.0550185
2.08 -0.0478312
2.09 -0.0398797
2.1 -0.0314824
2.11 -0.0230638
2.12 -0.0150434
2.13 -0.00782541
2.14 -0.00180582
2.15 0.00264227
2.16 0.00518352
2.17 0.005269
2.18 0.00289265
2.19 -0.00205735
2.2 -0.00962996
2.21 -0.0197921
2.22 -0.032429
2.23 -0.0474384
2.24 -0.0645582
2.25 -0.0832832
2.26 -0.10322
2.27 -0.123941
2.28 -0.144998
2.29 -0.165935
2.3 -0.186211
2.31 -0.205411
2.32 -0.223179
2.33 -0.239201
2.34 -0.253229
2.35 -0.265082
2.36 -0.274577
2.37 -0.281587
2.38 -0.28637
2.39 -0.289069
2.4 -0.28989
2.41 -0.289096
2.42 -0.28699
2.43 -0.283857
2.44 -0.280154
2.45 -0.276269
2.46 -0.272549
2.47 -0.269316
2.48 -0.266859
2.49 -0.265447
2.5 -0.265372
2.51 -0.266647
2.52 -0.269324
2.53 -0.273393
2.54 -0.278784
2.55 -0.285372
2.56 -0.293046
2.57 -0.301521
2.58 -0.310507
2.59 -0.319737
2.6 -0.328936
2.61 -0.337838
2.62 -0.346178
2.63 -0.353632
2.64 -0.360075
2.65 -0.365364
2.66 -0.369399
2.67 -0.372126
2.68 -0.373542
2.69 -0.373611
2.7 -0.372452
2.71 -0.370263
2.72 -0.367202
2.73 -0.363453
2.74 -0.359208
2.75 -0.354666
2.76 -0.350031
2.77 -0.345509
2.78 -0.341255
2.79 -0.337397
2.8 -0.334028
2.81 -0.331209
2.82 -0.328991
2.83 -0.327359
2.84 -0.326217
2.85 -0.325476
2.86 -0.325023
2.87 -0.324724
2.88 -0.32443
2.89 -0.323955
2.9 -0.323147
2.91 -0.321863
2.92 -0.319977
2.93 -0.317381
2.94 -0.313993
2.95 -0.309721
2.96 -0.30451
2.97 -0.298436
2.98 -0.291535
2.99 -0.283867
3 -0.275512
3.01 -0.266566
3.02 -0.257095
3.03 -0.247251
3.04 -0.237145
3.05 -0.226862
3.06 -0.216473
3.07 -0.206024
3.08 -0.195535
3.09 -0.184991
3.1 -0.174349
3.11 -0.163535
3.12 -0.152448
3.13 -0.140964
3.14 -0.128938
3.15 -0.116142
3.16 -0.102431
3.17 -0.0876677
3.18 -0.0717061
3.19 -0.0544171
3.2 -0.0356976
3.21 -0.015445
3.22 0.00648797
3.23 0.029934
3.24 0.0548259
3.25 0.0810497
3.26 0.108446
3.27 0.136811
3.28 0.165934
3.29 0.195472
3.3 0.225083
3.31 0.254438
3.32 0.283198
3.33 0.311025
3.34 0.337571
3.35 0.362335
3.36 0.385181
3.37 0.405867
3.38 0.424193
3.39 0.440003
3.4 0.453193
3.41 0.463543
3.42 0.471081
3.43 0.476016
3.44 0.478457
3.45 0.478553
3.46 0.476492
3.47 0.472488
3.48 0.466611
3.49 0.459331
3.5 0.450907
3.51 0.441593
3.52 0.431632
3.53 0.42125
3.54 0.410647
3.55 0.400024
3.56 0.389531
3.57 0.379277
3.58 0.369337
3.59 0.359759
3.6 0.350561
3.61 0.341777
3.62 0.33334
3.63 0.325203
3.64 0.317315
3.65 0.309622
3.66 0.302073
3.67 0.294627
3.68 0.287251
3.69 0.279925
3.7 0.272658
3.71 0.265475
3.72 0.258424
3.73 0.251574
3.74 0.245046
3.75 0.23894
3.76 0.233365
3.77 0.228449
3.78 0.22432
3.79 0.221108
3.8 0.218967
3.81 0.218089
3.82 0.218471
3.83 0.220185
3.84 0.223277
3.85 0.227769
3.86 0.233658
3.87 0.241019
3.88 0.249716
3.89 0.259611
3.9 0.270589
3.91 0.282519
3.92 0.295248
3.93 0.308625
3.94 0.322492
3.95 0.336615
3.96 0.350821
3.97 0.36494
3.98 0.378814
3.99 0.392296
4 0.405204
4.01 0.417423
4.02 0.428883
4.03 0.439508
4.04 0.449238
4.05 0.458031
4.06 0.465853
4.07 0.47259
4.08 0.47835
4.09 0.483141
4.1 0.486977
4.11 0.489876
4.12 0.491857
4.13 0.492885
4.14 0.492979
4.15 0.492201
4.16 0.490555
4.17 0.488043
4.18 0.484658
4.19 0.480391
4.2 0.475125
4.21 0.46894
4.22 0.461821
4.23 0.453752
4.24 0.444718
4.25 0.434708
4.26 0.423668
4.27 0.411581
4.28 0.398521
4.29 0.384507
4.3 0.369562
4.31 0.353719
4.32 0.337019
4.33 0.319429
4.34 0.30108
4.35 0.282041
4.36 0.262373
4.37 0.242138
4.38 0.221398
4.39 0.200202
4.4 0.178601
4.41 0.156687
4.42 0.134514
4.43 0.11213
4.44 0.0895843
4.45 0.0669191
4.46 0.0441728
4.47 0.0213946
4.48 -0.00137458
4.49 -0.0240951
4.5 -0.0467256
4.51 -0.0692221
4.52 -0.0915306
4.53 -0.113577
4.54 -0.13532
4.55 -0.156698
4.56 -0.177642
4.57 -0.198081
4.58 -0.21794
4.59 -0.237084
4.6 -0.255452
4.61 -0.272996
4.62 -0.289642
4.63 -0.305325
4.64 -0.319986
4.65 -0.33356
4.66 -0.345912
4.67 -0.357129
4.68 -0.367206
4.69 -0.376152
4.7 -0.38399
4.71 -0.390762
4.72 -0.396456
4.73 -0.401173
4.74 -0.405045
4.75 -0.408166
4.76 -0.410635
4.77 -0.412559
4.78 -0.414043
4.79 -0.415174
4.8 -0.416102
4.81 -0.416923
4.82 -0.417727
4.83 -0.418591
4.84 -0.419583
4.85 -0.420767
4.86 -0.422186
4.87 -0.423849
4.88 -0.42576
4.89 -0.42791
4.9 -0.430279
4.91 -0.432833
4.92 -0.435538
4.93 -0.438322
4.94 -0.441125
4.95 -0.443883
4.96 -0.446533
4.97 -0.44901
4.98 -0.451236
4.99 -0.453138
5 -0.454678
5.01 -0.455808
5.02 -0.456486
5.03 -0.456675
5.04 -0.456345
5.05 -0.455415
5.06 -0.453912
5.07 -0.45183
5.08 -0.449162
5.09 -0.445902
5.1 -0.442045
5.11 -0.437569
5.12 -0.432445
5.13 -0.426722
5.14 -0.420402
5.15 -0.413484
5.16 -0.405971
5.17 -0.397867
5.18 -0.389124
5.19 -0.379787
5.2 -0.369883
5.21 -0.359429
5.22 -0.348445
5.23 -0.336958
5.24 -0.324988
5.25 -0.312551
5.26 -0.299737
5.27 -0.2866
5.28 -0.273198
5.29 -0.259596
5.3 -0.245861
5.31 -0.232067
5.32 -0.218298
5.33 -0.204628
5.34 -0.191129
5.35 -0.177867
5.36 -0.164903
5.37 -0.152299
5.38 -0.140143
5.39 -0.128434
5.4 -0.117198
5.41 -0.106452
5.42 -0.0962042
5.43 -0.0864525
5.44 -0.0772175
5.45 -0.0684706
5.46 -0.0601622
5.47 -0.0522634
5.48 -0.0447432
5.49 -0.0375701
5.5 -0.0307144
5.51 -0.0241786
5.52 -0.0179059
5.53 -0.0118809
5.54 -0.00609519
5.55 -0.000547526
5.56 0.0047558
5.57 0.00978606
5.58 0.0145177
5.59 0.0189404
5.6 0.0230245
5.61 0.0267384
5.62 0.0300507
5.63 0.0329325
5.64 0.0353076
5.65 0.0372026
5.66 0.0386137
5.67 0.0395433
5.68 0.040005
5.69 0.0400244
5.7 0.0396239
5.71 0.0388523
5.72 0.0378028
5.73 0.0365496
5.74 0.0351747
5.75 0.0337661
5.76 0.0324153
5.77 0.0312381
5.78 0.0303226
5.79 0.0297491
5.8 0.0295926
5.81 0.0299173
5.82 0.0307743
5.83 0.0322193
5.84 0.0343027
5.85 0.0369747
5.86 0.0402164
5.87 0.0439926
5.88 0.0482525
5.89 0.0529318
5.9 0.0579768
5.91 0.063272
5.92 0.0687154
5.93 0.0742134
5.94 0.0796738
5.95 0.0850093
5.96 0.0901338
5.97 0.0949506
5.98 0.099428
5.99 0.103529
6 0.107232
6.01 0.110534
6.02 0.113447
6.03 0.115978
6.04 0.11819
6.05 0.120159
6.06 0.121954
6.07 0.123653
6.08 0.125335
6.09 0.127082
6.1 0.128995
6.11 0.131132
6.12 0.133552
6.13 0.136299
6.14 0.139402
6.15 0.142873
6.16 0.146726
6.17 0.150925
6.18 0.155404
6.19 0.160095
6.2 0.164917
6.21 0.169775
6.22 0.174564
6.23 0.179135
6.24 0.183382
6.25 0.187187
6.26 0.190436
6.27 0.193025
6.28 0.194857
6.29 0.195804
6.3 0.19578
6.31 0.1948
6.32 0.192838
6.33 0.189891
6.34 0.185975
6.35 0.181126
6.36 0.175311
6.37 0.168692
6.38 0.161364
6.39 0.153423
6.4 0.144974
6.41 0.136122
6.42 0.12697
6.43 0.117632
6.44 0.108228
6.45 0.0988514
6.46 0.0895828
6.47 0.0804924
6.48 0.0716373
6.49 0.06309
6.5 0.054861
6.51 0.0469564
6.52 0.0393765
6.53 0.0321104
6.54 0.0251378
6.55 0.018438
6.56 0.0119855
6.57 0.00572049
6.58 -0.000394651
6.59 -0.00639624
6.6 -0.0123172
6.61 -0.0181854
6.62 -0.0240212
6.63 -0.0298406
6.64 -0.0356482
6.65 -0.0414394
6.66 -0.047201
6.67 -0.0529121
6.68 -0.058542
6.69 -0.0640424
6.7 -0.0693808
6.71 -0.0745131
6.72 -0.0793933
6.73 -0.0839748
6.74 -0.0882119
6.75 -0.0920295
6.76 -0.095393
6.77 -0.0982847
6.78 -0.100674
6.79 -0.102537
6.8 -0.103852
6.81 -0.104603
6.82 -0.104723
6.83 -0.104269
6.84 -0.103245
6.85 -0.101655
6.86 -0.099507
6.87 -0.0968102
6.88 -0.0935434
6.89 -0.0897227
6.9 -0.0853889
6.91 -0.0805525
6.92 -0.0752226
6.93 -0.0694075
6.94 -0.0631143
6.95 -0.0562954
6.96 -0.0490093
6.97 -0.0412622
6.98 -0.033059
6.99 -0.0244058
7 -0.0153098
7.01 -0.00575894
7.02 0.00423989
7.03 0.0146426
7.04 0.0254304
7.05 0.0365813
7.06 0.0480694
7.07 0.0598653
7.08 0.0719607
7.09 0.0842905
7.1 0.0968111
7.11 0.109481
7.12 0.122255
7.13 0.13509
7.14 0.147937
7.15 0.160743
7.16 0.173462
7.17 0.186049
7.18 0.198461
7.19 0.210653
7.2 0.222586
7.21 0.234188
7.22 0.245435
7.23 0.256297
7.24 0.266737
7.25 0.276718
7.26 0.286203
7.27 0.295137
7.28 0.303444
7.29 0.31113
7.3 0.318154
7.31 0.324475
7.32 0.330048
7.33 0.334828
7.34 0.338698
7.35 0.341644
7.36 0.343649
7.37 0.34467
7.38 0.344664
7.39 0.343591
7.4 0.341396
7.41 0.337949
7.42 0.333337
7.43 0.327542
7.44 0.320554
7.45 0.312371
7.46 0.303
7.47 0.292375
7.48 0.280554
7.49 0.26763
7.5 0.253649
7.51 0.238667
7.52 0.22275
7.53 0.205968
7.54 0.18833
7.55 0.170021
7.56 0.15114
7.57 0.131788
7.58 0.112073
7.59 0.0921058
7.6 0.0719991
7.61 0.0518859
7.62 0.0318891
7.63 0.0121238
7.64 -0.00729671
7.65 -0.0262615
7.66 -0.0446633
7.67 -0.0623141
7.68 -0.0791795
7.69 -0.0951741
7.7 -0.110217
7.71 -0.124235
7.72 -0.137166
7.73 -0.148898
7.74 -0.159361
7.75 -0.168607
7.76 -0.176619
7.77 -0.183396
7.78 -0.188948
7.79 -0.193296
7.8 -0.196363
7.81 -0.198304
7.82 -0.199199
7.83 -0.199119
7.84 -0.198148
7.85 -0.196373
7.86 -0.193869
7.87 -0.190724
7.88 -0.187095
7.89 -0.183086
7.9 -0.178798
7.91 -0.174327
7.92 -0.169764
7.93 -0.165197
7.94 -0.160708
7.95 -0.156354
7.96 -0.152184
7.97 -0.14823
7.98 -0.144514
7.99 -0.141049
8 -0.137844
8.01 -0.134859
8.02 -0.132063
8.03 -0.129419
8.04 -0.126885
8.05 -0.124413
8.06 -0.121952
8.07 -0.119446
8.08 -0.116853
8.09 -0.114134
8.1 -0.111258
8.11 -0.108206
8.12 -0.104964
8.13 -0.10152
8.14 -0.0979085
8.15 -0.0941584
8.16 -0.0903087
8.17 -0.086408
8.18 -0.0825129
8.19 -0.0786952
8.2 -0.0750296
8.21 -0.0715789
8.22 -0.0684072
8.23 -0.065573
8.24 -0.0631269
8.25 -0.0611101
8.26 -0.0596014
8.27 -0.0585595
8.28 -0.0579761
8.29 -0.0578264
8.3 -0.0580685
8.31 -0.0586445
8.32 -0.0594906
8.33 -0.0605058
8.34 -0.061575
8.35 -0.0625908
8.36 -0.0634416
8.37 -0.0640151
8.38 -0.0642022
8.39 -0.0638363
8.4 -0.0628678
8.41 -0.0612252
8.42 -0.0588506
8.43 -0.0557047
8.44 -0.0517692
8.45 -0.0470132
8.46 -0.0414491
8.47 -0.0351862
8.48 -0.0282975
8.49 -0.0208742
8.5 -0.0130227
8.51 -0.00486194
8.52 0.00348494
8.53 0.0118556
8.54 0.0201136
8.55 0.0281301
8.56 0.035784
8.57 0.0429656
8.58 0.0495578
8.59 0.0554434
8.6 0.0606181
8.61 0.0650497
8.62 0.0687277
8.63 0.0716619
8.64 0.0738822
8.65 0.075384
8.66 0.076279
8.67 0.0766661
8.68 0.0766325
8.69 0.0762702
8.7 0.0756723
8.71 0.0749278
8.72 0.0741259
8.73 0.0733498
8.74 0.0726573
8.75 0.0720905
8.76 0.071675
8.77 0.0714184
8.78 0.0713193
8.79 0.0713381
8.8 0.0714203
8.81 0.0715039
8.82 0.0715157
8.83 0.071374
8.84 0.0709882
8.85 0.0702286
8.86 0.069037
8.87 0.0673342
8.88 0.0650506
8.89 0.0621282
8.9 0.0585233
8.91 0.0541613
8.92 0.0490416
8.93 0.0432127
8.94 0.0367026
8.95 0.0295554
8.96 0.021829
8.97 0.0135932
8.98 0.00488804
8.99 -0.00414173
9 -0.0134064
9.01 -0.022817
9.02 -0.0322882
9.03 -0.0417412
9.04 -0.0510981
9.05 -0.0602921
9.06 -0.0692872
9.07 -0.0780554
9.08 -0.0865824
9.09 -0.0948679
9.1 -0.102924
9.11 -0.110755
9.12 -0.118419
9.13 -0.125958
9.14 -0.133416
9.15 -0.140835
9.16 -0.148257
9.17 -0.15572
9.18 -0.163254
9.19 -0.170871
9.2 -0.178569
9.21 -0.186336
9.22 -0.194144
9.23 -0.20195
9.24 -0.209686
9.25 -0.217277
9.26 -0.224643
9.27 -0.231695
9.28 -0.238339
9.29 -0.244479
9.3 -0.250001
9.31 -0.254766
9.32 -0.258749
9.33 -0.261884
9.34 -0.264118
9.35 -0.265414
9.36 -0.265752
9.37 -0.265052
9.38 -0.263386
9.39 -0.260824
9.4 -0.25742
9.41 -0.253242
9.42 -0.248371
9.43 -0.242883
9.44 -0.236846
9.45 -0.23041
9.46 -0.223667
9.47 -0.216703
9.48 -0.209594
9.49 -0.202404
9.5 -0.195184
9.51 -0.187969
9.52 -0.180774
9.53 -0.173592
9.54 -0.1664
9.55 -0.15916
9.56 -0.151818
9.57 -0.144282
9.58 -0.136489
9.59 -0.128359
9.6 -0.119808
9.61 -0.110756
9.62 -0.101129
9.63 -0.0908162
9.64 -0.0797634
9.65 -0.0679707
9.66 -0.0554204
9.67 -0.042113
9.68 -0.0280682
9.69 -0.013325
9.7 0.0021245
9.71 0.0181225
9.72 0.0345741
9.73 0.0513735
9.74 0.0684058
9.75 0.0855502
9.76 0.102676
9.77 0.119641
9.78 0.136332
9.79 0.152641
9.8 0.168471
9.81 0.18374
9.82 0.198379
9.83 0.212263
9.84 0.225418
9.85 0.23784
9.86 0.249532
9.87 0.26051
9.88 0.270804
9.89 0.280428
9.9 0.289416
9.91 0.297869
9.92 0.305839
9.93 0.313377
9.94 0.32053
9.95 0.327336
9.96 0.333797
9.97 0.339955
9.98 0.345821
9.99 0.351386
10 0.35663
10.01 0.36152
10.02 0.366004
10.03 0.369996
10.04 0.373475
10.05 0.376383
10.06 0.378659
10.07 0.380249
10.08 0.381101
10.09 0.381108
10.1 0.380274
10.11 0.378614
10.12 0.376127
10.13 0.372833
10.14 0.368764
10.15 0.36396
10.16 0.358443
10.17 0.352366
10.18 0.345827
10.19 0.33893
10.2 0.331786
10.21 0.324511
10.22 0.31723
10.23 0.310072
10.24 0.303143
10.25 0.29654
10.26 0.290348
10.27 0.284637
10.28 0.279466
10.29 0.274934
10.3 0.270994
10.31 0.26764
10.32 0.26485
10.33 0.262583
10.34 0.260784
10.35 0.259399
10.36 0.258332
10.37 0.257465
10.38 0.2567
10.39 0.255932
10.4 0.255057
10.41 0.253973
10.42 0.252537
10.43 0.250684
10.44 0.248335
10.45 0.24542
10.46 0.241881
10.47 0.237673
10.48 0.232726
10.49 0.227006
10.5 0.220554
10.51 0.213378
10.52 0.205493
10.53 0.196924
10.54 0.187705
10.55 0.177814
10.56 0.167356
10.57 0.156385
10.58 0.14495
10.59 0.133101
10.6 0.120885
10.61 0.108339
10.62 0.0955003
10.63 0.0824346
10.64 0.0691792
10.65 0.055768
10.66 0.0422321
10.67 0.0285994
10.68 0.014891
10.69 0.00113704
10.7 -0.01264
10.71 -0.0264206
10.72 -0.0401866
10.73 -0.0539205
10.74 -0.0676034
10.75 -0.0812128
10.76 -0.0947372
10.77 -0.108161
10.78 -0.121471
10.79 -0.134651
10.8 -0.14769
10.81 -0.160563
10.82 -0.173266
10.83 -0.185797
10.84 -0.198152
10.85 -0.210327
10.86 -0.222322
10.87 -0.234136
10.88 -0.245757
10.89 -0.25721
10.9 -0.268501
10.91 -0.279637
10.92 -0.290626
10.93 -0.301473
10.94 -0.312176
10.95 -0.322741
10.96 -0.333174
10.97 -0.34347
10.98 -0.353624
10.99 -0.363624
11 -0.373452
11.01 -0.383065
11.02 -0.392455
11.03 -0.401593
11.04 -0.410443
11.05 -0.418968
11.06 -0.427128
11.07 -0.434853
11.08 -0.442092
11.09 -0.448827
11.1 -0.455014
11.11 -0.460611
11.12 -0.46558
11.13 -0.469886
11.14 -0.473416
11.15 -0.476215
11.16 -0.478266
11.17 -0.479554
11.18 -0.480068
11.19 -0.479803
11.2 -0.478724
11.21 -0.476818
11.22 -0.47415
11.23 -0.470736
11.24 -0.466592
11.25 -0.461738
11.26 -0.456196
11.27 -0.449926
11.28 -0.443009
11.29 -0.435482
11.3 -0.427369
11.31 -0.418693
11.32 -0.409478
11.33 -0.399727
11.34 -0.389442
11.35 -0.378684
11.36 -0.367472
11.37 -0.355823
11.38 -0.343754
11.39 -0.331282
11.4 -0.31839
11.41 -0.305122
11.42 -0.291504
11.43 -0.277554
11.44 -0.26329
11.45 -0.248731
11.46 -0.23389
11.47 -0.218774
11.48 -0.203429
11.49 -0.187877
11.5 -0.172141
11.51 -0.156244
11.52 -0.140211
11.53 -0.124058
11.54 -0.107818
11.55 -0.0915184
11.56 -0.0751851
11.57 -0.0588426
11.58 -0.0425159
11.59 -0.0262315
11.6 -0.0100245
11.61 0.00608317
11.62 0.0220642
11.63 0.0378904
11.64 0.0535322
11.65 0.0689593
11.66 0.0841215
11.67 0.0989847
11.68 0.113527
11.69 0.127715
11.7 0.141512
11.71 0.154882
11.72 0.167789
11.73 0.180138
11.74 0.191949
11.75 0.203192
11.76 0.213839
11.77 0.223863
11.78 0.233243
11.79 0.241926
11.8 0.249892
11.81 0.257176
11.82 0.263778
11.83 0.269702
11.84 0.274957
11.85 0.279557
11.86 0.283454
11.87 0.286736
11.88 0.289433
11.89 0.291573
11.9 0.293182
11.91 0.294289
11.92 0.294898
11.93 0.295023
11.94 0.294715
11.95 0.293988
11.96 0.29285
11.97 0.291302
11.98 0.289338
11.99 0.286902
12 0.284006
12.01 0.280629
12.02 0.276739
12.03 0.272296
12.04 0.267258
12.05 0.261556
12.06 0.2551
12.07 0.247899
12.08 0.239906
12.09 0.23108
12.1 0.221384
12.11 0.210788
12.12 0.19919
12.13 0.186627
12.14 0.173129
12.15 0.158709
12.16 0.143392
12.17 0.127215
