# xPDFsuite Configuration #
[PDF]
wavelength = 0.1
dataformat = QA
inputfile = BiMsol6_insitu_700 C-00548.xy
backgroundfile = Quartz2mm-dist500-00000.xy
mode = xray
bgscale = 0.0042
composition = Bi2Fe4O9
outputtype = gr
qmaxinst = 24.998449118
qmin = 0.1
qmax = 21.4986662415
rmax = 80.0
rmin = 0.0
rstep = 0.01
rpoly = 0.9

[Misc]
inputdir = C:/Data/Seafile/CPH/Beamtime/Desy Oct 20/In situ data/Processed/BiMsol6/PDF
savedir = C:/Data/Seafile/CPH/Beamtime/Desy Oct 20/In situ data/PDF/BiMsol6
backgroundfilefull = C:/Data/Seafile/CPH/Beamtime/Desy Oct 20/In situ data/Processed/Standard_Empty_Cap/Quartz2mm-dist500-00000.xy

#### start data
#S 1
#L r($\AA$)  G($\AA^{-2}$)
0 0
0.01 0.00589714
0.02 0.0114549
0.03 0.0163829
0.04 0.020421
0.05 0.0233515
0.06 0.0250089
0.07 0.0252132
0.08 0.0239143
0.09 0.0212493
0.1 0.0173319
0.11 0.0123373
0.12 0.00649343
0.13 7.1697e-05
0.14 -0.00662101
0.15 -0.0132061
0.16 -0.0193634
0.17 -0.0247937
0.18 -0.0292304
0.19 -0.0324529
0.2 -0.0342355
0.21 -0.0344289
0.22 -0.0331351
0.23 -0.0304262
0.24 -0.0264485
0.25 -0.021417
0.26 -0.0156079
0.27 -0.00933888
0.28 -0.00305005
0.29 0.00286679
0.3 0.00803231
0.31 0.0120887
0.32 0.0147174
0.33 0.0155977
0.34 0.0144198
0.35 0.0112518
0.36 0.00610832
0.37 -0.000895856
0.38 -0.00954465
0.39 -0.0195242
0.4 -0.0304662
0.41 -0.0417672
0.42 -0.0528379
0.43 -0.0630793
0.44 -0.0718755
0.45 -0.0786165
0.46 -0.0826595
0.47 -0.0831751
0.48 -0.0800069
0.49 -0.0728355
0.5 -0.0614614
0.51 -0.0458193
0.52 -0.0259859
0.53 -0.00192478
0.54 0.0258058
0.55 0.0564843
0.56 0.0894394
0.57 0.123893
0.58 0.15898
0.59 0.193763
0.6 0.227039
0.61 0.2579
0.62 0.285421
0.63 0.308741
0.64 0.327088
0.65 0.339811
0.66 0.345994
0.67 0.345287
0.68 0.337897
0.69 0.32386
0.7 0.303393
0.71 0.276882
0.72 0.244877
0.73 0.207616
0.74 0.166555
0.75 0.122647
0.76 0.0768945
0.77 0.0303343
0.78 -0.0159948
0.79 -0.0609695
0.8 -0.103472
0.81 -0.14276
0.82 -0.178113
0.83 -0.208947
0.84 -0.234826
0.85 -0.255475
0.86 -0.270232
0.87 -0.279661
0.88 -0.284077
0.89 -0.283863
0.9 -0.279519
0.91 -0.271648
0.92 -0.260848
0.93 -0.247877
0.94 -0.233704
0.95 -0.219078
0.96 -0.204713
0.97 -0.191268
0.98 -0.179324
0.99 -0.169592
1 -0.162343
1.01 -0.157766
1.02 -0.155978
1.03 -0.156984
1.04 -0.160678
1.05 -0.166913
1.06 -0.175481
1.07 -0.185783
1.08 -0.197392
1.09 -0.209853
1.1 -0.222702
1.11 -0.235485
1.12 -0.247708
1.13 -0.258971
1.14 -0.268991
1.15 -0.277534
1.16 -0.284443
1.17 -0.28964
1.18 -0.293098
1.19 -0.294775
1.2 -0.295001
1.21 -0.293987
1.22 -0.291989
1.23 -0.289288
1.24 -0.286177
1.25 -0.282962
1.26 -0.279957
1.27 -0.277403
1.28 -0.275493
1.29 -0.274369
1.3 -0.274117
1.31 -0.274767
1.32 -0.276363
1.33 -0.278696
1.34 -0.281609
1.35 -0.284901
1.36 -0.288343
1.37 -0.291687
1.38 -0.294638
1.39 -0.296915
1.4 -0.298317
1.41 -0.298659
1.42 -0.297799
1.43 -0.295647
1.44 -0.292173
1.45 -0.287271
1.46 -0.281193
1.47 -0.274112
1.48 -0.266246
1.49 -0.257856
1.5 -0.249237
1.51 -0.240724
1.52 -0.2327
1.53 -0.225466
1.54 -0.219313
1.55 -0.214495
1.56 -0.211217
1.57 -0.209627
1.58 -0.209988
1.59 -0.212149
1.6 -0.215999
1.61 -0.221387
1.62 -0.228091
1.63 -0.235832
1.64 -0.24429
1.65 -0.253053
1.66 -0.261668
1.67 -0.269727
1.68 -0.27683
1.69 -0.282599
1.7 -0.286693
1.71 -0.288622
1.72 -0.288264
1.73 -0.285531
1.74 -0.280361
1.75 -0.272768
1.76 -0.262848
1.77 -0.250722
1.78 -0.236545
1.79 -0.220827
1.8 -0.203929
1.81 -0.186247
1.82 -0.168195
1.83 -0.150189
1.84 -0.132703
1.85 -0.116144
1.86 -0.100822
1.87 -0.0870099
1.88 -0.0749219
1.89 -0.0647012
1.9 -0.0564474
1.91 -0.0503182
1.92 -0.0460214
1.93 -0.0433995
1.94 -0.0422386
1.95 -0.0422784
1.96 -0.0432242
1.97 -0.0447772
1.98 -0.0465567
1.99 -0.048224
2 -0.0494917
2.01 -0.050109
2.02 -0.0498725
2.03 -0.0486312
2.04 -0.0461796
2.05 -0.0426356
2.06 -0.0380689
2.07 -0.0326143
2.08 -0.0264673
2.09 -0.0198764
2.1 -0.013145
2.11 -0.00665248
2.12 -0.000752797
2.13 0.00420433
2.14 0.00788066
2.15 0.00996267
2.16 0.010174
2.17 0.0080376
2.18 0.00359327
2.19 -0.00322919
2.2 -0.0124451
2.21 -0.0239977
2.22 -0.037759
2.23 -0.0536128
2.24 -0.071302
2.25 -0.0903621
2.26 -0.110431
2.27 -0.131118
2.28 -0.152018
2.29 -0.172725
2.3 -0.192748
2.31 -0.211726
2.32 -0.229349
2.33 -0.24534
2.34 -0.259481
2.35 -0.271614
2.36 -0.281574
2.37 -0.28924
2.38 -0.294844
2.39 -0.298504
2.4 -0.300394
2.41 -0.300733
2.42 -0.299777
2.43 -0.297748
2.44 -0.295045
2.45 -0.291999
2.46 -0.288907
2.47 -0.286044
2.48 -0.283661
2.49 -0.28199
2.5 -0.28128
2.51 -0.281576
2.52 -0.282943
2.53 -0.285395
2.54 -0.288901
2.55 -0.293389
2.56 -0.2988
2.57 -0.304936
2.58 -0.311587
2.59 -0.318566
2.6 -0.325675
2.61 -0.332721
2.62 -0.339514
2.63 -0.345824
2.64 -0.35154
2.65 -0.356545
2.66 -0.360755
2.67 -0.364114
2.68 -0.3666
2.69 -0.368164
2.7 -0.368864
2.71 -0.36881
2.72 -0.368086
2.73 -0.36679
2.74 -0.365029
2.75 -0.362913
2.76 -0.360534
2.77 -0.35803
2.78 -0.355486
2.79 -0.352974
2.8 -0.350549
2.81 -0.348247
2.82 -0.346092
2.83 -0.34408
2.84 -0.342181
2.85 -0.340359
2.86 -0.338568
2.87 -0.336755
2.88 -0.334864
2.89 -0.332819
2.9 -0.330574
2.91 -0.328088
2.92 -0.325326
2.93 -0.322263
2.94 -0.318887
2.95 -0.315185
2.96 -0.311157
2.97 -0.306848
2.98 -0.302282
2.99 -0.297487
3 -0.292487
3.01 -0.287304
3.02 -0.281933
3.03 -0.276385
3.04 -0.270644
3.05 -0.26467
3.06 -0.258408
3.07 -0.251779
3.08 -0.244668
3.09 -0.236912
3.1 -0.228417
3.11 -0.219038
3.12 -0.208623
3.13 -0.197019
3.14 -0.184078
3.15 -0.169524
3.16 -0.153301
3.17 -0.135364
3.18 -0.115647
3.19 -0.0941185
3.2 -0.0707829
3.21 -0.0456494
3.22 -0.0186927
3.23 0.00978206
3.24 0.0395987
3.25 0.070545
3.26 0.102376
3.27 0.134819
3.28 0.167579
3.29 0.200293
3.3 0.232629
3.31 0.26427
3.32 0.294907
3.33 0.324248
3.34 0.352002
3.35 0.377723
3.36 0.401383
3.37 0.422817
3.38 0.441901
3.39 0.458549
3.4 0.472717
3.41 0.484245
3.42 0.493194
3.43 0.49977
3.44 0.504074
3.45 0.506227
3.46 0.506367
3.47 0.504646
3.48 0.501043
3.49 0.495926
3.5 0.489453
3.51 0.481769
3.52 0.47301
3.53 0.463299
3.54 0.452708
3.55 0.441331
3.56 0.4293
3.57 0.416679
3.58 0.403524
3.59 0.389883
3.6 0.375801
3.61 0.361282
3.62 0.346417
3.63 0.331262
3.64 0.315879
3.65 0.300342
3.66 0.284736
3.67 0.269164
3.68 0.25376
3.69 0.238647
3.7 0.223961
3.71 0.209847
3.72 0.196454
3.73 0.183932
3.74 0.172539
3.75 0.162361
3.76 0.153503
3.77 0.14608
3.78 0.14019
3.79 0.135912
3.8 0.133349
3.81 0.132636
3.82 0.133627
3.83 0.136299
3.84 0.140607
3.85 0.146486
3.86 0.153852
3.87 0.162709
3.88 0.172863
3.89 0.184141
3.9 0.196418
3.91 0.209565
3.92 0.223455
3.93 0.237976
3.94 0.253043
3.95 0.268494
3.96 0.284238
3.97 0.300195
3.98 0.316294
3.99 0.332477
4 0.348688
4.01 0.364876
4.02 0.380997
4.03 0.397009
4.04 0.41287
4.05 0.42853
4.06 0.443933
4.07 0.458974
4.08 0.473606
4.09 0.487741
4.1 0.501281
4.11 0.514118
4.12 0.526136
4.13 0.537144
4.14 0.546998
4.15 0.555622
4.16 0.562889
4.17 0.568679
4.18 0.572881
4.19 0.575397
4.2 0.57594
4.21 0.574638
4.22 0.571464
4.23 0.566409
4.24 0.559485
4.25 0.550729
4.26 0.540119
4.27 0.52772
4.28 0.513757
4.29 0.498352
4.3 0.481636
4.31 0.463752
4.32 0.444841
4.33 0.424974
4.34 0.40438
4.35 0.3832
4.36 0.361552
4.37 0.339537
4.38 0.317241
4.39 0.294727
4.4 0.272041
4.41 0.24923
4.42 0.226305
4.43 0.203265
4.44 0.1801
4.45 0.156791
4.46 0.133297
4.47 0.109603
4.48 0.0856957
4.49 0.0615646
4.5 0.0372102
4.51 0.0126468
4.52 -0.0120992
4.53 -0.0369803
4.54 -0.0619116
4.55 -0.0868062
4.56 -0.111561
4.57 -0.13606
4.58 -0.160174
4.59 -0.183714
4.6 -0.206542
4.61 -0.228537
4.62 -0.249564
4.63 -0.269494
4.64 -0.288215
4.65 -0.305606
4.66 -0.321465
4.67 -0.335875
4.68 -0.348812
4.69 -0.360276
4.7 -0.370291
4.71 -0.378908
4.72 -0.386112
4.73 -0.39204
4.74 -0.39687
4.75 -0.400727
4.76 -0.403749
4.77 -0.406075
4.78 -0.407845
4.79 -0.409169
4.8 -0.410236
4.81 -0.411162
4.82 -0.412053
4.83 -0.412995
4.84 -0.41406
4.85 -0.415311
4.86 -0.416783
4.87 -0.418476
4.88 -0.420384
4.89 -0.422485
4.9 -0.424745
4.91 -0.42712
4.92 -0.429558
4.93 -0.43199
4.94 -0.434354
4.95 -0.436594
4.96 -0.438653
4.97 -0.440479
4.98 -0.442013
4.99 -0.443205
5 -0.444043
5.01 -0.444508
5.02 -0.444582
5.03 -0.444255
5.04 -0.443521
5.05 -0.442336
5.06 -0.440733
5.07 -0.438716
5.08 -0.436282
5.09 -0.433425
5.1 -0.430136
5.11 -0.426385
5.12 -0.422131
5.13 -0.417389
5.14 -0.412136
5.15 -0.406346
5.16 -0.399996
5.17 -0.393063
5.18 -0.385475
5.19 -0.377257
5.2 -0.368424
5.21 -0.358987
5.22 -0.348965
5.23 -0.338393
5.24 -0.327308
5.25 -0.31575
5.26 -0.303844
5.27 -0.291679
5.28 -0.279356
5.29 -0.266982
5.3 -0.254672
5.31 -0.242567
5.32 -0.23079
5.33 -0.219447
5.34 -0.208641
5.35 -0.198465
5.36 -0.189
5.37 -0.180321
5.38 -0.172552
5.39 -0.165636
5.4 -0.159574
5.41 -0.154352
5.42 -0.149934
5.43 -0.146271
5.44 -0.143335
5.45 -0.141025
5.46 -0.139217
5.47 -0.137817
5.48 -0.136728
5.49 -0.135858
5.5 -0.135117
5.51 -0.134421
5.52 -0.133691
5.53 -0.132872
5.54 -0.131925
5.55 -0.130825
5.56 -0.129561
5.57 -0.128128
5.58 -0.126545
5.59 -0.124849
5.6 -0.123075
5.61 -0.121262
5.62 -0.119449
5.63 -0.117671
5.64 -0.115968
5.65 -0.114355
5.66 -0.112838
5.67 -0.111409
5.68 -0.110044
5.69 -0.108704
5.7 -0.107331
5.71 -0.10584
5.72 -0.104147
5.73 -0.102156
5.74 -0.0997666
5.75 -0.0968716
5.76 -0.0933666
5.77 -0.0890739
5.78 -0.0839496
5.79 -0.0779349
5.8 -0.0709745
5.81 -0.0630339
5.82 -0.0541016
5.83 -0.0441603
5.84 -0.0332103
5.85 -0.0214052
5.86 -0.00884055
5.87 0.00436598
5.88 0.018078
5.89 0.0321438
5.9 0.0464024
5.91 0.0606529
5.92 0.074721
5.93 0.0884431
5.94 0.101666
5.95 0.114252
5.96 0.126064
5.97 0.136933
5.98 0.146872
5.99 0.155846
6 0.163847
6.01 0.170898
6.02 0.177046
6.03 0.182308
6.04 0.18682
6.05 0.190731
6.06 0.194166
6.07 0.197256
6.08 0.200132
6.09 0.202924
6.1 0.205765
6.11 0.208759
6.12 0.211987
6.13 0.215506
6.14 0.219346
6.15 0.223514
6.16 0.228004
6.17 0.232752
6.18 0.237663
6.19 0.242634
6.2 0.247546
6.21 0.252264
6.22 0.256644
6.23 0.260461
6.24 0.263611
6.25 0.265951
6.26 0.267351
6.27 0.267695
6.28 0.266888
6.29 0.264787
6.3 0.261324
6.31 0.256563
6.32 0.250513
6.33 0.243208
6.34 0.234707
6.35 0.225091
6.36 0.214364
6.37 0.202752
6.38 0.190394
6.39 0.177427
6.4 0.163988
6.41 0.150212
6.42 0.136227
6.43 0.122166
6.44 0.108149
6.45 0.0942659
6.46 0.0805911
6.47 0.0671815
6.48 0.0540768
6.49 0.0413319
6.5 0.0289285
6.51 0.0168493
6.52 0.00507348
6.53 -0.00642855
6.54 -0.017692
6.55 -0.0287502
6.56 -0.0396377
6.57 -0.0504063
6.58 -0.0610858
6.59 -0.0716991
6.6 -0.0822605
6.61 -0.0927752
6.62 -0.103233
6.63 -0.113617
6.64 -0.123904
6.65 -0.134059
6.66 -0.144041
6.67 -0.153803
6.68 -0.163289
6.69 -0.172415
6.7 -0.181158
6.71 -0.189468
6.72 -0.1973
6.73 -0.204612
6.74 -0.211368
6.75 -0.217493
6.76 -0.222978
6.77 -0.22783
6.78 -0.232037
6.79 -0.235588
6.8 -0.238478
6.81 -0.240693
6.82 -0.24216
6.83 -0.242942
6.84 -0.243027
6.85 -0.242398
6.86 -0.241034
6.87 -0.238909
6.88 -0.23594
6.89 -0.232086
6.9 -0.227351
6.91 -0.221687
6.92 -0.215049
6.93 -0.20739
6.94 -0.198664
6.95 -0.188702
6.96 -0.177592
6.97 -0.165312
6.98 -0.151853
6.99 -0.137213
7 -0.121406
7.01 -0.104405
7.02 -0.0862425
7.03 -0.0670558
7.04 -0.046919
7.05 -0.0259194
7.06 -0.00415493
7.07 0.018267
7.08 0.041276
7.09 0.0646915
7.1 0.0883854
7.11 0.112238
7.12 0.136133
7.13 0.159961
7.14 0.183608
7.15 0.206957
7.16 0.229945
7.17 0.2525
7.18 0.274564
7.19 0.29609
7.2 0.317037
7.21 0.337319
7.22 0.356949
7.23 0.375924
7.24 0.394227
7.25 0.41184
7.26 0.428744
7.27 0.444891
7.28 0.460199
7.29 0.474692
7.3 0.48832
7.31 0.501021
7.32 0.512728
7.33 0.523361
7.34 0.532733
7.35 0.540792
7.36 0.547484
7.37 0.552711
7.38 0.556379
7.39 0.558396
7.4 0.558651
7.41 0.556913
7.42 0.553304
7.43 0.547784
7.44 0.540336
7.45 0.530959
7.46 0.519674
7.47 0.506399
7.48 0.491251
7.49 0.474408
7.5 0.455977
7.51 0.436084
7.52 0.414869
7.53 0.392476
7.54 0.368981
7.55 0.344679
7.56 0.319741
7.57 0.294336
7.58 0.268632
7.59 0.24279
7.6 0.216974
7.61 0.191349
7.62 0.166043
7.63 0.141174
7.64 0.116848
7.65 0.0931603
7.66 0.0701914
7.67 0.0481081
7.68 0.0268909
7.69 0.00658511
7.7 -0.0127672
7.71 -0.0311304
7.72 -0.0484739
7.73 -0.06472
7.74 -0.0798197
7.75 -0.093826
7.76 -0.106722
7.77 -0.118492
7.78 -0.129124
7.79 -0.13861
7.8 -0.146826
7.81 -0.153873
7.82 -0.159774
7.83 -0.164542
7.84 -0.1682
7.85 -0.170776
7.86 -0.172271
7.87 -0.172697
7.88 -0.172196
7.89 -0.170832
7.9 -0.168682
7.91 -0.165824
7.92 -0.162345
7.93 -0.158295
7.94 -0.153806
7.95 -0.148984
7.96 -0.143914
7.97 -0.138678
7.98 -0.133349
7.99 -0.127994
8 -0.122676
8.01 -0.117438
8.02 -0.11231
8.03 -0.10731
8.04 -0.102444
8.05 -0.0977104
8.06 -0.0931029
8.07 -0.0885935
8.08 -0.0841509
8.09 -0.0797459
8.1 -0.0753488
8.11 -0.0709322
8.12 -0.0664716
8.13 -0.0619434
8.14 -0.0573458
8.15 -0.0526819
8.16 -0.0479651
8.17 -0.0432197
8.18 -0.0384804
8.19 -0.0337986
8.2 -0.0292351
8.21 -0.0248477
8.22 -0.0207009
8.23 -0.01686
8.24 -0.0133887
8.25 -0.0103478
8.26 -0.00784691
8.27 -0.00587441
8.28 -0.00445555
8.29 -0.0036007
8.3 -0.00330404
8.31 -0.00354286
8.32 -0.00430203
8.33 -0.00551613
8.34 -0.0070804
8.35 -0.00890722
8.36 -0.0108992
8.37 -0.0129523
8.38 -0.0149593
8.39 -0.0167856
8.4 -0.018336
8.41 -0.0195213
8.42 -0.0202641
8.43 -0.0205034
8.44 -0.020197
8.45 -0.0192986
8.46 -0.0177986
8.47 -0.015769
8.48 -0.0132639
8.49 -0.0103586
8.5 -0.00714776
8.51 -0.00374272
8.52 -0.000274378
8.53 0.00310217
8.54 0.00624715
8.55 0.00902306
8.56 0.0112982
8.57 0.0129511
8.58 0.0138466
8.59 0.0138466
8.6 0.0129519
8.61 0.0111254
8.62 0.00835539
8.63 0.0046559
8.64 6.61617e-05
8.65 -0.00541526
8.66 -0.0116423
8.67 -0.018483
8.68 -0.025816
8.69 -0.0335109
8.7 -0.0414323
8.71 -0.0494438
8.72 -0.057396
8.73 -0.0651647
8.74 -0.0726464
8.75 -0.0797554
8.76 -0.0864263
8.77 -0.0926161
8.78 -0.0982673
8.79 -0.103406
8.8 -0.108083
8.81 -0.112353
8.82 -0.116284
8.83 -0.119961
8.84 -0.123474
8.85 -0.126932
8.86 -0.130449
8.87 -0.13412
8.88 -0.138032
8.89 -0.142259
8.9 -0.146857
8.91 -0.151893
8.92 -0.157378
8.93 -0.16328
8.94 -0.169566
8.95 -0.176181
8.96 -0.183052
8.97 -0.190089
8.98 -0.197181
8.99 -0.204196
9 -0.211013
9.01 -0.217515
9.02 -0.223585
9.03 -0.229121
9.04 -0.233991
9.05 -0.238106
9.06 -0.241458
9.07 -0.24402
9.08 -0.24579
9.09 -0.246788
9.1 -0.247057
9.11 -0.246601
9.12 -0.245579
9.13 -0.244102
9.14 -0.242282
9.15 -0.24024
9.16 -0.238097
9.17 -0.23598
9.18 -0.234018
9.19 -0.232306
9.2 -0.230923
9.21 -0.22993
9.22 -0.229368
9.23 -0.229252
9.24 -0.229617
9.25 -0.230392
9.26 -0.231512
9.27 -0.232902
9.28 -0.234471
9.29 -0.236118
9.3 -0.237726
9.31 -0.239158
9.32 -0.240309
9.33 -0.241073
9.34 -0.241357
9.35 -0.241081
9.36 -0.240184
9.37 -0.238566
9.38 -0.236244
9.39 -0.233246
9.4 -0.229602
9.41 -0.225362
9.42 -0.220595
9.43 -0.215377
9.44 -0.209789
9.45 -0.203977
9.46 -0.198048
9.47 -0.192105
9.48 -0.186245
9.49 -0.180556
9.5 -0.17513
9.51 -0.170018
9.52 -0.165237
9.53 -0.16079
9.54 -0.156661
9.55 -0.152807
9.56 -0.149166
9.57 -0.145657
9.58 -0.142153
9.59 -0.138537
9.6 -0.134684
9.61 -0.130464
9.62 -0.125747
9.63 -0.120362
9.64 -0.114184
9.65 -0.10715
9.66 -0.0991806
9.67 -0.0902167
9.68 -0.0802229
9.69 -0.0691875
9.7 -0.057009
9.71 -0.0438502
9.72 -0.0297789
9.73 -0.0148817
9.74 0.000737723
9.75 0.0169615
9.76 0.0336788
9.77 0.0507398
9.78 0.067979
9.79 0.0852645
9.8 0.102471
9.81 0.119485
9.82 0.136206
9.83 0.152503
9.84 0.168339
9.85 0.183676
9.86 0.198489
9.87 0.212771
9.88 0.226529
9.89 0.239767
9.9 0.252508
9.91 0.264833
9.92 0.276789
9.93 0.288423
9.94 0.299781
9.95 0.3109
9.96 0.321793
9.97 0.332493
9.98 0.343006
9.99 0.35332
10 0.363407
10.01 0.373225
10.02 0.38271
10.03 0.391762
10.04 0.400333
10.05 0.408341
10.06 0.415701
10.07 0.42233
10.08 0.428149
10.09 0.43301
10.1 0.43689
10.11 0.439781
10.12 0.441658
10.13 0.442518
10.14 0.442375
10.15 0.441251
10.16 0.439138
10.17 0.43621
10.18 0.432565
10.19 0.428314
10.2 0.42358
10.21 0.418492
10.22 0.41318
10.23 0.407803
10.24 0.402498
10.25 0.397387
10.26 0.392579
10.27 0.388167
10.28 0.384231
10.29 0.380887
10.3 0.378109
10.31 0.375906
10.32 0.374263
10.33 0.373144
10.34 0.372494
10.35 0.372258
10.36 0.37233
10.37 0.372585
10.38 0.372911
10.39 0.373191
10.4 0.373305
10.41 0.373138
10.42 0.372519
10.43 0.371378
10.44 0.369625
10.45 0.367181
10.46 0.36398
10.47 0.359972
10.48 0.355079
10.49 0.349264
10.5 0.342582
10.51 0.335046
10.52 0.326679
10.53 0.317514
10.54 0.307594
10.55 0.2969
10.56 0.285552
10.57 0.273616
10.58 0.261149
10.59 0.248204
10.6 0.234832
10.61 0.22107
10.62 0.206952
10.63 0.192545
10.64 0.177883
10.65 0.162993
10.66 0.1479
10.67 0.132626
10.68 0.117175
10.69 0.101577
10.7 0.0858543
10.71 0.0700227
10.72 0.054101
10.73 0.0381098
10.74 0.0220714
10.75 0.00601349
10.76 -0.0100312
10.77 -0.0260316
10.78 -0.0419547
10.79 -0.0577665
10.8 -0.0734323
10.81 -0.088901
10.82 -0.104144
10.83 -0.119138
10.84 -0.133859
10.85 -0.148286
10.86 -0.162402
10.87 -0.176194
10.88 -0.189629
10.89 -0.202745
10.9 -0.215551
10.91 -0.228063
10.92 -0.240302
10.93 -0.25229
10.94 -0.264041
10.95 -0.27559
10.96 -0.286976
10.97 -0.298223
10.98 -0.309353
10.99 -0.320383
11 -0.331323
11.01 -0.342169
11.02 -0.352925
11.03 -0.363576
11.04 -0.3741
11.05 -0.384467
11.06 -0.394637
11.07 -0.404547
11.08 -0.414136
11.09 -0.423359
11.1 -0.432155
11.11 -0.44046
11.12 -0.44821
11.13 -0.455341
11.14 -0.461713
11.15 -0.467337
11.16 -0.472168
11.17 -0.476167
11.18 -0.479301
11.19 -0.481545
11.2 -0.482842
11.21 -0.483165
11.22 -0.482582
11.23 -0.481107
11.24 -0.478759
11.25 -0.475566
11.26 -0.47156
11.27 -0.466703
11.28 -0.461103
11.29 -0.454812
11.3 -0.447872
11.31 -0.440321
11.32 -0.432195
11.33 -0.423511
11.34 -0.414277
11.35 -0.404562
11.36 -0.394385
11.37 -0.383764
11.38 -0.37271
11.39 -0.361232
11.4 -0.349301
11.41 -0.336946
11.42 -0.324183
11.43 -0.311018
11.44 -0.297456
11.45 -0.283506
11.46 -0.269173
11.47 -0.254452
11.48 -0.2394
11.49 -0.224046
11.5 -0.208425
11.51 -0.192577
11.52 -0.176549
11.53 -0.160385
11.54 -0.144154
11.55 -0.127921
11.56 -0.11175
11.57 -0.0957031
11.58 -0.0798464
11.59 -0.064247
11.6 -0.0490026
11.61 -0.0341426
11.62 -0.0197198
11.63 -0.00578159
11.64 0.00763111
11.65 0.020484
11.66 0.0327099
11.67 0.0442965
11.68 0.0552639
11.69 0.0656092
11.7 0.0753365
11.71 0.084456
11.72 0.0929826
11.73 0.100875
11.74 0.108228
11.75 0.115067
11.76 0.121424
11.77 0.127329
11.78 0.132813
11.79 0.137884
11.8 0.142571
11.81 0.146923
11.82 0.15096
11.83 0.1547
11.84 0.158156
11.85 0.161337
11.86 0.164219
11.87 0.16683
11.88 0.16917
11.89 0.17123
11.9 0.173001
11.91 0.174471
11.92 0.17561
11.93 0.176388
11.94 0.176812
11.95 0.176861
11.96 0.176516
11.97 0.175757
11.98 0.174564
11.99 0.17287
12 0.170688
12.01 0.168008
12.02 0.164813
12.03 0.161082
12.04 0.156799
12.05 0.151926
12.06 0.146416
12.07 0.1403
12.08 0.133564
12.09 0.126193
12.1 0.118176
12.11 0.109502
12.12 0.100104
12.13 0.0900138
12.14 0.0792495
12.15 0.0678136
12.16 0.055713
12.17 0.0429598
12.18 0.0295587
12.19 0.0154937
