# xPDFsuite Configuration #
[PDF]
wavelength = 0.1
dataformat = QA
inputfile = BiMsol6_insitu_700 C-00656.xy
backgroundfile = Quartz2mm-dist500-00000.xy
mode = xray
bgscale = 0.0042
composition = Bi2Fe4O9
outputtype = gr
qmaxinst = 24.998449118
qmin = 0.1
qmax = 21.4986662415
rmax = 80.0
rmin = 0.0
rstep = 0.01
rpoly = 0.9

[Misc]
inputdir = C:/Data/Seafile/CPH/Beamtime/Desy Oct 20/In situ data/Processed/BiMsol6/PDF
savedir = C:/Data/Seafile/CPH/Beamtime/Desy Oct 20/In situ data/PDF/BiMsol6
backgroundfilefull = C:/Data/Seafile/CPH/Beamtime/Desy Oct 20/In situ data/Processed/Standard_Empty_Cap/Quartz2mm-dist500-00000.xy

#### start data
#S 1
#L r($\AA$)  G($\AA^{-2}$)
0 0
0.01 0.00569984
0.02 0.0110734
0.03 0.0158415
0.04 0.0197539
0.05 0.0226006
0.06 0.0242218
0.07 0.0244433
0.08 0.0232153
0.09 0.020668
0.1 0.0169092
0.11 0.0121053
0.12 0.00647402
0.13 0.000274584
0.14 -0.00620052
0.15 -0.0125866
0.16 -0.0185756
0.17 -0.0238789
0.18 -0.0282386
0.19 -0.0314402
0.2 -0.0332637
0.21 -0.0335611
0.22 -0.0324258
0.23 -0.0299223
0.24 -0.0261863
0.25 -0.0214202
0.26 -0.0158851
0.27 -0.00988039
0.28 -0.00382837
0.29 0.00189477
0.3 0.00692399
0.31 0.0109134
0.32 0.0135534
0.33 0.0145309
0.34 0.0135414
0.35 0.0106411
0.36 0.00583504
0.37 -0.00077551
0.38 -0.00899226
0.39 -0.0185225
0.4 -0.0290244
0.41 -0.0399232
0.42 -0.0506554
0.43 -0.0606472
0.44 -0.069306
0.45 -0.0760421
0.46 -0.0802314
0.47 -0.0810682
0.48 -0.0783845
0.49 -0.071857
0.5 -0.0612758
0.51 -0.0465579
0.52 -0.0277563
0.53 -0.00480737
0.54 0.0217734
0.55 0.0513077
0.56 0.0831666
0.57 0.116614
0.58 0.150829
0.59 0.184915
0.6 0.217729
0.61 0.248373
0.62 0.275943
0.63 0.29959
0.64 0.318549
0.65 0.332162
0.66 0.339512
0.67 0.34022
0.68 0.334442
0.69 0.322173
0.7 0.303577
0.71 0.278989
0.72 0.248901
0.73 0.213479
0.74 0.174124
0.75 0.131734
0.76 0.0872663
0.77 0.0417151
0.78 -0.00391287
0.79 -0.0485343
0.8 -0.0910493
0.81 -0.13069
0.82 -0.166724
0.83 -0.198541
0.84 -0.225673
0.85 -0.2478
0.86 -0.264221
0.87 -0.275422
0.88 -0.281653
0.89 -0.283236
0.9 -0.280609
0.91 -0.274318
0.92 -0.264898
0.93 -0.253046
0.94 -0.239714
0.95 -0.225624
0.96 -0.211478
0.97 -0.197931
0.98 -0.185575
0.99 -0.175114
1 -0.166878
1.01 -0.1611
1.02 -0.157947
1.03 -0.157477
1.04 -0.159638
1.05 -0.164345
1.06 -0.171454
1.07 -0.18042
1.08 -0.190861
1.09 -0.202361
1.1 -0.214488
1.11 -0.226811
1.12 -0.238866
1.13 -0.250244
1.14 -0.260638
1.15 -0.269794
1.16 -0.277526
1.17 -0.283717
1.18 -0.2883
1.19 -0.291187
1.2 -0.292645
1.21 -0.292837
1.22 -0.291972
1.23 -0.290286
1.24 -0.288037
1.25 -0.285484
1.26 -0.282919
1.27 -0.280581
1.28 -0.27866
1.29 -0.277305
1.3 -0.276614
1.31 -0.276638
1.32 -0.277439
1.33 -0.278863
1.34 -0.280792
1.35 -0.283067
1.36 -0.285501
1.37 -0.287883
1.38 -0.289966
1.39 -0.291502
1.4 -0.292314
1.41 -0.292232
1.42 -0.291127
1.43 -0.288913
1.44 -0.285552
1.45 -0.280947
1.46 -0.275307
1.47 -0.26878
1.48 -0.261551
1.49 -0.253849
1.5 -0.245933
1.51 -0.238099
1.52 -0.230689
1.53 -0.223976
1.54 -0.218224
1.55 -0.213665
1.56 -0.21049
1.57 -0.208837
1.58 -0.208952
1.59 -0.210707
1.6 -0.214007
1.61 -0.218721
1.62 -0.224653
1.63 -0.231555
1.64 -0.239139
1.65 -0.247032
1.66 -0.254818
1.67 -0.262123
1.68 -0.268577
1.69 -0.273828
1.7 -0.277558
1.71 -0.27931
1.72 -0.278958
1.73 -0.276415
1.74 -0.271611
1.75 -0.264551
1.76 -0.255312
1.77 -0.243994
1.78 -0.230729
1.79 -0.215984
1.8 -0.200088
1.81 -0.183402
1.82 -0.166306
1.83 -0.149187
1.84 -0.132478
1.85 -0.116563
1.86 -0.101733
1.87 -0.0882506
1.88 -0.0763174
1.89 -0.0660735
1.9 -0.0576178
1.91 -0.0511017
1.92 -0.0462642
1.93 -0.042965
1.94 -0.0410109
1.95 -0.0401651
1.96 -0.0401584
1.97 -0.040717
1.98 -0.0414914
1.99 -0.0421703
2 -0.0424902
2.01 -0.0422226
2.02 -0.0411835
2.03 -0.039239
2.04 -0.0362107
2.05 -0.032215
2.06 -0.0273278
2.07 -0.0216877
2.08 -0.0154912
2.09 -0.00898548
2.1 -0.00247735
2.11 0.00365942
2.12 0.00908586
2.13 0.0134603
2.14 0.0164533
2.15 0.0177607
2.16 0.017116
2.17 0.0140459
2.18 0.00860898
2.19 0.000746594
2.2 -0.00954515
2.21 -0.0221975
2.22 -0.0370701
2.23 -0.0540328
2.24 -0.0728122
2.25 -0.0929296
2.26 -0.114008
2.27 -0.13564
2.28 -0.157408
2.29 -0.178887
2.3 -0.199561
2.31 -0.219064
2.32 -0.237074
2.33 -0.253306
2.34 -0.267534
2.35 -0.279598
2.36 -0.289326
2.37 -0.296594
2.38 -0.301656
2.39 -0.304642
2.4 -0.305743
2.41 -0.305198
2.42 -0.303286
2.43 -0.300255
2.44 -0.296536
2.45 -0.292493
2.46 -0.288451
2.47 -0.284716
2.48 -0.281562
2.49 -0.279251
2.5 -0.278064
2.51 -0.278048
2.52 -0.279275
2.53 -0.281764
2.54 -0.285481
2.55 -0.290342
2.56 -0.296285
2.57 -0.303081
2.58 -0.310489
2.59 -0.318288
2.6 -0.326252
2.61 -0.33415
2.62 -0.341756
2.63 -0.348799
2.64 -0.355139
2.65 -0.360635
2.66 -0.365181
2.67 -0.368706
2.68 -0.371178
2.69 -0.37254
2.7 -0.372856
2.71 -0.372264
2.72 -0.37087
2.73 -0.3688
2.74 -0.366197
2.75 -0.363207
2.76 -0.35997
2.77 -0.356667
2.78 -0.353426
2.79 -0.350358
2.8 -0.347551
2.81 -0.345071
2.82 -0.342979
2.83 -0.341292
2.84 -0.339967
2.85 -0.338968
2.86 -0.338235
2.87 -0.337695
2.88 -0.337265
2.89 -0.336843
2.9 -0.336327
2.91 -0.335626
2.92 -0.334658
2.93 -0.333352
2.94 -0.331646
2.95 -0.329477
2.96 -0.326795
2.97 -0.323624
2.98 -0.319962
2.99 -0.315821
3 -0.311218
3.01 -0.306175
3.02 -0.300676
3.03 -0.29477
3.04 -0.288472
3.05 -0.281778
3.06 -0.274666
3.07 -0.267098
3.08 -0.259
3.09 -0.250252
3.1 -0.240801
3.11 -0.230535
3.12 -0.219327
3.13 -0.207045
3.14 -0.19355
3.15 -0.178584
3.16 -0.162075
3.17 -0.143959
3.18 -0.124148
3.19 -0.102582
3.2 -0.0792313
3.21 -0.0540669
3.22 -0.0270148
3.23 0.0016563
3.24 0.0318071
3.25 0.0632578
3.26 0.09579
3.27 0.129151
3.28 0.163073
3.29 0.197187
3.3 0.231142
3.31 0.264598
3.32 0.297218
3.33 0.32867
3.34 0.358618
3.35 0.38656
3.36 0.412402
3.37 0.43592
3.38 0.456931
3.39 0.475293
3.4 0.490908
3.41 0.503549
3.42 0.513239
3.43 0.520176
3.44 0.524447
3.45 0.526169
3.46 0.525493
3.47 0.52259
3.48 0.517439
3.49 0.510493
3.5 0.501963
3.51 0.492055
3.52 0.480968
3.53 0.468888
3.54 0.455956
3.55 0.44234
3.56 0.428222
3.57 0.413716
3.58 0.398913
3.59 0.383889
3.6 0.368704
3.61 0.353396
3.62 0.338016
3.63 0.322594
3.64 0.307158
3.65 0.291737
3.66 0.276365
3.67 0.261091
3.68 0.245979
3.69 0.231089
3.7 0.216499
3.71 0.202302
3.72 0.1886
3.73 0.175507
3.74 0.163227
3.75 0.151851
3.76 0.141494
3.77 0.132285
3.78 0.124351
3.79 0.117809
3.8 0.112811
3.81 0.109554
3.82 0.107975
3.83 0.108126
3.84 0.110036
3.85 0.113716
3.86 0.119153
3.87 0.126451
3.88 0.135464
3.89 0.146056
3.9 0.158133
3.91 0.171589
3.92 0.186305
3.93 0.202171
3.94 0.219116
3.95 0.236894
3.96 0.255364
3.97 0.274389
3.98 0.293833
3.99 0.313565
4 0.333459
4.01 0.353373
4.02 0.373185
4.03 0.392784
4.04 0.412065
4.05 0.430925
4.06 0.449261
4.07 0.466902
4.08 0.483813
4.09 0.499903
4.1 0.515078
4.11 0.52925
4.12 0.54233
4.13 0.554153
4.14 0.564628
4.15 0.573742
4.16 0.581423
4.17 0.587604
4.18 0.592226
4.19 0.59524
4.2 0.596419
4.21 0.595918
4.22 0.593733
4.23 0.58987
4.24 0.584346
4.25 0.577193
4.26 0.568382
4.27 0.55795
4.28 0.546074
4.29 0.532831
4.3 0.518304
4.31 0.502581
4.32 0.48575
4.33 0.467804
4.34 0.448926
4.35 0.429209
4.36 0.408727
4.37 0.387542
4.38 0.365713
4.39 0.343264
4.4 0.320218
4.41 0.29665
4.42 0.272585
4.43 0.248043
4.44 0.223043
4.45 0.197604
4.46 0.171711
4.47 0.145423
4.48 0.118786
4.49 0.0918485
4.5 0.0646667
4.51 0.0373114
4.52 0.00986673
4.53 -0.0175556
4.54 -0.0448362
4.55 -0.0718519
4.56 -0.0984705
4.57 -0.124554
4.58 -0.14996
4.59 -0.17447
4.6 -0.197964
4.61 -0.220346
4.62 -0.241499
4.63 -0.261322
4.64 -0.279735
4.65 -0.29665
4.66 -0.311901
4.67 -0.32563
4.68 -0.337855
4.69 -0.34862
4.7 -0.357992
4.71 -0.366059
4.72 -0.372855
4.73 -0.378548
4.74 -0.383334
4.75 -0.387357
4.76 -0.390767
4.77 -0.39371
4.78 -0.396325
4.79 -0.398735
4.8 -0.401088
4.81 -0.403478
4.82 -0.405981
4.83 -0.408652
4.84 -0.411525
4.85 -0.414622
4.86 -0.41793
4.87 -0.421402
4.88 -0.424987
4.89 -0.428624
4.9 -0.432237
4.91 -0.435746
4.92 -0.439037
4.93 -0.442039
4.94 -0.444676
4.95 -0.446879
4.96 -0.448588
4.97 -0.449757
4.98 -0.450326
4.99 -0.450262
5 -0.449605
5.01 -0.448371
5.02 -0.446584
5.03 -0.444281
5.04 -0.441507
5.05 -0.438275
5.06 -0.434677
5.07 -0.430771
5.08 -0.426603
5.09 -0.422216
5.1 -0.41764
5.11 -0.412893
5.12 -0.407977
5.13 -0.402903
5.14 -0.397655
5.15 -0.392209
5.16 -0.386529
5.17 -0.380577
5.18 -0.374277
5.19 -0.367596
5.2 -0.360502
5.21 -0.352959
5.22 -0.344941
5.23 -0.336431
5.24 -0.327416
5.25 -0.317882
5.26 -0.30791
5.27 -0.297554
5.28 -0.286884
5.29 -0.275985
5.3 -0.264959
5.31 -0.253925
5.32 -0.243024
5.33 -0.23238
5.34 -0.222124
5.35 -0.212377
5.36 -0.203258
5.37 -0.194883
5.38 -0.187426
5.39 -0.180878
5.4 -0.175286
5.41 -0.170676
5.42 -0.16705
5.43 -0.164389
5.44 -0.162705
5.45 -0.161909
5.46 -0.161868
5.47 -0.162481
5.48 -0.163635
5.49 -0.16521
5.5 -0.167082
5.51 -0.169135
5.52 -0.171219
5.53 -0.173225
5.54 -0.175057
5.55 -0.176631
5.56 -0.17788
5.57 -0.17873
5.58 -0.179143
5.59 -0.179131
5.6 -0.178694
5.61 -0.177848
5.62 -0.176618
5.63 -0.175036
5.64 -0.173107
5.65 -0.170903
5.66 -0.168459
5.67 -0.165799
5.68 -0.162939
5.69 -0.159882
5.7 -0.156608
5.71 -0.15308
5.72 -0.149272
5.73 -0.145127
5.74 -0.140577
5.75 -0.135547
5.76 -0.129952
5.77 -0.123637
5.78 -0.116557
5.79 -0.108648
5.8 -0.0998442
5.81 -0.0900931
5.82 -0.0793604
5.83 -0.0676004
5.84 -0.0547781
5.85 -0.0410194
5.86 -0.0263925
5.87 -0.0109908
5.88 0.00506852
5.89 0.0216466
5.9 0.0386022
5.91 0.0557203
5.92 0.072807
5.93 0.089676
5.94 0.106143
5.95 0.122031
5.96 0.137157
5.97 0.151293
5.98 0.164397
5.99 0.176378
6 0.187176
6.01 0.196762
6.02 0.205139
6.03 0.212256
6.04 0.21823
6.05 0.223206
6.06 0.227304
6.07 0.230659
6.08 0.23342
6.09 0.235739
6.1 0.237762
6.11 0.239682
6.12 0.241631
6.13 0.243726
6.14 0.246061
6.15 0.248704
6.16 0.251715
6.17 0.255094
6.18 0.258788
6.19 0.262736
6.2 0.266843
6.21 0.270992
6.22 0.275044
6.23 0.278792
6.24 0.282079
6.25 0.284731
6.26 0.286574
6.27 0.287442
6.28 0.287183
6.29 0.285591
6.3 0.282529
6.31 0.278002
6.32 0.271967
6.33 0.264414
6.34 0.255362
6.35 0.244866
6.36 0.232878
6.37 0.219655
6.38 0.205355
6.39 0.190139
6.4 0.174183
6.41 0.157669
6.42 0.140778
6.43 0.123711
6.44 0.106668
6.45 0.0898073
6.46 0.0732689
6.47 0.0571719
6.48 0.041611
6.49 0.0267168
6.5 0.012488
6.51 -0.00107995
6.52 -0.0140022
6.53 -0.0263161
6.54 -0.0380786
6.55 -0.0493501
6.56 -0.0602055
6.57 -0.0707778
6.58 -0.0811615
6.59 -0.0914484
6.6 -0.101724
6.61 -0.112062
6.62 -0.122538
6.63 -0.133193
6.64 -0.144044
6.65 -0.155091
6.66 -0.166317
6.67 -0.177683
6.68 -0.189134
6.69 -0.200587
6.7 -0.211945
6.71 -0.223108
6.72 -0.233967
6.73 -0.244412
6.74 -0.254329
6.75 -0.263555
6.76 -0.271989
6.77 -0.279565
6.78 -0.2862
6.79 -0.291821
6.8 -0.296369
6.81 -0.299789
6.82 -0.301931
6.83 -0.302901
6.84 -0.302695
6.85 -0.301318
6.86 -0.298783
6.87 -0.29511
6.88 -0.290257
6.89 -0.284259
6.9 -0.277204
6.91 -0.269116
6.92 -0.260017
6.93 -0.249921
6.94 -0.238843
6.95 -0.226676
6.96 -0.213531
6.97 -0.199407
6.98 -0.184299
6.99 -0.168198
7 -0.151096
7.01 -0.132938
7.02 -0.113704
7.03 -0.093466
7.04 -0.072237
7.05 -0.050038
7.06 -0.0269009
7.07 -0.00286834
7.08 0.0220845
7.09 0.0478062
7.1 0.0742032
7.11 0.101182
7.12 0.12864
7.13 0.156463
7.14 0.184537
7.15 0.212721
7.16 0.240869
7.17 0.268847
7.18 0.296525
7.19 0.323774
7.2 0.350469
7.21 0.376416
7.22 0.401537
7.23 0.425744
7.24 0.448943
7.25 0.471046
7.26 0.491975
7.27 0.511622
7.28 0.529837
7.29 0.546679
7.3 0.562098
7.31 0.576051
7.32 0.588497
7.33 0.599402
7.34 0.6086
7.35 0.616125
7.36 0.622006
7.37 0.626213
7.38 0.628718
7.39 0.629497
7.4 0.628497
7.41 0.625551
7.42 0.62082
7.43 0.614299
7.44 0.605986
7.45 0.595892
7.46 0.584035
7.47 0.570327
7.48 0.554857
7.49 0.537764
7.5 0.51912
7.51 0.499008
7.52 0.477525
7.53 0.454777
7.54 0.43078
7.55 0.405807
7.56 0.380003
7.57 0.35352
7.58 0.326513
7.59 0.299143
7.6 0.271568
7.61 0.243975
7.62 0.216528
7.63 0.189378
7.64 0.162667
7.65 0.13653
7.66 0.11109
7.67 0.0865609
7.68 0.0629624
7.69 0.0403737
7.7 0.0188649
7.71 -0.00150705
7.72 -0.0206979
7.73 -0.0386163
7.74 -0.0552136
7.75 -0.0705665
7.76 -0.0846766
7.77 -0.0975534
7.78 -0.109213
7.79 -0.119679
7.8 -0.128863
7.81 -0.1369
7.82 -0.143842
7.83 -0.149728
7.84 -0.154594
7.85 -0.158481
7.86 -0.161395
7.87 -0.163344
7.88 -0.164442
7.89 -0.164731
7.9 -0.164252
7.91 -0.163045
7.92 -0.161154
7.93 -0.158566
7.94 -0.155368
7.95 -0.151623
7.96 -0.147373
7.97 -0.142664
7.98 -0.137539
7.99 -0.132036
8 -0.126186
8.01 -0.120065
8.02 -0.11372
8.03 -0.107194
8.04 -0.100533
8.05 -0.0937782
8.06 -0.0869725
8.07 -0.0801638
8.08 -0.0733933
8.09 -0.066699
8.1 -0.0601173
8.11 -0.0536834
8.12 -0.0474337
8.13 -0.0414223
8.14 -0.0356595
8.15 -0.0301727
8.16 -0.0249874
8.17 -0.0201267
8.18 -0.0156115
8.19 -0.0114854
8.2 -0.00775844
8.21 -0.00442325
8.22 -0.00148674
8.23 0.00104831
8.24 0.0031835
8.25 0.00492384
8.26 0.00624033
8.27 0.00719514
8.28 0.00781091
8.29 0.00811514
8.3 0.00813985
8.31 0.00792118
8.32 0.00748975
8.33 0.00689409
8.34 0.00619055
8.35 0.00542394
8.36 0.00463826
8.37 0.00387547
8.38 0.00317424
8.39 0.00258226
8.4 0.00211954
8.41 0.00180448
8.42 0.00164805
8.43 0.0016523
8.44 0.00180989
8.45 0.00210866
8.46 0.00251953
8.47 0.00299451
8.48 0.00348677
8.49 0.00394214
8.5 0.0043004
8.51 0.00449676
8.52 0.00443425
8.53 0.00405509
8.54 0.00329705
8.55 0.00209712
8.56 0.000397898
8.57 -0.00185055
8.58 -0.00471038
8.59 -0.00824468
8.6 -0.0124193
8.61 -0.017237
8.62 -0.0226877
8.63 -0.0287484
8.64 -0.0353841
8.65 -0.0425891
8.66 -0.0502678
8.67 -0.0583371
8.68 -0.0667233
8.69 -0.0753486
8.7 -0.0841332
8.71 -0.0929973
8.72 -0.101854
8.73 -0.110627
8.74 -0.119252
8.75 -0.127673
8.76 -0.135845
8.77 -0.143733
8.78 -0.151289
8.79 -0.158512
8.8 -0.165415
8.81 -0.172011
8.82 -0.17832
8.83 -0.18437
8.84 -0.190191
8.85 -0.195809
8.86 -0.201286
8.87 -0.206658
8.88 -0.21196
8.89 -0.217224
8.9 -0.222471
8.91 -0.227719
8.92 -0.232973
8.93 -0.238228
8.94 -0.243469
8.95 -0.248672
8.96 -0.253804
8.97 -0.258823
8.98 -0.263658
8.99 -0.268271
9 -0.272605
9.01 -0.276605
9.02 -0.280219
9.03 -0.283395
9.04 -0.286061
9.05 -0.288171
9.06 -0.289731
9.07 -0.290725
9.08 -0.291148
9.09 -0.291007
9.1 -0.290319
9.11 -0.289061
9.12 -0.287326
9.13 -0.285168
9.14 -0.28264
9.15 -0.279802
9.16 -0.276716
9.17 -0.273439
9.18 -0.270037
9.19 -0.26658
9.2 -0.26312
9.21 -0.259701
9.22 -0.256362
9.23 -0.25313
9.24 -0.250038
9.25 -0.247087
9.26 -0.244273
9.27 -0.241586
9.28 -0.239012
9.29 -0.236528
9.3 -0.234108
9.31 -0.231724
9.32 -0.229339
9.33 -0.226926
9.34 -0.224457
9.35 -0.221913
9.36 -0.219274
9.37 -0.216523
9.38 -0.213659
9.39 -0.210691
9.4 -0.207629
9.41 -0.204489
9.42 -0.201292
9.43 -0.198062
9.44 -0.194829
9.45 -0.191623
9.46 -0.18847
9.47 -0.185391
9.48 -0.182404
9.49 -0.17952
9.5 -0.176748
9.51 -0.174078
9.52 -0.171485
9.53 -0.168941
9.54 -0.166406
9.55 -0.163833
9.56 -0.161163
9.57 -0.158306
9.58 -0.155201
9.59 -0.151772
9.6 -0.147941
9.61 -0.14363
9.62 -0.138763
9.63 -0.133227
9.64 -0.126954
9.65 -0.119925
9.66 -0.112099
9.67 -0.103445
9.68 -0.0939451
9.69 -0.0835939
9.7 -0.0723055
9.71 -0.0602018
9.72 -0.0473213
9.73 -0.0337121
9.74 -0.0194321
9.75 -0.00454712
9.76 0.0108936
9.77 0.0268079
9.78 0.0430818
9.79 0.0596355
9.8 0.0763909
9.81 0.0932728
9.82 0.110211
9.83 0.127132
9.84 0.143974
9.85 0.160686
9.86 0.177225
9.87 0.193555
9.88 0.209645
9.89 0.225457
9.9 0.240959
9.91 0.256152
9.92 0.271024
9.93 0.285558
9.94 0.299739
9.95 0.313552
9.96 0.326938
9.97 0.339898
9.98 0.352416
9.99 0.364461
10 0.375999
10.01 0.386992
10.02 0.397384
10.03 0.407092
10.04 0.416125
10.05 0.424446
10.06 0.432018
10.07 0.438807
10.08 0.444789
10.09 0.449872
10.1 0.454086
10.11 0.457459
10.12 0.459999
10.13 0.461728
10.14 0.462676
10.15 0.46287
10.16 0.462312
10.17 0.461135
10.18 0.459407
10.19 0.457202
10.2 0.454598
10.21 0.451676
10.22 0.448507
10.23 0.445187
10.24 0.441804
10.25 0.438429
10.26 0.435127
10.27 0.431954
10.28 0.42896
10.29 0.426209
10.3 0.423703
10.31 0.421456
10.32 0.419469
10.33 0.417734
10.34 0.416231
10.35 0.414941
10.36 0.413817
10.37 0.412802
10.38 0.411841
10.39 0.410874
10.4 0.40984
10.41 0.408671
10.42 0.40727
10.43 0.405587
10.44 0.403554
10.45 0.401108
10.46 0.398188
10.47 0.394735
10.48 0.390665
10.49 0.385909
10.5 0.380466
10.51 0.374299
10.52 0.367377
10.53 0.359675
10.54 0.351173
10.55 0.341776
10.56 0.33155
10.57 0.320508
10.58 0.308661
10.59 0.296025
10.6 0.282622
10.61 0.268457
10.62 0.253543
10.63 0.237985
10.64 0.221833
10.65 0.205146
10.66 0.187987
10.67 0.170426
10.68 0.15251
10.69 0.134348
10.7 0.116026
10.71 0.0976238
10.72 0.0792201
10.73 0.0608922
10.74 0.0427202
10.75 0.024796
10.76 0.00716692
10.77 -0.0101126
10.78 -0.0269965
10.79 -0.0434481
10.8 -0.0594407
10.81 -0.0749198
10.82 -0.0899012
10.83 -0.104411
10.84 -0.118467
10.85 -0.132096
10.86 -0.145336
10.87 -0.158222
10.88 -0.170786
10.89 -0.183114
10.9 -0.195261
10.91 -0.207281
10.92 -0.219226
10.93 -0.231143
10.94 -0.243077
10.95 -0.255067
10.96 -0.267134
10.97 -0.27929
10.98 -0.291538
10.99 -0.303866
11 -0.316255
11.01 -0.328669
11.02 -0.341056
11.03 -0.353361
11.04 -0.365522
11.05 -0.377468
11.06 -0.389127
11.07 -0.400395
11.08 -0.411182
11.09 -0.421433
11.1 -0.431076
11.11 -0.440043
11.12 -0.448274
11.13 -0.455714
11.14 -0.462223
11.15 -0.467853
11.16 -0.472585
11.17 -0.476409
11.18 -0.479322
11.19 -0.481332
11.2 -0.482413
11.21 -0.482572
11.22 -0.481901
11.23 -0.480433
11.24 -0.478205
11.25 -0.475255
11.26 -0.47162
11.27 -0.467275
11.28 -0.462309
11.29 -0.456762
11.3 -0.450658
11.31 -0.444014
11.32 -0.436846
11.33 -0.429142
11.34 -0.420885
11.35 -0.412114
11.36 -0.402826
11.37 -0.393016
11.38 -0.382677
11.39 -0.371804
11.4 -0.360345
11.41 -0.348331
11.42 -0.335784
11.43 -0.322714
11.44 -0.309135
11.45 -0.295073
11.46 -0.280546
11.47 -0.265571
11.48 -0.250235
11.49 -0.234593
11.5 -0.218704
11.51 -0.202633
11.52 -0.18645
11.53 -0.170228
11.54 -0.154055
11.55 -0.138005
11.56 -0.122151
11.57 -0.106565
11.58 -0.0913117
11.59 -0.0764597
11.6 -0.0621117
11.61 -0.0482725
11.62 -0.0349816
11.63 -0.0222708
11.64 -0.0101638
11.65 0.00132343
11.66 0.0121412
11.67 0.0222992
11.68 0.0318371
11.69 0.0407681
11.7 0.0491107
11.71 0.0568872
11.72 0.0641224
11.73 0.0707897
11.74 0.0769802
11.75 0.082724
11.76 0.0880506
11.77 0.0929886
11.78 0.0975649
11.79 0.101787
11.8 0.10568
11.81 0.109282
11.82 0.112611
11.83 0.11568
11.84 0.118502
11.85 0.121084
11.86 0.123409
11.87 0.125505
11.88 0.127373
11.89 0.129015
11.9 0.130428
11.91 0.131609
11.92 0.132539
11.93 0.133205
11.94 0.133615
11.95 0.133756
11.96 0.133615
11.97 0.133179
11.98 0.13243
11.99 0.131313
12 0.129831
12.01 0.127966
12.02 0.125691
12.03 0.122979
12.04 0.119799
12.05 0.116102
12.06 0.111825
12.07 0.106978
12.08 0.101527
12.09 0.0954423
12.1 0.0886937
12.11 0.0812545
12.12 0.0730385
12.13 0.0640643
12.14 0.054342
12.15 0.043866
12.16 0.0326374
12.17 0.0206654
