# xPDFsuite Configuration #
[PDF]
wavelength = 0.1
dataformat = QA
inputfile = BiMsol6_insitu_700 C-00437.xy
backgroundfile = Quartz2mm-dist500-00000.xy
mode = xray
bgscale = 0.0042
composition = Bi2Fe4O9
outputtype = gr
qmaxinst = 24.998449118
qmin = 0.1
qmax = 21.4986662415
rmax = 80.0
rmin = 0.0
rstep = 0.01
rpoly = 0.9

[Misc]
inputdir = C:/Data/Seafile/CPH/Beamtime/Desy Oct 20/In situ data/Processed/BiMsol6/PDF
savedir = C:/Data/Seafile/CPH/Beamtime/Desy Oct 20/In situ data/PDF/BiMsol6
backgroundfilefull = C:/Data/Seafile/CPH/Beamtime/Desy Oct 20/In situ data/Processed/Standard_Empty_Cap/Quartz2mm-dist500-00000.xy

#### start data
#S 1
#L r($\AA$)  G($\AA^{-2}$)
0 0
0.01 0.00676034
0.02 0.0131426
0.03 0.0188232
0.04 0.0235113
0.05 0.0269626
0.06 0.0289904
0.07 0.0293898
0.08 0.0280993
0.09 0.0252668
0.1 0.0210129
0.11 0.0155263
0.12 0.00905505
0.13 0.00189583
0.14 -0.00561924
0.15 -0.0130665
0.16 -0.020089
0.17 -0.0263512
0.18 -0.0315512
0.19 -0.0354353
0.2 -0.0377426
0.21 -0.0382915
0.22 -0.037178
0.23 -0.034465
0.24 -0.0302967
0.25 -0.0248942
0.26 -0.0185466
0.27 -0.0115811
0.28 -0.00447969
0.29 0.0023288
0.3 0.00842709
0.31 0.0134168
0.32 0.0169378
0.33 0.0186244
0.34 0.0181163
0.35 0.0154558
0.36 0.0106294
0.37 0.0037307
0.38 -0.00503713
0.39 -0.0153645
0.4 -0.0268954
0.41 -0.0389971
0.42 -0.0510465
0.43 -0.0624098
0.44 -0.0724288
0.45 -0.0804452
0.46 -0.0857614
0.47 -0.0874801
0.48 -0.085389
0.49 -0.0791128
0.5 -0.0684005
0.51 -0.0531402
0.52 -0.0333697
0.53 -0.00899564
0.54 0.019434
0.55 0.0511871
0.56 0.085585
0.57 0.12183
0.58 0.159025
0.59 0.196192
0.6 0.232088
0.61 0.265714
0.62 0.296073
0.63 0.322228
0.64 0.343332
0.65 0.358656
0.66 0.367191
0.67 0.368513
0.68 0.362781
0.69 0.349985
0.7 0.330303
0.71 0.304101
0.72 0.271917
0.73 0.233942
0.74 0.19171
0.75 0.146209
0.76 0.0984934
0.77 0.0496586
0.78 0.000811673
0.79 -0.046853
0.8 -0.0921279
0.81 -0.134179
0.82 -0.172208
0.83 -0.205557
0.84 -0.233723
0.85 -0.256373
0.86 -0.272761
0.87 -0.283446
0.88 -0.288733
0.89 -0.289003
0.9 -0.284768
0.91 -0.276661
0.92 -0.265306
0.93 -0.251513
0.94 -0.236336
0.95 -0.220592
0.96 -0.205069
0.97 -0.190496
0.98 -0.177529
0.99 -0.166965
1 -0.15913
1.01 -0.154256
1.02 -0.152497
1.03 -0.15388
1.04 -0.158308
1.05 -0.165639
1.06 -0.17566
1.07 -0.187705
1.08 -0.201299
1.09 -0.215928
1.1 -0.231061
1.11 -0.246174
1.12 -0.260687
1.13 -0.274119
1.14 -0.286117
1.15 -0.296383
1.16 -0.304706
1.17 -0.310963
1.18 -0.315089
1.19 -0.316989
1.2 -0.317036
1.21 -0.315457
1.22 -0.312538
1.23 -0.308606
1.24 -0.30401
1.25 -0.299114
1.26 -0.294323
1.27 -0.289966
1.28 -0.286317
1.29 -0.283598
1.3 -0.281969
1.31 -0.28153
1.32 -0.282423
1.33 -0.284447
1.34 -0.287474
1.35 -0.291315
1.36 -0.295737
1.37 -0.300471
1.38 -0.305212
1.39 -0.309616
1.4 -0.313401
1.41 -0.316308
1.42 -0.318116
1.43 -0.318653
1.44 -0.317805
1.45 -0.315361
1.46 -0.311506
1.47 -0.306347
1.48 -0.300048
1.49 -0.292828
1.5 -0.284955
1.51 -0.276731
1.52 -0.268535
1.53 -0.260722
1.54 -0.253621
1.55 -0.247535
1.56 -0.24273
1.57 -0.239424
1.58 -0.237952
1.59 -0.23826
1.6 -0.240318
1.61 -0.244049
1.62 -0.249301
1.63 -0.255856
1.64 -0.263456
1.65 -0.271745
1.66 -0.280266
1.67 -0.288615
1.68 -0.296386
1.69 -0.303177
1.7 -0.308615
1.71 -0.312185
1.72 -0.313685
1.73 -0.31296
1.74 -0.309881
1.75 -0.304401
1.76 -0.29655
1.77 -0.286388
1.78 -0.274004
1.79 -0.259878
1.8 -0.244345
1.81 -0.227784
1.82 -0.210604
1.83 -0.193233
1.84 -0.176152
1.85 -0.159812
1.86 -0.144576
1.87 -0.130768
1.88 -0.118655
1.89 -0.108438
1.9 -0.100273
1.91 -0.0943869
1.92 -0.0905221
1.93 -0.0885548
1.94 -0.0882942
1.95 -0.0894907
1.96 -0.0918466
1.97 -0.0950596
1.98 -0.0987068
1.99 -0.10239
2 -0.105761
2.01 -0.108499
2.02 -0.110324
2.03 -0.110999
2.04 -0.110198
2.05 -0.107972
2.06 -0.10431
2.07 -0.0992741
2.08 -0.0929955
2.09 -0.0856713
2.1 -0.0775297
2.11 -0.0689252
2.12 -0.0602499
2.13 -0.05187
2.14 -0.0441567
2.15 -0.0374724
2.16 -0.0321568
2.17 -0.0287254
2.18 -0.0272784
2.19 -0.0279845
2.2 -0.0309584
2.21 -0.0362436
2.22 -0.043811
2.23 -0.0536501
2.24 -0.0656087
2.25 -0.0792835
2.26 -0.0943744
2.27 -0.11054
2.28 -0.127412
2.29 -0.144602
2.3 -0.161678
2.31 -0.178228
2.32 -0.193908
2.33 -0.208411
2.34 -0.221476
2.35 -0.232899
2.36 -0.242472
2.37 -0.250026
2.38 -0.255717
2.39 -0.259615
2.4 -0.261847
2.41 -0.262598
2.42 -0.262092
2.43 -0.260532
2.44 -0.258301
2.45 -0.255729
2.46 -0.253117
2.47 -0.250754
2.48 -0.248905
2.49 -0.247827
2.5 -0.247803
2.51 -0.248894
2.52 -0.251186
2.53 -0.254715
2.54 -0.259462
2.55 -0.265363
2.56 -0.272374
2.57 -0.28028
2.58 -0.288849
2.59 -0.297869
2.6 -0.307115
2.61 -0.316354
2.62 -0.325354
2.63 -0.333835
2.64 -0.341636
2.65 -0.348596
2.66 -0.354585
2.67 -0.359508
2.68 -0.363306
2.69 -0.365883
2.7 -0.367275
2.71 -0.367594
2.72 -0.36692
2.73 -0.365355
2.74 -0.363017
2.75 -0.36003
2.76 -0.35648
2.77 -0.352565
2.78 -0.348397
2.79 -0.344075
2.8 -0.339679
2.81 -0.335266
2.82 -0.330872
2.83 -0.326502
2.84 -0.322136
2.85 -0.317731
2.86 -0.313227
2.87 -0.308551
2.88 -0.303617
2.89 -0.29829
2.9 -0.292506
2.91 -0.286185
2.92 -0.279255
2.93 -0.271657
2.94 -0.263349
2.95 -0.254278
2.96 -0.244423
2.97 -0.233862
2.98 -0.22264
2.99 -0.210816
3 -0.198469
3.01 -0.185683
3.02 -0.172531
3.03 -0.159144
3.04 -0.145622
3.05 -0.132052
3.06 -0.118507
3.07 -0.105046
3.08 -0.0917166
3.09 -0.078548
3.1 -0.0655252
3.11 -0.0526244
3.12 -0.0398026
3.13 -0.0270008
3.14 -0.0141463
3.15 -0.00113788
3.16 0.0121159
3.17 0.0256971
3.18 0.0396866
3.19 0.0541544
3.2 0.069155
3.21 0.084736
3.22 0.100952
3.23 0.117728
3.24 0.135018
3.25 0.152746
3.26 0.170814
3.27 0.189096
3.28 0.207439
3.29 0.225653
3.3 0.243555
3.31 0.260961
3.32 0.277685
3.33 0.293544
3.34 0.308357
3.35 0.321836
3.36 0.333969
3.37 0.344656
3.38 0.353823
3.39 0.361431
3.4 0.367472
3.41 0.371877
3.42 0.374727
3.43 0.3762
3.44 0.376414
3.45 0.375507
3.46 0.373638
3.47 0.370975
3.48 0.367642
3.49 0.363903
3.5 0.359933
3.51 0.355893
3.52 0.351934
3.53 0.348188
3.54 0.344791
3.55 0.341854
3.56 0.339418
3.57 0.337529
3.58 0.336209
3.59 0.335463
3.6 0.33528
3.61 0.335688
3.62 0.336598
3.63 0.33796
3.64 0.339728
3.65 0.34186
3.66 0.344314
3.67 0.347066
3.68 0.350098
3.69 0.353371
3.7 0.356882
3.71 0.360636
3.72 0.364644
3.73 0.368929
3.74 0.373545
3.75 0.378504
3.76 0.383825
3.77 0.389532
3.78 0.395643
3.79 0.402165
3.8 0.409108
3.81 0.416474
3.82 0.424191
3.83 0.432208
3.84 0.44046
3.85 0.448864
3.86 0.457326
3.87 0.465725
3.88 0.473929
3.89 0.481816
3.9 0.489258
3.91 0.496129
3.92 0.502305
3.93 0.507651
3.94 0.511975
3.95 0.515268
3.96 0.517455
3.97 0.518477
3.98 0.518292
3.99 0.516875
4 0.514134
4.01 0.510113
4.02 0.504899
4.03 0.498533
4.04 0.491068
4.05 0.482564
4.06 0.473081
4.07 0.462601
4.08 0.4513
4.09 0.439244
4.1 0.426492
4.11 0.413102
4.12 0.399121
4.13 0.384562
4.14 0.369463
4.15 0.35388
4.16 0.337835
4.17 0.321341
4.18 0.304412
4.19 0.287058
4.2 0.269247
4.21 0.25104
4.22 0.232458
4.23 0.213528
4.24 0.194282
4.25 0.17476
4.26 0.155001
4.27 0.135068
4.28 0.11504
4.29 0.0949839
4.3 0.0749745
4.31 0.0550858
4.32 0.0353926
4.33 0.0160012
4.34 -0.00303803
4.35 -0.0216706
4.36 -0.039847
4.37 -0.0575284
4.38 -0.0746877
4.39 -0.0912898
4.4 -0.107312
4.41 -0.122811
4.42 -0.137811
4.43 -0.152347
4.44 -0.166461
4.45 -0.180201
4.46 -0.193594
4.47 -0.206719
4.48 -0.219631
4.49 -0.232375
4.5 -0.244984
4.51 -0.257485
4.52 -0.269889
4.53 -0.282189
4.54 -0.294378
4.55 -0.306427
4.56 -0.318295
4.57 -0.329929
4.58 -0.341269
4.59 -0.35221
4.6 -0.362686
4.61 -0.372637
4.62 -0.38199
4.63 -0.39068
4.64 -0.39865
4.65 -0.40584
4.66 -0.412145
4.67 -0.417631
4.68 -0.422299
4.69 -0.42617
4.7 -0.429279
4.71 -0.431678
4.72 -0.433394
4.73 -0.434534
4.74 -0.435217
4.75 -0.435542
4.76 -0.435609
4.77 -0.435517
4.78 -0.435363
4.79 -0.435251
4.8 -0.435262
4.81 -0.435462
4.82 -0.435901
4.83 -0.436615
4.84 -0.437622
4.85 -0.438943
4.86 -0.440561
4.87 -0.442427
4.88 -0.444498
4.89 -0.446722
4.9 -0.449038
4.91 -0.451383
4.92 -0.453678
4.93 -0.455857
4.94 -0.457861
4.95 -0.459636
4.96 -0.461138
4.97 -0.462334
4.98 -0.463182
4.99 -0.463663
5 -0.4638
5.01 -0.463601
5.02 -0.463084
5.03 -0.462271
5.04 -0.461185
5.05 -0.459831
5.06 -0.458252
5.07 -0.456467
5.08 -0.454484
5.09 -0.452299
5.1 -0.449895
5.11 -0.447232
5.12 -0.444245
5.13 -0.440894
5.14 -0.437102
5.15 -0.432784
5.16 -0.427844
5.17 -0.42218
5.18 -0.4156
5.19 -0.408037
5.2 -0.399411
5.21 -0.389628
5.22 -0.378606
5.23 -0.366275
5.24 -0.352551
5.25 -0.337306
5.26 -0.320662
5.27 -0.302639
5.28 -0.283277
5.29 -0.262641
5.3 -0.240813
5.31 -0.217822
5.32 -0.193847
5.33 -0.169065
5.34 -0.143621
5.35 -0.117663
5.36 -0.0913414
5.37 -0.0648034
5.38 -0.0382013
5.39 -0.0116851
5.4 0.0146262
5.41 0.0406272
5.42 0.0662272
5.43 0.0913503
5.44 0.115896
5.45 0.139821
5.46 0.163119
5.47 0.185768
5.48 0.20775
5.49 0.229053
5.5 0.249663
5.51 0.269483
5.52 0.288572
5.53 0.3069
5.54 0.324427
5.55 0.341102
5.56 0.356864
5.57 0.371578
5.58 0.385137
5.59 0.397507
5.6 0.408583
5.61 0.418259
5.62 0.426429
5.63 0.43299
5.64 0.437652
5.65 0.440494
5.66 0.441469
5.67 0.440532
5.68 0.43766
5.69 0.432857
5.7 0.42607
5.71 0.417312
5.72 0.406812
5.73 0.394683
5.74 0.381061
5.75 0.366103
5.76 0.349981
5.77 0.332802
5.78 0.314856
5.79 0.296356
5.8 0.27749
5.81 0.258441
5.82 0.239375
5.83 0.220453
5.84 0.201836
5.85 0.183613
5.86 0.165862
5.87 0.148639
5.88 0.131973
5.89 0.115875
5.9 0.100379
5.91 0.0854221
5.92 0.0709452
5.93 0.0568994
5.94 0.0432338
5.95 0.0298995
5.96 0.0168604
5.97 0.00410216
5.98 -0.00841364
5.99 -0.0206804
6 -0.0326716
6.01 -0.0443396
6.02 -0.0556161
6.03 -0.0663688
6.04 -0.0764906
6.05 -0.0858783
6.06 -0.094399
6.07 -0.101915
6.08 -0.108288
6.09 -0.113371
6.1 -0.116897
6.11 -0.118907
6.12 -0.119323
6.13 -0.118098
6.14 -0.115212
6.15 -0.110679
6.16 -0.10445
6.17 -0.0966433
6.18 -0.0874674
6.19 -0.0770773
6.2 -0.0656547
6.21 -0.0534038
6.22 -0.0405461
6.23 -0.0272984
6.24 -0.013964
6.25 -0.000776955
6.26 0.0120389
6.27 0.0242761
6.28 0.0357496
6.29 0.0462458
6.3 0.0556121
6.31 0.0638276
6.32 0.0708476
6.33 0.0766647
6.34 0.0813079
6.35 0.0848414
6.36 0.0872666
6.37 0.0888201
6.38 0.0896648
6.39 0.0899676
6.4 0.0899048
6.41 0.0896562
6.42 0.089406
6.43 0.0893501
6.44 0.0896359
6.45 0.0903923
6.46 0.0917246
6.47 0.0937112
6.48 0.0964028
6.49 0.0998891
6.5 0.104106
6.51 0.108996
6.52 0.114497
6.53 0.120525
6.54 0.126984
6.55 0.13377
6.56 0.140765
6.57 0.147828
6.58 0.154849
6.59 0.161731
6.6 0.168386
6.61 0.174747
6.62 0.180733
6.63 0.186332
6.64 0.191555
6.65 0.196419
6.66 0.200962
6.67 0.205236
6.68 0.209308
6.69 0.213253
6.7 0.217172
6.71 0.221147
6.72 0.225254
6.73 0.229561
6.74 0.234123
6.75 0.239002
6.76 0.244208
6.77 0.24972
6.78 0.255508
6.79 0.261518
6.8 0.267679
6.81 0.273893
6.82 0.280031
6.83 0.28596
6.84 0.291541
6.85 0.296634
6.86 0.301096
6.87 0.304788
6.88 0.307518
6.89 0.309161
6.9 0.309672
6.91 0.308977
6.92 0.307024
6.93 0.303787
6.94 0.299262
6.95 0.293332
6.96 0.286191
6.97 0.277914
6.98 0.268592
6.99 0.25833
7 0.247242
7.01 0.235424
7.02 0.223012
7.03 0.210175
7.04 0.197031
7.05 0.183691
7.06 0.170253
7.07 0.156798
7.08 0.143406
7.09 0.130125
7.1 0.116983
7.11 0.103994
7.12 0.0911558
7.13 0.0784545
7.14 0.0658687
7.15 0.0533643
7.16 0.0408958
7.17 0.0284261
7.18 0.0159205
7.19 0.00334991
7.2 -0.00930651
7.21 -0.0220684
7.22 -0.0349257
7.23 -0.0478586
7.24 -0.0608366
7.25 -0.0738165
7.26 -0.0867439
7.27 -0.0995487
7.28 -0.112137
7.29 -0.124441
7.3 -0.136383
7.31 -0.147884
7.32 -0.158872
7.33 -0.169281
7.34 -0.179002
7.35 -0.188018
7.36 -0.196332
7.37 -0.203938
7.38 -0.210847
7.39 -0.217089
7.4 -0.222701
7.41 -0.227707
7.42 -0.232248
7.43 -0.236412
7.44 -0.240296
7.45 -0.244
7.46 -0.247628
7.47 -0.251285
7.48 -0.255077
7.49 -0.259083
7.5 -0.263371
7.51 -0.267991
7.52 -0.272979
7.53 -0.278353
7.54 -0.284144
7.55 -0.290283
7.56 -0.296719
7.57 -0.303388
7.58 -0.310207
7.59 -0.317081
7.6 -0.323894
7.61 -0.330515
7.62 -0.336828
7.63 -0.342715
7.64 -0.348061
7.65 -0.352755
7.66 -0.3567
7.67 -0.359705
7.68 -0.361782
7.69 -0.362883
7.7 -0.362973
7.71 -0.362033
7.72 -0.360066
7.73 -0.357044
7.74 -0.352988
7.75 -0.348024
7.76 -0.34222
7.77 -0.335658
7.78 -0.328425
7.79 -0.32062
7.8 -0.312306
7.81 -0.30364
7.82 -0.294732
7.83 -0.285686
7.84 -0.276598
7.85 -0.267562
7.86 -0.258672
7.87 -0.250027
7.88 -0.241683
7.89 -0.233698
7.9 -0.226125
7.91 -0.219005
7.92 -0.212372
7.93 -0.206301
7.94 -0.200779
7.95 -0.195802
7.96 -0.191374
7.97 -0.187493
7.98 -0.184155
7.99 -0.18136
8 -0.179127
8.01 -0.177388
8.02 -0.176122
8.03 -0.175303
8.04 -0.174904
8.05 -0.174896
8.06 -0.175273
8.07 -0.175981
8.08 -0.176972
8.09 -0.178207
8.1 -0.17965
8.11 -0.181261
8.12 -0.183002
8.13 -0.184837
8.14 -0.186715
8.15 -0.1886
8.16 -0.190455
8.17 -0.192247
8.18 -0.193944
8.19 -0.195506
8.2 -0.196906
8.21 -0.198126
8.22 -0.199146
8.23 -0.199946
8.24 -0.20051
8.25 -0.200819
8.26 -0.200828
8.27 -0.200549
8.28 -0.199964
8.29 -0.199055
8.3 -0.1978
8.31 -0.196174
8.32 -0.194124
8.33 -0.191609
8.34 -0.188615
8.35 -0.185099
8.36 -0.181015
8.37 -0.176312
8.38 -0.170938
8.39 -0.164753
8.4 -0.15777
8.41 -0.149943
8.42 -0.14122
8.43 -0.131557
8.44 -0.120913
8.45 -0.109211
8.46 -0.0963992
8.47 -0.0825415
8.48 -0.0676414
8.49 -0.051715
8.5 -0.0347913
8.51 -0.0169128
8.52 0.00194706
8.53 0.0216393
8.54 0.0420652
8.55 0.0631335
8.56 0.0847445
8.57 0.106793
8.58 0.129176
8.59 0.151778
8.6 0.174461
8.61 0.19712
8.62 0.21965
8.63 0.241956
8.64 0.26395
8.65 0.285514
8.66 0.306596
8.67 0.327152
8.68 0.347138
8.69 0.366521
8.7 0.385275
8.71 0.403368
8.72 0.420741
8.73 0.437451
8.74 0.453495
8.75 0.468869
8.76 0.483568
8.77 0.497585
8.78 0.51085
8.79 0.523362
8.8 0.535119
8.81 0.546079
8.82 0.556194
8.83 0.565404
8.84 0.573628
8.85 0.580684
8.86 0.586592
8.87 0.591264
8.88 0.594611
8.89 0.596544
8.9 0.596978
8.91 0.595722
8.92 0.592714
8.93 0.587977
8.94 0.58146
8.95 0.573129
8.96 0.562965
8.97 0.550963
8.98 0.53693
8.99 0.521114
9 0.503568
9.01 0.484358
9.02 0.463566
9.03 0.441288
9.04 0.417562
9.05 0.39251
9.06 0.366345
9.07 0.339194
9.08 0.311191
9.09 0.282467
9.1 0.253154
9.11 0.223347
9.12 0.193228
9.13 0.162921
9.14 0.13254
9.15 0.102196
9.16 0.0719926
9.17 0.0420434
9.18 0.0124675
9.19 -0.0166633
9.2 -0.0452605
9.21 -0.0732369
9.22 -0.100506
9.23 -0.12698
9.24 -0.152478
9.25 -0.176967
9.26 -0.200374
9.27 -0.222607
9.28 -0.243571
9.29 -0.263174
9.3 -0.281274
9.31 -0.297686
9.32 -0.31245
9.33 -0.325488
9.34 -0.336727
9.35 -0.346106
9.36 -0.353573
9.37 -0.358923
9.38 -0.362233
9.39 -0.363562
9.4 -0.36292
9.41 -0.360335
9.42 -0.355849
9.43 -0.349487
9.44 -0.341197
9.45 -0.331249
9.46 -0.319742
9.47 -0.306789
9.48 -0.292507
9.49 -0.27702
9.5 -0.260381
9.51 -0.242767
9.52 -0.224343
9.53 -0.205228
9.54 -0.18553
9.55 -0.165351
9.56 -0.144779
9.57 -0.123875
9.58 -0.102747
9.59 -0.0814538
9.6 -0.0600436
9.61 -0.0385575
9.62 -0.017029
9.63 0.00451288
9.64 0.0260396
9.65 0.0475276
9.66 0.0689525
9.67 0.0902874
9.68 0.111501
9.69 0.132555
9.7 0.153375
9.71 0.173926
9.72 0.194143
9.73 0.213954
9.74 0.23328
9.75 0.252034
9.76 0.270082
9.77 0.287304
9.78 0.303644
9.79 0.319006
9.8 0.333294
9.81 0.34642
9.82 0.358302
9.83 0.368726
9.84 0.37775
9.85 0.385348
9.86 0.391495
9.87 0.396181
9.88 0.399412
9.89 0.401154
9.9 0.401403
9.91 0.400325
9.92 0.397989
9.93 0.394475
9.94 0.389873
9.95 0.384278
9.96 0.377716
9.97 0.370361
9.98 0.362334
9.99 0.35373
10 0.344638
10.01 0.335139
10.02 0.325299
10.03 0.315171
10.04 0.304833
10.05 0.294322
10.06 0.283665
10.07 0.272882
10.08 0.261981
10.09 0.250955
10.1 0.239805
10.11 0.228528
10.12 0.217115
10.13 0.205558
10.14 0.19385
10.15 0.181987
10.16 0.169963
10.17 0.157803
10.18 0.145528
10.19 0.133166
10.2 0.12075
10.21 0.108325
10.22 0.095946
10.23 0.0836756
10.24 0.0715718
10.25 0.0596965
10.26 0.0481124
10.27 0.0368802
10.28 0.0260607
10.29 0.0157592
10.3 0.00597213
10.31 -0.00326631
10.32 -0.0119323
10.33 -0.0200129
10.34 -0.0275068
10.35 -0.0343913
10.36 -0.0406955
10.37 -0.0464884
10.38 -0.0518163
10.39 -0.0567343
10.4 -0.0613049
10.41 -0.0655963
10.42 -0.0696658
10.43 -0.0736175
10.44 -0.0775264
10.45 -0.0814646
10.46 -0.0855003
10.47 -0.0896966
10.48 -0.0941229
10.49 -0.098839
10.5 -0.103867
10.51 -0.109237
10.52 -0.114968
10.53 -0.12107
10.54 -0.127546
10.55 -0.134427
10.56 -0.141666
10.57 -0.149236
10.58 -0.157114
10.59 -0.165271
10.6 -0.173677
10.61 -0.182307
10.62 -0.191132
10.63 -0.200106
10.64 -0.2092
10.65 -0.218386
10.66 -0.22764
10.67 -0.236942
10.68 -0.246273
10.69 -0.255614
10.7 -0.264951
10.71 -0.274273
10.72 -0.283571
10.73 -0.292833
10.74 -0.302051
10.75 -0.31121
10.76 -0.320303
10.77 -0.32932
10.78 -0.338248
10.79 -0.347074
10.8 -0.355781
10.81 -0.364341
10.82 -0.37274
10.83 -0.380966
10.84 -0.389001
10.85 -0.396828
10.86 -0.404431
10.87 -0.411791
10.88 -0.418875
10.89 -0.425697
10.9 -0.432252
10.91 -0.438536
10.92 -0.44455
10.93 -0.450296
10.94 -0.45576
10.95 -0.460957
10.96 -0.465905
10.97 -0.470614
10.98 -0.47509
10.99 -0.479339
11 -0.483362
11.01 -0.487134
11.02 -0.490674
11.03 -0.49397
11.04 -0.497005
11.05 -0.499758
11.06 -0.502198
11.07 -0.504271
11.08 -0.505927
11.09 -0.507143
11.1 -0.50787
11.11 -0.508057
11.12 -0.507653
11.13 -0.506605
11.14 -0.504782
11.15 -0.502208
11.16 -0.498848
11.17 -0.494669
11.18 -0.489648
11.19 -0.48377
11.2 -0.47699
11.21 -0.469296
11.22 -0.460768
11.23 -0.451437
11.24 -0.441342
11.25 -0.430533
11.26 -0.419066
11.27 -0.406953
11.28 -0.394319
11.29 -0.381247
11.3 -0.367808
11.31 -0.354075
11.32 -0.340113
11.33 -0.325981
11.34 -0.311736
11.35 -0.297432
11.36 -0.283105
11.37 -0.268775
11.38 -0.254454
11.39 -0.24014
11.4 -0.225821
11.41 -0.211468
11.42 -0.197048
11.43 -0.182519
11.44 -0.167832
11.45 -0.152937
11.46 -0.137771
11.47 -0.122252
11.48 -0.106357
11.49 -0.0900397
11.5 -0.073263
11.51 -0.0559977
11.52 -0.0382249
11.53 -0.0198977
11.54 -0.00104236
11.55 0.0183006
11.56 0.038099
11.57 0.0583091
11.58 0.0788767
11.59 0.099741
11.6 0.120841
11.61 0.142069
11.62 0.163342
11.63 0.184578
11.64 0.205694
11.65 0.226609
11.66 0.247226
11.67 0.267471
11.68 0.2873
11.69 0.306664
11.7 0.325522
11.71 0.343846
11.72 0.361613
11.73 0.37875
11.74 0.395321
11.75 0.411334
11.76 0.4268
11.77 0.441737
11.78 0.456162
11.79 0.470066
11.8 0.483463
11.81 0.496394
11.82 0.508862
11.83 0.520861
11.84 0.532379
11.85 0.543391
11.86 0.5538
11.87 0.563608
11.88 0.572762
11.89 0.581195
11.9 0.588832
11.91 0.595591
11.92 0.601339
11.93 0.605944
11.94 0.609387
11.95 0.611582
11.96 0.612447
11.97 0.611907
11.98 0.609896
11.99 0.606209
12 0.600917
12.01 0.59403
12.02 0.585539
12.03 0.575452
12.04 0.563792
12.05 0.55055
12.06 0.535714
12.07 0.519484
12.08 0.501943
12.09 0.483186
12.1 0.463316
12.11 0.442442
12.12 0.420612
12.13 0.398008
12.14 0.374774
12.15 0.351026
12.16 0.326879
12.17 0.302442
12.18 0.277816
12.19 0.253107
12.2 0.228421
12.21 0.203841
12.22 0.179446
12.23 0.155308
12.24 0.131494
12.25 0.108101
