# xPDFsuite Configuration #
[PDF]
wavelength = 0.1
dataformat = QA
inputfile = BiMsol6_insitu_700 C-00300.xy
backgroundfile = Quartz2mm-dist500-00000.xy
mode = xray
bgscale = 0.0042
composition = Bi2Fe4O9
outputtype = gr
qmaxinst = 24.998449118
qmin = 0.1
qmax = 21.4986662415
rmax = 80.0
rmin = 0.0
rstep = 0.01
rpoly = 0.9

[Misc]
inputdir = C:/Data/Seafile/CPH/Beamtime/Desy Oct 20/In situ data/Processed/BiMsol6/PDF
savedir = C:/Data/Seafile/CPH/Beamtime/Desy Oct 20/In situ data/PDF/BiMsol6
backgroundfilefull = C:/Data/Seafile/CPH/Beamtime/Desy Oct 20/In situ data/Processed/Standard_Empty_Cap/Quartz2mm-dist500-00000.xy

#### start data
#S 1
#L r($\AA$)  G($\AA^{-2}$)
0 0
0.01 0.00665393
0.02 0.0129343
0.03 0.0185215
0.04 0.0231284
0.05 0.0265141
0.06 0.0284948
0.07 0.028869
0.08 0.0275776
0.09 0.0247679
0.1 0.0205605
0.11 0.0151434
0.12 0.00876318
0.13 0.00171426
0.14 -0.00567292
0.15 -0.0129804
0.16 -0.0198558
0.17 -0.0259684
0.18 -0.0310212
0.19 -0.034766
0.2 -0.0369474
0.21 -0.0373901
0.22 -0.0361932
0.23 -0.0334232
0.24 -0.0292269
0.25 -0.0238271
0.26 -0.0175135
0.27 -0.0106153
0.28 -0.00360953
0.29 0.00307902
0.3 0.00903804
0.31 0.0138751
0.32 0.0172371
0.33 0.0187662
0.34 0.0181122
0.35 0.0153251
0.36 0.0103997
0.37 0.00343718
0.38 -0.00535285
0.39 -0.0156554
0.4 -0.0271065
0.41 -0.0390741
0.42 -0.0509378
0.43 -0.0620668
0.44 -0.0718084
0.45 -0.0795121
0.46 -0.0844901
0.47 -0.0858576
0.48 -0.0834187
0.49 -0.0768135
0.5 -0.0658067
0.51 -0.0503026
0.52 -0.0303548
0.53 -0.00589149
0.54 0.022527
0.55 0.054162
0.56 0.0883274
0.57 0.124221
0.58 0.160946
0.59 0.197526
0.6 0.232717
0.61 0.265543
0.62 0.295024
0.63 0.320243
0.64 0.340375
0.65 0.354716
0.66 0.362285
0.67 0.36269
0.68 0.356115
0.69 0.342577
0.7 0.322277
0.71 0.295601
0.72 0.263104
0.73 0.22501
0.74 0.182841
0.75 0.137587
0.76 0.0902964
0.77 0.0420539
0.78 -0.00604842
0.79 -0.0528314
0.8 -0.0971148
0.81 -0.138102
0.82 -0.175027
0.83 -0.207263
0.84 -0.234341
0.85 -0.255959
0.86 -0.271414
0.87 -0.281284
0.88 -0.285895
0.89 -0.285641
0.9 -0.281047
0.91 -0.272746
0.92 -0.261369
0.93 -0.247715
0.94 -0.23281
0.95 -0.217447
0.96 -0.202384
0.97 -0.188321
0.98 -0.175876
0.99 -0.165806
1 -0.158398
1.01 -0.153849
1.02 -0.152283
1.03 -0.153699
1.04 -0.15798
1.05 -0.164963
1.06 -0.174415
1.07 -0.18569
1.08 -0.198324
1.09 -0.21182
1.1 -0.225673
1.11 -0.239392
1.12 -0.252431
1.13 -0.264362
1.14 -0.27488
1.15 -0.283733
1.16 -0.290755
1.17 -0.295869
1.18 -0.299051
1.19 -0.300264
1.2 -0.299884
1.21 -0.298155
1.22 -0.29537
1.23 -0.291852
1.24 -0.287938
1.25 -0.283986
1.26 -0.280357
1.27 -0.277326
1.28 -0.275119
1.29 -0.273907
1.3 -0.27379
1.31 -0.274811
1.32 -0.277035
1.33 -0.280217
1.34 -0.284177
1.35 -0.288686
1.36 -0.293478
1.37 -0.298261
1.38 -0.302697
1.39 -0.306445
1.4 -0.309255
1.41 -0.310894
1.42 -0.311179
1.43 -0.309984
1.44 -0.30725
1.45 -0.302825
1.46 -0.296977
1.47 -0.289883
1.48 -0.281776
1.49 -0.272942
1.5 -0.263708
1.51 -0.25445
1.52 -0.245602
1.53 -0.23753
1.54 -0.23058
1.55 -0.225061
1.56 -0.221231
1.57 -0.219287
1.58 -0.219559
1.59 -0.221911
1.6 -0.226247
1.61 -0.232421
1.62 -0.240209
1.63 -0.249312
1.64 -0.259387
1.65 -0.269984
1.66 -0.280576
1.67 -0.290694
1.68 -0.299871
1.69 -0.307659
1.7 -0.313648
1.71 -0.317258
1.72 -0.31831
1.73 -0.316672
1.74 -0.312239
1.75 -0.305001
1.76 -0.295038
1.77 -0.282465
1.78 -0.267435
1.79 -0.250532
1.8 -0.232172
1.81 -0.212815
1.82 -0.192954
1.83 -0.173093
1.84 -0.153811
1.85 -0.135621
1.86 -0.118925
1.87 -0.104089
1.88 -0.0914091
1.89 -0.0810993
1.9 -0.0733263
1.91 -0.0683452
1.92 -0.0658229
1.93 -0.0656002
1.94 -0.0674407
1.95 -0.071042
1.96 -0.0760476
1.97 -0.0821005
1.98 -0.0887007
1.99 -0.0953777
2 -0.101723
2.01 -0.107359
2.02 -0.111955
2.03 -0.11523
2.04 -0.116798
2.05 -0.116705
2.06 -0.114927
2.07 -0.111518
2.08 -0.106616
2.09 -0.100426
2.1 -0.0931861
2.11 -0.0852779
2.12 -0.0771374
2.13 -0.069164
2.14 -0.061764
2.15 -0.0553345
2.16 -0.0502489
2.17 -0.0470578
2.18 -0.0458903
2.19 -0.0469367
2.2 -0.0503282
2.21 -0.056119
2.22 -0.0642846
2.23 -0.0748176
2.24 -0.0875593
2.25 -0.102087
2.26 -0.118083
2.27 -0.135186
2.28 -0.153003
2.29 -0.171123
2.3 -0.18908
2.31 -0.206439
2.32 -0.222835
2.33 -0.237937
2.34 -0.25147
2.35 -0.263212
2.36 -0.272943
2.37 -0.280477
2.38 -0.285982
2.39 -0.289532
2.4 -0.291262
2.41 -0.291365
2.42 -0.29008
2.43 -0.287617
2.44 -0.284385
2.45 -0.280736
2.46 -0.276992
2.47 -0.273459
2.48 -0.270424
2.49 -0.268162
2.5 -0.266974
2.51 -0.266938
2.52 -0.268153
2.53 -0.270666
2.54 -0.274468
2.55 -0.279503
2.56 -0.285741
2.57 -0.29297
2.58 -0.300959
2.59 -0.309498
2.6 -0.318362
2.61 -0.327322
2.62 -0.336146
2.63 -0.344561
2.64 -0.352395
2.65 -0.359483
2.66 -0.365689
2.67 -0.370912
2.68 -0.375086
2.69 -0.378105
2.7 -0.379991
2.71 -0.380834
2.72 -0.380696
2.73 -0.379656
2.74 -0.377805
2.75 -0.375241
2.76 -0.372003
2.77 -0.368262
2.78 -0.364097
2.79 -0.359571
2.8 -0.354727
2.81 -0.349586
2.82 -0.344131
2.83 -0.33833
2.84 -0.332156
2.85 -0.325544
2.86 -0.318419
2.87 -0.310697
2.88 -0.302292
2.89 -0.29303
2.9 -0.282904
2.91 -0.271864
2.92 -0.259872
2.93 -0.246909
2.94 -0.232985
2.95 -0.218097
2.96 -0.202293
2.97 -0.185734
2.98 -0.168539
2.99 -0.150845
3 -0.132805
3.01 -0.114585
3.02 -0.0963684
3.03 -0.0783438
3.04 -0.0606707
3.05 -0.0434947
3.06 -0.0269428
3.07 -0.0111189
3.08 0.00387266
3.09 0.0179366
3.1 0.0311343
3.11 0.0434881
3.12 0.0550498
3.13 0.0658984
3.14 0.076136
3.15 0.0858547
3.16 0.0952349
3.17 0.104437
3.18 0.113608
3.19 0.122889
3.2 0.132411
3.21 0.142299
3.22 0.152693
3.23 0.16362
3.24 0.175118
3.25 0.187196
3.26 0.199837
3.27 0.212994
3.28 0.22662
3.29 0.240593
3.3 0.254776
3.31 0.269041
3.32 0.283251
3.33 0.297266
3.34 0.310945
3.35 0.324099
3.36 0.336656
3.37 0.34852
3.38 0.359617
3.39 0.369896
3.4 0.379328
3.41 0.387857
3.42 0.395516
3.43 0.402398
3.44 0.408567
3.45 0.414101
3.46 0.419092
3.47 0.423635
3.48 0.427801
3.49 0.431734
3.5 0.435523
3.51 0.439244
3.52 0.442962
3.53 0.446722
3.54 0.450559
3.55 0.45448
3.56 0.458468
3.57 0.462492
3.58 0.466503
3.59 0.470443
3.6 0.474238
3.61 0.477781
3.62 0.481001
3.63 0.483819
3.64 0.486159
3.65 0.487953
3.66 0.489142
3.67 0.489651
3.68 0.489423
3.69 0.488495
3.7 0.486871
3.71 0.484568
3.72 0.481617
3.73 0.478062
3.74 0.473908
3.75 0.469263
3.76 0.464202
3.77 0.45879
3.78 0.453089
3.79 0.447154
3.8 0.44103
3.81 0.434752
3.82 0.428361
3.83 0.42187
3.84 0.415279
3.85 0.408579
3.86 0.401749
3.87 0.394742
3.88 0.387524
3.89 0.380058
3.9 0.372298
3.91 0.364202
3.92 0.355727
3.93 0.346831
3.94 0.337446
3.95 0.327596
3.96 0.317275
3.97 0.306487
3.98 0.295244
3.99 0.283572
4 0.271478
4.01 0.259019
4.02 0.246261
4.03 0.233256
4.04 0.220055
4.05 0.20671
4.06 0.19327
4.07 0.179777
4.08 0.166276
4.09 0.152796
4.1 0.139358
4.11 0.125973
4.12 0.112646
4.13 0.0993797
4.14 0.0861641
4.15 0.0729853
4.16 0.0598314
4.17 0.046692
4.18 0.0335598
4.19 0.0204334
4.2 0.00732168
4.21 -0.00575808
4.22 -0.0187777
4.23 -0.0316981
4.24 -0.0444691
4.25 -0.0570305
4.26 -0.0692953
4.27 -0.0811679
4.28 -0.0925858
4.29 -0.103465
4.3 -0.113724
4.31 -0.123286
4.32 -0.132082
4.33 -0.139966
4.34 -0.146964
4.35 -0.153068
4.36 -0.158276
4.37 -0.162604
4.38 -0.166092
4.39 -0.16877
4.4 -0.170701
4.41 -0.172045
4.42 -0.172913
4.43 -0.173428
4.44 -0.173717
4.45 -0.173911
4.46 -0.174152
4.47 -0.174571
4.48 -0.175272
4.49 -0.176344
4.5 -0.177856
4.51 -0.179857
4.52 -0.182383
4.53 -0.185461
4.54 -0.189013
4.55 -0.192981
4.56 -0.197287
4.57 -0.201834
4.58 -0.206511
4.59 -0.211185
4.6 -0.21571
4.61 -0.219959
4.62 -0.223808
4.63 -0.227146
4.64 -0.229874
4.65 -0.231903
4.66 -0.233109
4.67 -0.233538
4.68 -0.233193
4.69 -0.232103
4.7 -0.230324
4.71 -0.227934
4.72 -0.225008
4.73 -0.221697
4.74 -0.21816
4.75 -0.214541
4.76 -0.210988
4.77 -0.207645
4.78 -0.204652
4.79 -0.202196
4.8 -0.200339
4.81 -0.19916
4.82 -0.198718
4.83 -0.199043
4.84 -0.200139
4.85 -0.202026
4.86 -0.204648
4.87 -0.207883
4.88 -0.211639
4.89 -0.215804
4.9 -0.220261
4.91 -0.224882
4.92 -0.229531
4.93 -0.23407
4.94 -0.238388
4.95 -0.242385
4.96 -0.24598
4.97 -0.249111
4.98 -0.251712
4.99 -0.253751
5 -0.255271
5.01 -0.2563
5.02 -0.256883
5.03 -0.25708
5.04 -0.256962
5.05 -0.256592
5.06 -0.256078
5.07 -0.255502
5.08 -0.254935
5.09 -0.254438
5.1 -0.254055
5.11 -0.25382
5.12 -0.253748
5.13 -0.253811
5.14 -0.253971
5.15 -0.254171
5.16 -0.254339
5.17 -0.254386
5.18 -0.25418
5.19 -0.253615
5.2 -0.252583
5.21 -0.250977
5.22 -0.248692
5.23 -0.245637
5.24 -0.241711
5.25 -0.236789
5.26 -0.230918
5.27 -0.224086
5.28 -0.216308
5.29 -0.20762
5.3 -0.198079
5.31 -0.187712
5.32 -0.17666
5.33 -0.165063
5.34 -0.153043
5.35 -0.140725
5.36 -0.128234
5.37 -0.11569
5.38 -0.103224
5.39 -0.0909334
5.4 -0.0788989
5.41 -0.0671818
5.42 -0.0558244
5.43 -0.0448498
5.44 -0.0342865
5.45 -0.0241103
5.46 -0.0142692
5.47 -0.0047196
5.48 0.00458968
5.49 0.0137131
5.5 0.0227043
5.51 0.0316073
5.52 0.0404721
5.53 0.0493211
5.54 0.0581601
5.55 0.0669758
5.56 0.075735
5.57 0.0843734
5.58 0.0928018
5.59 0.100931
5.6 0.10865
5.61 0.115835
5.62 0.122358
5.63 0.128088
5.64 0.132782
5.65 0.136403
5.66 0.138858
5.67 0.140064
5.68 0.139963
5.69 0.138524
5.7 0.135689
5.71 0.13146
5.72 0.126003
5.73 0.11942
5.74 0.11184
5.75 0.103416
5.76 0.0943228
5.77 0.084722
5.78 0.0748735
5.79 0.0649888
5.8 0.0552653
5.81 0.0458899
5.82 0.0370325
5.83 0.0288675
5.84 0.0215691
5.85 0.0151619
5.86 0.00969567
5.87 0.00518622
5.88 0.00161626
5.89 -0.00106323
5.9 -0.0028693
5.91 -0.00396606
5.92 -0.00450553
5.93 -0.00462735
5.94 -0.00447737
5.95 -0.00420119
5.96 -0.00394099
5.97 -0.00384691
5.98 -0.00401637
5.99 -0.00452558
6 -0.00542224
6.01 -0.00672309
6.02 -0.00841266
6.03 -0.0104628
6.04 -0.0127679
6.05 -0.0152004
6.06 -0.0176236
6.07 -0.0198834
6.08 -0.0218137
6.09 -0.0232359
6.1 -0.0238965
6.11 -0.023695
6.12 -0.0224915
6.13 -0.0201694
6.14 -0.0166408
6.15 -0.0118506
6.16 -0.00569967
6.17 0.00176995
6.18 0.0104216
6.19 0.0201495
6.2 0.0308139
6.21 0.0422439
6.22 0.0542435
6.23 0.0666116
6.24 0.0790558
6.25 0.0913422
6.26 0.103241
6.27 0.114534
6.28 0.125023
6.29 0.134471
6.3 0.142707
6.31 0.149695
6.32 0.155376
6.33 0.159731
6.34 0.16278
6.35 0.164583
6.36 0.16513
6.37 0.164676
6.38 0.1634
6.39 0.161484
6.4 0.159126
6.41 0.15653
6.42 0.153906
6.43 0.151481
6.44 0.149432
6.45 0.147914
6.46 0.147055
6.47 0.146953
6.48 0.147676
6.49 0.149334
6.5 0.15186
6.51 0.15519
6.52 0.159251
6.53 0.163946
6.54 0.169156
6.55 0.174753
6.56 0.180584
6.57 0.18647
6.58 0.192264
6.59 0.197831
6.6 0.203046
6.61 0.207807
6.62 0.211979
6.63 0.215528
6.64 0.218447
6.65 0.220736
6.66 0.222419
6.67 0.223546
6.68 0.224175
6.69 0.22437
6.7 0.224278
6.71 0.224
6.72 0.223641
6.73 0.223301
6.74 0.22307
6.75 0.223045
6.76 0.223286
6.77 0.223819
6.78 0.224656
6.79 0.225788
6.8 0.227179
6.81 0.228776
6.82 0.230503
6.83 0.232243
6.84 0.233885
6.85 0.235309
6.86 0.236393
6.87 0.237012
6.88 0.237006
6.89 0.236253
6.9 0.234695
6.91 0.232257
6.92 0.228882
6.93 0.224537
6.94 0.219211
6.95 0.212807
6.96 0.205472
6.97 0.197267
6.98 0.188265
6.99 0.178556
7 0.168236
7.01 0.157391
7.02 0.146138
7.03 0.134615
7.04 0.122921
7.05 0.111145
7.06 0.0993661
7.07 0.0876482
7.08 0.0760555
7.09 0.0646119
7.1 0.0533292
7.11 0.0422063
7.12 0.0312294
7.13 0.0203743
7.14 0.00961083
7.15 -0.00110103
7.16 -0.0118057
7.17 -0.022538
7.18 -0.0333269
7.19 -0.0441923
7.2 -0.055143
7.21 -0.0661802
7.22 -0.0772746
7.23 -0.088386
7.24 -0.0994616
7.25 -0.110435
7.26 -0.121227
7.27 -0.13174
7.28 -0.141842
7.29 -0.151462
7.3 -0.1605
7.31 -0.168865
7.32 -0.176471
7.33 -0.183246
7.34 -0.189057
7.35 -0.1939
7.36 -0.197794
7.37 -0.200744
7.38 -0.202776
7.39 -0.20394
7.4 -0.20429
7.41 -0.203867
7.42 -0.202855
7.43 -0.201369
7.44 -0.199535
7.45 -0.197481
7.46 -0.195334
7.47 -0.193228
7.48 -0.191292
7.49 -0.189622
7.5 -0.188302
7.51 -0.187394
7.52 -0.186944
7.53 -0.186975
7.54 -0.187534
7.55 -0.188542
7.56 -0.18995
7.57 -0.191693
7.58 -0.193688
7.59 -0.195844
7.6 -0.198054
7.61 -0.200193
7.62 -0.202151
7.63 -0.203824
7.64 -0.205113
7.65 -0.205933
7.66 -0.206208
7.67 -0.20581
7.68 -0.204762
7.69 -0.203051
7.7 -0.200678
7.71 -0.197665
7.72 -0.194049
7.73 -0.189863
7.74 -0.185175
7.75 -0.180105
7.76 -0.174742
7.77 -0.16918
7.78 -0.163516
7.79 -0.157843
7.8 -0.152267
7.81 -0.146874
7.82 -0.141733
7.83 -0.136904
7.84 -0.132435
7.85 -0.128361
7.86 -0.124719
7.87 -0.121537
7.88 -0.118773
7.89 -0.116411
7.9 -0.114424
7.91 -0.112777
7.92 -0.111432
7.93 -0.110364
7.94 -0.109508
7.95 -0.108812
7.96 -0.108235
7.97 -0.107739
7.98 -0.107291
7.99 -0.106866
8 -0.106439
8.01 -0.105997
8.02 -0.105533
8.03 -0.105048
8.04 -0.104546
8.05 -0.104036
8.06 -0.10353
8.07 -0.103046
8.08 -0.102598
8.09 -0.102201
8.1 -0.101868
8.11 -0.101613
8.12 -0.101444
8.13 -0.101378
8.14 -0.101407
8.15 -0.101529
8.16 -0.101742
8.17 -0.102038
8.18 -0.102407
8.19 -0.102844
8.2 -0.103332
8.21 -0.103857
8.22 -0.104405
8.23 -0.104966
8.24 -0.105527
8.25 -0.106078
8.26 -0.106607
8.27 -0.107106
8.28 -0.107566
8.29 -0.10798
8.3 -0.108336
8.31 -0.108624
8.32 -0.108824
8.33 -0.108917
8.34 -0.108887
8.35 -0.108708
8.36 -0.108351
8.37 -0.107783
8.38 -0.106964
8.39 -0.105816
8.4 -0.104317
8.41 -0.102422
8.42 -0.10008
8.43 -0.0972426
8.44 -0.0938622
8.45 -0.0898658
8.46 -0.0851926
8.47 -0.0798542
8.48 -0.0738281
8.49 -0.067101
8.5 -0.0596703
8.51 -0.0515446
8.52 -0.0426813
8.53 -0.033172
8.54 -0.023076
8.55 -0.0124509
8.56 -0.00136371
8.57 0.0101105
8.58 0.0218975
8.59 0.0339092
8.6 0.0460326
8.61 0.0581792
8.62 0.0702628
8.63 0.0822016
8.64 0.0939206
8.65 0.105322
8.66 0.116361
8.67 0.127
8.68 0.137209
8.69 0.146965
8.7 0.156259
8.71 0.165081
8.72 0.173413
8.73 0.181317
8.74 0.18882
8.75 0.195952
8.76 0.202746
8.77 0.209233
8.78 0.215424
8.79 0.221356
8.8 0.22706
8.81 0.232543
8.82 0.237808
8.83 0.242846
8.84 0.247635
8.85 0.252117
8.86 0.256279
8.87 0.260074
8.88 0.263447
8.89 0.266341
8.9 0.268694
8.91 0.270401
8.92 0.271401
8.93 0.271669
8.94 0.271157
8.95 0.269822
8.96 0.267633
8.97 0.264568
8.98 0.260517
8.99 0.255587
9 0.249799
9.01 0.243183
9.02 0.235782
9.03 0.227649
9.04 0.218813
9.05 0.209349
9.06 0.199376
9.07 0.18897
9.08 0.178212
9.09 0.167181
9.1 0.155953
9.11 0.144594
9.12 0.133188
9.13 0.121794
9.14 0.110464
9.15 0.0992412
9.16 0.0881611
9.17 0.0772614
9.18 0.0665734
9.19 0.0560998
9.2 0.0458529
9.21 0.0358423
9.22 0.0260765
9.23 0.0165642
9.24 0.00734205
9.25 -0.00159456
9.26 -0.0102335
9.27 -0.0185525
9.28 -0.0265244
9.29 -0.034117
9.3 -0.0412785
9.31 -0.0479372
9.32 -0.0540836
9.33 -0.0596702
9.34 -0.0646489
9.35 -0.0689724
9.36 -0.0725954
9.37 -0.075411
9.38 -0.0774188
9.39 -0.0786161
9.4 -0.0789845
9.41 -0.0785151
9.42 -0.0772089
9.43 -0.0750608
9.44 -0.0720363
9.45 -0.0682499
9.46 -0.063746
9.47 -0.0585781
9.48 -0.0528068
9.49 -0.0464988
9.5 -0.0396969
9.51 -0.0324999
9.52 -0.0250029
9.53 -0.0172806
9.54 -0.00940494
9.55 -0.00144447
9.56 0.00653694
9.57 0.0144718
9.58 0.02231
9.59 0.0300091
9.6 0.037534
9.61 0.044856
9.62 0.0519527
9.63 0.0587916
9.64 0.065361
9.65 0.0716666
9.66 0.077703
9.67 0.0834657
9.68 0.0889504
9.69 0.0941521
9.7 0.0990296
9.71 0.103605
9.72 0.107867
9.73 0.1118
9.74 0.115386
9.75 0.118605
9.76 0.121413
9.77 0.123779
9.78 0.125704
9.79 0.127168
9.8 0.128153
9.81 0.128642
9.82 0.128625
9.83 0.128044
9.84 0.126948
9.85 0.125354
9.86 0.123281
9.87 0.120751
9.88 0.117798
9.89 0.114445
9.9 0.110731
9.91 0.106736
9.92 0.102511
9.93 0.0981103
9.94 0.0935888
9.95 0.088999
9.96 0.0843933
9.97 0.0798228
9.98 0.0753255
9.99 0.0709321
10 0.0666656
10.01 0.0625405
10.02 0.0585669
10.03 0.0547493
10.04 0.0510619
10.05 0.0474849
10.06 0.0439925
10.07 0.0405542
10.08 0.0371361
10.09 0.0336984
10.1 0.030202
10.11 0.0266141
10.12 0.0229054
10.13 0.0190511
10.14 0.0150331
10.15 0.0108368
10.16 0.00644558
10.17 0.00188428
10.18 -0.00283114
10.19 -0.00767674
10.2 -0.0126212
10.21 -0.0176267
10.22 -0.0226478
10.23 -0.02763
10.24 -0.032523
10.25 -0.0372766
10.26 -0.0418423
10.27 -0.0461744
10.28 -0.0502299
10.29 -0.0539381
10.3 -0.0573045
10.31 -0.0603115
10.32 -0.0629501
10.33 -0.0652208
10.34 -0.0671328
10.35 -0.0686851
10.36 -0.0699101
10.37 -0.0708617
10.38 -0.0715805
10.39 -0.0721112
10.4 -0.0725016
10.41 -0.0728004
10.42 -0.0730572
10.43 -0.0733277
10.44 -0.0736551
10.45 -0.0740779
10.46 -0.0746289
10.47 -0.075335
10.48 -0.0762253
10.49 -0.0773169
10.5 -0.0786017
10.51 -0.0800769
10.52 -0.0817335
10.53 -0.0835572
10.54 -0.085529
10.55 -0.0876367
10.56 -0.089841
10.57 -0.0921135
10.58 -0.0944272
10.59 -0.0967561
10.6 -0.0990755
10.61 -0.101362
10.62 -0.103591
10.63 -0.105751
10.64 -0.107831
10.65 -0.109823
10.66 -0.111723
10.67 -0.113528
10.68 -0.115232
10.69 -0.116844
10.7 -0.118371
10.71 -0.119818
10.72 -0.121191
10.73 -0.122493
10.74 -0.123727
10.75 -0.12489
10.76 -0.125988
10.77 -0.127021
10.78 -0.127984
10.79 -0.128873
10.8 -0.129683
10.81 -0.1304
10.82 -0.131021
10.83 -0.131544
10.84 -0.131966
10.85 -0.132284
10.86 -0.1325
10.87 -0.132615
10.88 -0.132629
10.89 -0.132563
10.9 -0.132431
10.91 -0.13225
10.92 -0.132039
10.93 -0.13182
10.94 -0.131617
10.95 -0.131458
10.96 -0.131362
10.97 -0.131351
10.98 -0.13144
10.99 -0.131644
11 -0.13197
11.01 -0.132436
11.02 -0.133021
11.03 -0.133713
11.04 -0.134494
11.05 -0.135336
11.06 -0.136209
11.07 -0.137071
11.08 -0.137871
11.09 -0.138562
11.1 -0.139093
11.11 -0.139414
11.12 -0.139473
11.13 -0.139222
11.14 -0.138574
11.15 -0.137521
11.16 -0.136037
11.17 -0.134097
11.18 -0.131689
11.19 -0.128807
11.2 -0.125437
11.21 -0.121588
11.22 -0.117321
11.23 -0.112673
11.24 -0.10769
11.25 -0.102424
11.26 -0.0969343
11.27 -0.0912724
11.28 -0.0855235
11.29 -0.0797548
11.3 -0.0740292
11.31 -0.0684058
11.32 -0.0629387
11.33 -0.0576838
11.34 -0.0526963
11.35 -0.047987
11.36 -0.0435741
11.37 -0.039466
11.38 -0.0356612
11.39 -0.0321485
11.4 -0.0289288
11.41 -0.0259527
11.42 -0.0231752
11.43 -0.0205536
11.44 -0.0180414
11.45 -0.0155898
11.46 -0.0131483
11.47 -0.0106593
11.48 -0.00807702
11.49 -0.00535997
11.5 -0.00247166
11.51 0.000618373
11.52 0.00393392
11.53 0.00751118
11.54 0.0113506
11.55 0.0154428
11.56 0.0197816
11.57 0.0243547
11.58 0.0291445
11.59 0.0341313
11.6 0.0393019
11.61 0.0446085
11.62 0.0500223
11.63 0.0555149
11.64 0.0610587
11.65 0.0666282
11.66 0.072199
11.67 0.0777488
11.68 0.0832619
11.69 0.0887259
11.7 0.094132
11.71 0.0994738
11.72 0.104748
11.73 0.109944
11.74 0.115069
11.75 0.120124
11.76 0.125106
11.77 0.130013
11.78 0.134841
11.79 0.139575
11.8 0.144202
11.81 0.148713
11.82 0.153086
11.83 0.1573
11.84 0.161329
11.85 0.165141
11.86 0.168677
11.87 0.171923
11.88 0.174847
11.89 0.177417
11.9 0.179601
11.91 0.18137
11.92 0.182677
11.93 0.183486
11.94 0.183816
11.95 0.183657
11.96 0.183007
11.97 0.181871
11.98 0.180259
11.99 0.178146
12 0.175593
12.01 0.172638
12.02 0.169315
12.03 0.165659
12.04 0.161709
12.05 0.157496
12.06 0.153054
12.07 0.148439
12.08 0.143688
12.09 0.138831
12.1 0.133895
12.11 0.128903
12.12 0.123871
