# xPDFsuite Configuration #
[PDF]
wavelength = 0.1
dataformat = QA
inputfile = BiMsol6_insitu_700 C-00741.xy
backgroundfile = Quartz2mm-dist500-00000.xy
mode = xray
bgscale = 0.0042
composition = Bi2Fe4O9
outputtype = gr
qmaxinst = 24.998449118
qmin = 0.1
qmax = 21.4986662415
rmax = 80.0
rmin = 0.0
rstep = 0.01
rpoly = 0.9

[Misc]
inputdir = C:/Data/Seafile/CPH/Beamtime/Desy Oct 20/In situ data/Processed/BiMsol6/PDF
savedir = C:/Data/Seafile/CPH/Beamtime/Desy Oct 20/In situ data/PDF/BiMsol6
backgroundfilefull = C:/Data/Seafile/CPH/Beamtime/Desy Oct 20/In situ data/Processed/Standard_Empty_Cap/Quartz2mm-dist500-00000.xy

#### start data
#S 1
#L r($\AA$)  G($\AA^{-2}$)
0 0
0.01 0.0065344
0.02 0.0127011
0.03 0.0181855
0.04 0.0227049
0.05 0.0260219
0.06 0.0279554
0.07 0.0283068
0.08 0.0270171
0.09 0.0242309
0.1 0.0200664
0.11 0.0147079
0.12 0.00839756
0.13 0.0014246
0.14 -0.00588672
0.15 -0.0131248
0.16 -0.0199429
0.17 -0.026015
0.18 -0.0310485
0.19 -0.0347982
0.2 -0.0370117
0.21 -0.0375149
0.22 -0.0364035
0.23 -0.033741
0.24 -0.0296698
0.25 -0.0244071
0.26 -0.018236
0.27 -0.0114772
0.28 -0.00459911
0.29 0.00198137
0.3 0.00785942
0.31 0.0126494
0.32 0.0160035
0.33 0.0175696
0.34 0.0170019
0.35 0.0143466
0.36 0.00959546
0.37 0.00284486
0.38 -0.0057028
0.39 -0.0157418
0.4 -0.0269197
0.41 -0.0386194
0.42 -0.0502351
0.43 -0.0611507
0.44 -0.0707285
0.45 -0.0783322
0.46 -0.0832894
0.47 -0.0847355
0.48 -0.082476
0.49 -0.0761579
0.5 -0.0655499
0.51 -0.0505569
0.52 -0.03123
0.53 -0.00749861
0.54 0.020091
0.55 0.0508175
0.56 0.0840106
0.57 0.118886
0.58 0.154567
0.59 0.190098
0.6 0.22426
0.61 0.256101
0.62 0.284659
0.63 0.309039
0.64 0.328431
0.65 0.342146
0.66 0.349225
0.67 0.349283
0.68 0.342503
0.69 0.328902
0.7 0.308678
0.71 0.28221
0.72 0.250048
0.73 0.212412
0.74 0.170798
0.75 0.126179
0.76 0.0795854
0.77 0.0320864
0.78 -0.015244
0.79 -0.0612435
0.8 -0.10475
0.81 -0.14498
0.82 -0.181179
0.83 -0.212731
0.84 -0.239172
0.85 -0.260207
0.86 -0.275138
0.87 -0.28454
0.88 -0.288735
0.89 -0.288114
0.9 -0.283197
0.91 -0.274611
0.92 -0.26298
0.93 -0.249101
0.94 -0.233989
0.95 -0.218433
0.96 -0.203188
0.97 -0.188951
0.98 -0.176339
0.99 -0.166109
1 -0.158551
1.01 -0.153863
1.02 -0.152172
1.03 -0.153483
1.04 -0.157679
1.05 -0.164604
1.06 -0.174029
1.07 -0.185307
1.08 -0.197972
1.09 -0.211528
1.1 -0.225466
1.11 -0.239287
1.12 -0.252439
1.13 -0.264483
1.14 -0.275101
1.15 -0.284029
1.16 -0.291089
1.17 -0.296188
1.18 -0.299288
1.19 -0.300334
1.2 -0.299694
1.21 -0.297606
1.22 -0.294356
1.23 -0.290265
1.24 -0.285672
1.25 -0.280929
1.26 -0.27641
1.27 -0.272409
1.28 -0.269167
1.29 -0.266872
1.3 -0.265648
1.31 -0.265559
1.32 -0.266701
1.33 -0.268853
1.34 -0.271858
1.35 -0.275511
1.36 -0.279564
1.37 -0.283743
1.38 -0.287731
1.39 -0.291195
1.4 -0.29388
1.41 -0.295548
1.42 -0.296008
1.43 -0.295119
1.44 -0.292803
1.45 -0.288891
1.46 -0.283612
1.47 -0.277111
1.48 -0.269587
1.49 -0.261294
1.5 -0.252527
1.51 -0.243621
1.52 -0.234977
1.53 -0.226943
1.54 -0.219848
1.55 -0.213985
1.56 -0.209607
1.57 -0.206909
1.58 -0.206209
1.59 -0.207402
1.6 -0.210416
1.61 -0.215132
1.62 -0.221355
1.63 -0.228824
1.64 -0.237234
1.65 -0.246178
1.66 -0.255173
1.67 -0.263786
1.68 -0.271587
1.69 -0.27816
1.7 -0.283121
1.71 -0.28593
1.72 -0.286408
1.73 -0.284422
1.74 -0.279863
1.75 -0.272708
1.76 -0.263018
1.77 -0.250885
1.78 -0.23643
1.79 -0.220183
1.8 -0.202515
1.81 -0.183839
1.82 -0.164598
1.83 -0.145246
1.84 -0.126298
1.85 -0.108225
1.86 -0.091394
1.87 -0.0761385
1.88 -0.0627269
1.89 -0.0513556
1.9 -0.0421761
1.91 -0.0354131
1.92 -0.0307794
1.93 -0.0281355
1.94 -0.0272736
1.95 -0.0279281
1.96 -0.0297867
1.97 -0.032537
1.98 -0.0357467
1.99 -0.0390136
2 -0.0419928
2.01 -0.0443715
2.02 -0.0458824
2.03 -0.0463097
2.04 -0.0453643
2.05 -0.0431202
2.06 -0.0396003
2.07 -0.0349026
2.08 -0.0291969
2.09 -0.0227188
2.1 -0.0157534
2.11 -0.00869606
2.12 -0.00194979
2.13 0.00409498
2.14 0.00904918
2.15 0.0125403
2.16 0.0142269
2.17 0.0135557
2.18 0.0104903
2.19 0.00489426
2.2 -0.00330913
2.21 -0.0141166
2.22 -0.0274441
2.23 -0.043224
2.24 -0.0612284
2.25 -0.0809691
2.26 -0.102071
2.27 -0.124115
2.28 -0.146658
2.29 -0.16924
2.3 -0.191319
2.31 -0.212442
2.32 -0.232221
2.33 -0.250302
2.34 -0.266393
2.35 -0.280265
2.36 -0.291678
2.37 -0.300436
2.38 -0.306756
2.39 -0.310733
2.4 -0.31253
2.41 -0.312372
2.42 -0.310537
2.43 -0.307258
2.44 -0.30301
2.45 -0.2982
2.46 -0.293195
2.47 -0.288352
2.48 -0.283999
2.49 -0.280456
2.5 -0.278071
2.51 -0.276948
2.52 -0.277211
2.53 -0.278921
2.54 -0.282083
2.55 -0.28664
2.56 -0.292565
2.57 -0.299627
2.58 -0.307562
2.59 -0.316133
2.6 -0.325081
2.61 -0.33414
2.62 -0.343037
2.63 -0.351448
2.64 -0.359168
2.65 -0.365996
2.66 -0.37177
2.67 -0.376366
2.68 -0.379706
2.69 -0.381672
2.7 -0.382297
2.71 -0.381712
2.72 -0.380014
2.73 -0.377335
2.74 -0.37383
2.75 -0.369671
2.76 -0.365011
2.77 -0.36011
2.78 -0.355148
2.79 -0.350295
2.8 -0.345701
2.81 -0.341495
2.82 -0.337809
2.83 -0.334725
2.84 -0.332245
2.85 -0.330373
2.86 -0.329083
2.87 -0.328323
2.88 -0.32802
2.89 -0.328109
2.9 -0.328434
2.91 -0.328876
2.92 -0.329314
2.93 -0.329628
2.94 -0.329705
2.95 -0.329421
2.96 -0.328657
2.97 -0.327363
2.98 -0.325478
2.99 -0.322954
3 -0.319755
3.01 -0.31586
3.02 -0.311186
3.03 -0.305779
3.04 -0.299652
3.05 -0.2928
3.06 -0.285218
3.07 -0.276893
3.08 -0.26778
3.09 -0.2578
3.1 -0.246974
3.11 -0.235249
3.12 -0.222561
3.13 -0.208837
3.14 -0.194001
3.15 -0.177865
3.16 -0.160405
3.17 -0.14159
3.18 -0.121361
3.19 -0.0996744
3.2 -0.0765062
3.21 -0.0518259
3.22 -0.0255572
3.23 0.0020934
3.24 0.0310306
3.25 0.0611269
3.26 0.0922238
3.27 0.124132
3.28 0.15666
3.29 0.189512
3.3 0.222396
3.31 0.255033
3.32 0.287131
3.33 0.3184
3.34 0.348537
3.35 0.377093
3.36 0.403932
3.37 0.428818
3.38 0.451538
3.39 0.471909
3.4 0.489783
3.41 0.504876
3.42 0.517127
3.43 0.52665
3.44 0.53345
3.45 0.537566
3.46 0.539072
3.47 0.538067
3.48 0.534419
3.49 0.528565
3.5 0.520678
3.51 0.510935
3.52 0.499526
3.53 0.486642
3.54 0.472416
3.55 0.457051
3.56 0.440807
3.57 0.423856
3.58 0.406359
3.59 0.388466
3.6 0.370318
3.61 0.35204
3.62 0.333773
3.63 0.315622
3.64 0.297685
3.65 0.28005
3.66 0.262802
3.67 0.246042
3.68 0.229876
3.69 0.214341
3.7 0.19951
3.71 0.185455
3.72 0.172246
3.73 0.159956
3.74 0.148754
3.75 0.138649
3.76 0.129683
3.77 0.121923
3.78 0.115428
3.79 0.110255
3.8 0.106495
3.81 0.104279
3.82 0.10352
3.83 0.104243
3.84 0.106464
3.85 0.11019
3.86 0.115418
3.87 0.122255
3.88 0.130604
3.89 0.140378
3.9 0.151532
3.91 0.164014
3.92 0.177761
3.93 0.192723
3.94 0.208901
3.95 0.22609
3.96 0.244193
3.97 0.263108
3.98 0.282726
3.99 0.302929
4 0.323618
4.01 0.344632
4.02 0.365814
4.03 0.387023
4.04 0.408113
4.05 0.428934
4.06 0.44933
4.07 0.46907
4.08 0.488051
4.09 0.506125
4.1 0.523144
4.11 0.538971
4.12 0.553474
4.13 0.56644
4.14 0.57775
4.15 0.5874
4.16 0.595315
4.17 0.60144
4.18 0.605738
4.19 0.608191
4.2 0.608593
4.21 0.607171
4.22 0.603973
4.23 0.599057
4.24 0.592494
4.25 0.584368
4.26 0.574702
4.27 0.563584
4.28 0.551215
4.29 0.537695
4.3 0.52312
4.31 0.507582
4.32 0.491162
4.33 0.473856
4.34 0.455798
4.35 0.437043
4.36 0.417621
4.37 0.39755
4.38 0.376837
4.39 0.355455
4.4 0.333366
4.41 0.310605
4.42 0.287158
4.43 0.263012
4.44 0.238163
4.45 0.212613
4.46 0.186319
4.47 0.159363
4.48 0.131816
4.49 0.10375
4.5 0.0752564
4.51 0.0464457
4.52 0.0174463
4.53 -0.0115775
4.54 -0.0404477
4.55 -0.0689912
4.56 -0.0970287
4.57 -0.124379
4.58 -0.150864
4.59 -0.176216
4.6 -0.200302
4.61 -0.223024
4.62 -0.244266
4.63 -0.263937
4.64 -0.281972
4.65 -0.29831
4.66 -0.312807
4.67 -0.325665
4.68 -0.336947
4.69 -0.346741
4.7 -0.35516
4.71 -0.362335
4.72 -0.368352
4.73 -0.373415
4.74 -0.377743
4.75 -0.3815
4.76 -0.384846
4.77 -0.387931
4.78 -0.390889
4.79 -0.393848
4.8 -0.396908
4.81 -0.400134
4.82 -0.403569
4.83 -0.407229
4.84 -0.411107
4.85 -0.415182
4.86 -0.419396
4.87 -0.42367
4.88 -0.427923
4.89 -0.432069
4.9 -0.436017
4.91 -0.439678
4.92 -0.442918
4.93 -0.445695
4.94 -0.447952
4.95 -0.449641
4.96 -0.450736
4.97 -0.451224
4.98 -0.451082
4.99 -0.450323
5 -0.449029
5.01 -0.44725
5.02 -0.445045
5.03 -0.442477
5.04 -0.439611
5.05 -0.436493
5.06 -0.433203
5.07 -0.429791
5.08 -0.426288
5.09 -0.422712
5.1 -0.419066
5.11 -0.415331
5.12 -0.411464
5.13 -0.407425
5.14 -0.40315
5.15 -0.39857
5.16 -0.393606
5.17 -0.38818
5.18 -0.38216
5.19 -0.375499
5.2 -0.368157
5.21 -0.360093
5.22 -0.351284
5.23 -0.34173
5.24 -0.331437
5.25 -0.320419
5.26 -0.308822
5.27 -0.296752
5.28 -0.284335
5.29 -0.271718
5.3 -0.259063
5.31 -0.246568
5.32 -0.234432
5.33 -0.222826
5.34 -0.211924
5.35 -0.201885
5.36 -0.192855
5.37 -0.184969
5.38 -0.178444
5.39 -0.173217
5.4 -0.169313
5.41 -0.166726
5.42 -0.165414
5.43 -0.165307
5.44 -0.166366
5.45 -0.168425
5.46 -0.171273
5.47 -0.174739
5.48 -0.178642
5.49 -0.182797
5.5 -0.187019
5.51 -0.191099
5.52 -0.194871
5.53 -0.198193
5.54 -0.200944
5.55 -0.203028
5.56 -0.204374
5.57 -0.204898
5.58 -0.20458
5.59 -0.203488
5.6 -0.201662
5.61 -0.199162
5.62 -0.196066
5.63 -0.192459
5.64 -0.188399
5.65 -0.18403
5.66 -0.179444
5.67 -0.174716
5.68 -0.169912
5.69 -0.165076
5.7 -0.160235
5.71 -0.15539
5.72 -0.150519
5.73 -0.145576
5.74 -0.140497
5.75 -0.135203
5.76 -0.129598
5.77 -0.123528
5.78 -0.116906
5.79 -0.109635
5.8 -0.101614
5.81 -0.0927588
5.82 -0.0829976
5.83 -0.0722487
5.84 -0.0604365
5.85 -0.0476502
5.86 -0.033926
5.87 -0.0193284
5.88 -0.00394892
5.89 0.0120955
5.9 0.0286969
5.91 0.0456462
5.92 0.0627532
5.93 0.079836
5.94 0.0967111
5.95 0.113199
5.96 0.129113
5.97 0.144229
5.98 0.158472
5.99 0.171738
6 0.183947
6.01 0.195052
6.02 0.205034
6.03 0.213825
6.04 0.22151
6.05 0.22821
6.06 0.23402
6.07 0.239051
6.08 0.243428
6.09 0.247279
6.1 0.250715
6.11 0.253916
6.12 0.256997
6.13 0.260057
6.14 0.263177
6.15 0.26641
6.16 0.269796
6.17 0.27333
6.18 0.27697
6.19 0.280653
6.2 0.284294
6.21 0.287783
6.22 0.290992
6.23 0.293715
6.24 0.295836
6.25 0.2972
6.26 0.29766
6.27 0.297074
6.28 0.295319
6.29 0.292215
6.3 0.287654
6.31 0.28167
6.32 0.274244
6.33 0.265385
6.34 0.255134
6.35 0.243559
6.36 0.23064
6.37 0.216629
6.38 0.201687
6.39 0.185975
6.4 0.169663
6.41 0.152928
6.42 0.135942
6.43 0.118897
6.44 0.101966
6.45 0.0852912
6.46 0.0689939
6.47 0.053175
6.48 0.0379114
6.49 0.0233151
6.5 0.00936746
6.51 -0.00394945
6.52 -0.0166622
6.53 -0.0288175
6.54 -0.0404785
6.55 -0.0517124
6.56 -0.0625996
6.57 -0.0732674
6.58 -0.0838082
6.59 -0.0943107
6.6 -0.104855
6.61 -0.115512
6.62 -0.126355
6.63 -0.137417
6.64 -0.148709
6.65 -0.160229
6.66 -0.171957
6.67 -0.183854
6.68 -0.195864
6.69 -0.207907
6.7 -0.219887
6.71 -0.231703
6.72 -0.243252
6.73 -0.254421
6.74 -0.265102
6.75 -0.27513
6.76 -0.284402
6.77 -0.292846
6.78 -0.300373
6.79 -0.306901
6.8 -0.31236
6.81 -0.316681
6.82 -0.319695
6.83 -0.321489
6.84 -0.322042
6.85 -0.321338
6.86 -0.319371
6.87 -0.31614
6.88 -0.311574
6.89 -0.305691
6.9 -0.298574
6.91 -0.290236
6.92 -0.280692
6.93 -0.269955
6.94 -0.25804
6.95 -0.244828
6.96 -0.230464
6.97 -0.214963
6.98 -0.198341
6.99 -0.180612
7 -0.161796
7.01 -0.141863
7.02 -0.120828
7.03 -0.0987953
7.04 -0.075807
7.05 -0.0519111
7.06 -0.0271634
7.07 -0.00162763
7.08 0.0246901
7.09 0.0516366
7.1 0.0791138
7.11 0.107027
7.12 0.135277
7.13 0.163758
7.14 0.192365
7.15 0.220971
7.16 0.249459
7.17 0.277719
7.18 0.305641
7.19 0.333122
7.2 0.360057
7.21 0.386281
7.22 0.41173
7.23 0.436334
7.24 0.460008
7.25 0.482671
7.26 0.504248
7.27 0.524634
7.28 0.543675
7.29 0.561412
7.3 0.577782
7.31 0.592727
7.32 0.606189
7.33 0.618112
7.34 0.628309
7.35 0.636796
7.36 0.643582
7.37 0.648624
7.38 0.651881
7.39 0.653318
7.4 0.652874
7.41 0.650369
7.42 0.645976
7.43 0.63969
7.44 0.631519
7.45 0.621477
7.46 0.609593
7.47 0.595783
7.48 0.580148
7.49 0.562839
7.5 0.543933
7.51 0.523519
7.52 0.501696
7.53 0.478568
7.54 0.454144
7.55 0.428694
7.56 0.402353
7.57 0.375262
7.58 0.347566
7.59 0.31941
7.6 0.290936
7.61 0.262315
7.62 0.233711
7.63 0.205269
7.64 0.177131
7.65 0.149434
7.66 0.122311
7.67 0.0959779
7.68 0.0704914
7.69 0.0459575
7.7 0.0224781
7.71 0.000146586
7.72 -0.0209532
7.73 -0.0406813
7.74 -0.0589367
7.75 -0.0757606
7.76 -0.0911146
7.77 -0.104972
7.78 -0.117318
7.79 -0.128151
7.8 -0.137333
7.81 -0.145018
7.82 -0.15127
7.83 -0.15614
7.84 -0.15969
7.85 -0.161993
7.86 -0.163093
7.87 -0.163046
7.88 -0.162045
7.89 -0.160192
7.9 -0.157595
7.91 -0.154359
7.92 -0.150592
7.93 -0.146365
7.94 -0.141814
7.95 -0.137039
7.96 -0.132117
7.97 -0.127116
7.98 -0.122095
7.99 -0.117098
8 -0.112163
8.01 -0.107303
8.02 -0.102522
8.03 -0.0978134
8.04 -0.0931607
8.05 -0.08854
8.06 -0.0839187
8.07 -0.0792586
8.08 -0.0745254
8.09 -0.0696863
8.1 -0.0647127
8.11 -0.0595823
8.12 -0.0542783
8.13 -0.0487818
8.14 -0.0431202
8.15 -0.0373153
8.16 -0.0314006
8.17 -0.0254212
8.18 -0.0194331
8.19 -0.0135105
8.2 -0.00773664
8.21 -0.00218728
8.22 0.00305662
8.23 0.00791494
8.24 0.0123112
8.25 0.0161736
8.26 0.0193703
8.27 0.0219183
8.28 0.023787
8.29 0.024962
8.3 0.0254459
8.31 0.0252589
8.32 0.0244062
8.33 0.0229502
8.34 0.0210022
8.35 0.018648
8.36 0.0159828
8.37 0.0131087
8.38 0.0101311
8.39 0.00716644
8.4 0.00432423
8.41 0.00169495
8.42 -0.000642862
8.43 -0.00262565
8.44 -0.0042073
8.45 -0.0053414
8.46 -0.00601279
8.47 -0.00627363
8.48 -0.00616603
8.49 -0.00575185
8.5 -0.00511091
8.51 -0.00433848
8.52 -0.00355166
8.53 -0.00288314
8.54 -0.00245541
8.55 -0.00239042
8.56 -0.00280576
8.57 -0.00381062
8.58 -0.00552855
8.59 -0.00808728
8.6 -0.0114862
8.61 -0.015762
8.62 -0.020929
8.63 -0.0269788
8.64 -0.0338805
8.65 -0.0416448
8.66 -0.0501416
8.67 -0.0592536
8.68 -0.0688741
8.69 -0.0788865
8.7 -0.0891689
8.71 -0.0995977
8.72 -0.110038
8.73 -0.120365
8.74 -0.130476
8.75 -0.140283
8.76 -0.149715
8.77 -0.158716
8.78 -0.167213
8.79 -0.175209
8.8 -0.18273
8.81 -0.1898
8.82 -0.196458
8.83 -0.202757
8.84 -0.208754
8.85 -0.214503
8.86 -0.220104
8.87 -0.225621
8.88 -0.231115
8.89 -0.236636
8.9 -0.242224
8.91 -0.247909
8.92 -0.253696
8.93 -0.259567
8.94 -0.265492
8.95 -0.271424
8.96 -0.2773
8.97 -0.283047
8.98 -0.288544
8.99 -0.293716
9 -0.298468
9.01 -0.302706
9.02 -0.306343
9.03 -0.309299
9.04 -0.311465
9.05 -0.312776
9.06 -0.31325
9.07 -0.31288
9.08 -0.311676
9.09 -0.30967
9.1 -0.306916
9.11 -0.303421
9.12 -0.29935
9.13 -0.294814
9.14 -0.289926
9.15 -0.284806
9.16 -0.279574
9.17 -0.274354
9.18 -0.269278
9.19 -0.264441
9.2 -0.259926
9.21 -0.255802
9.22 -0.252115
9.23 -0.248894
9.24 -0.246187
9.25 -0.24394
9.26 -0.242103
9.27 -0.24062
9.28 -0.23942
9.29 -0.238417
9.3 -0.237523
9.31 -0.236629
9.32 -0.235631
9.33 -0.23444
9.34 -0.232975
9.35 -0.231165
9.36 -0.228955
9.37 -0.226269
9.38 -0.223111
9.39 -0.219499
9.4 -0.215459
9.41 -0.211033
9.42 -0.206278
9.43 -0.201265
9.44 -0.196075
9.45 -0.190823
9.46 -0.185605
9.47 -0.180513
9.48 -0.175634
9.49 -0.171045
9.5 -0.16684
9.51 -0.16306
9.52 -0.159712
9.53 -0.156797
9.54 -0.154295
9.55 -0.152163
9.56 -0.150338
9.57 -0.148743
9.58 -0.14724
9.59 -0.145706
9.6 -0.144009
9.61 -0.142008
9.62 -0.139561
9.63 -0.136482
9.64 -0.132622
9.65 -0.127893
9.66 -0.12219
9.67 -0.115425
9.68 -0.107531
9.69 -0.0984654
9.7 -0.0880701
9.71 -0.0764911
9.72 -0.0637655
9.73 -0.0499509
9.74 -0.0351257
9.75 -0.0193861
9.76 -0.00280886
9.77 0.0144728
9.78 0.032275
9.79 0.0504627
9.8 0.0689011
9.81 0.0874598
9.82 0.106016
9.83 0.124434
9.84 0.142615
9.85 0.160481
9.86 0.177964
9.87 0.195012
9.88 0.211592
9.89 0.227662
9.9 0.243196
9.91 0.258238
9.92 0.272802
9.93 0.286909
9.94 0.300581
9.95 0.313842
9.96 0.326678
9.97 0.339135
9.98 0.35123
9.99 0.362966
10 0.374333
10.01 0.385315
10.02 0.395871
10.03 0.405934
10.04 0.415497
10.05 0.424508
10.06 0.432915
10.07 0.440662
10.08 0.447695
10.09 0.4539
10.1 0.459262
10.11 0.463776
10.12 0.467421
10.13 0.470187
10.14 0.472079
10.15 0.473102
10.16 0.473228
10.17 0.472595
10.18 0.471269
10.19 0.469328
10.2 0.466858
10.21 0.463958
10.22 0.460711
10.23 0.457245
10.24 0.453679
10.25 0.450111
10.26 0.446633
10.27 0.44333
10.28 0.440276
10.29 0.437565
10.3 0.435208
10.31 0.433227
10.32 0.431628
10.33 0.4304
10.34 0.429515
10.35 0.428943
10.36 0.428616
10.37 0.428444
10.38 0.428344
10.39 0.428225
10.4 0.427991
10.41 0.427545
10.42 0.426742
10.43 0.42551
10.44 0.42376
10.45 0.421408
10.46 0.41838
10.47 0.414608
10.48 0.409998
10.49 0.404484
10.5 0.398094
10.51 0.390809
10.52 0.382626
10.53 0.373549
10.54 0.363594
10.55 0.352701
10.56 0.340983
10.57 0.328492
10.58 0.315275
10.59 0.301384
10.6 0.28687
10.61 0.271773
10.62 0.256135
10.63 0.240058
10.64 0.223601
10.65 0.206819
10.66 0.189769
10.67 0.172504
10.68 0.155067
10.69 0.137525
10.7 0.11993
10.71 0.102328
10.72 0.0847627
10.73 0.0672756
10.74 0.0499098
10.75 0.0327158
10.76 0.0157147
10.77 -0.00106447
10.78 -0.0175963
10.79 -0.0338594
10.8 -0.0498365
10.81 -0.0654903
10.82 -0.0808251
10.83 -0.0958501
10.84 -0.110568
10.85 -0.124986
10.86 -0.139117
10.87 -0.152971
10.88 -0.16655
10.89 -0.179902
10.9 -0.193053
10.91 -0.206028
10.92 -0.218851
10.93 -0.231546
10.94 -0.244129
10.95 -0.256622
10.96 -0.269043
10.97 -0.281399
10.98 -0.293692
10.99 -0.305916
11 -0.31806
11.01 -0.33009
11.02 -0.341987
11.03 -0.353719
11.04 -0.365243
11.05 -0.376515
11.06 -0.387485
11.07 -0.398077
11.08 -0.408225
11.09 -0.417895
11.1 -0.427033
11.11 -0.435585
11.12 -0.443502
11.13 -0.450738
11.14 -0.457171
11.15 -0.462837
11.16 -0.467718
11.17 -0.471793
11.18 -0.475052
11.19 -0.477489
11.2 -0.479069
11.21 -0.479782
11.22 -0.479699
11.23 -0.47884
11.24 -0.477226
11.25 -0.47488
11.26 -0.471829
11.27 -0.468032
11.28 -0.463572
11.29 -0.458483
11.3 -0.452785
11.31 -0.446496
11.32 -0.439631
11.33 -0.432181
11.34 -0.424129
11.35 -0.415528
11.36 -0.40638
11.37 -0.396688
11.38 -0.386453
11.39 -0.375677
11.4 -0.364318
11.41 -0.352413
11.42 -0.339989
11.43 -0.327059
11.44 -0.313642
11.45 -0.299763
11.46 -0.285442
11.47 -0.270693
11.48 -0.255599
11.49 -0.24021
11.5 -0.224579
11.51 -0.208764
11.52 -0.192829
11.53 -0.176838
11.54 -0.16087
11.55 -0.144994
11.56 -0.129277
11.57 -0.113784
11.58 -0.0985757
11.59 -0.0837167
11.6 -0.0693023
11.61 -0.055342
11.62 -0.0418763
11.63 -0.0289393
11.64 -0.0165583
11.65 -0.00475417
11.66 0.00641893
11.67 0.0169615
11.68 0.0269028
11.69 0.0362467
11.7 0.0450015
11.71 0.0531792
11.72 0.0607939
11.73 0.0678035
11.74 0.0742917
11.75 0.0802785
11.76 0.0857844
11.77 0.0908299
11.78 0.0954349
11.79 0.0995965
11.8 0.103333
11.81 0.106687
11.82 0.109676
11.83 0.112315
11.84 0.114617
11.85 0.116598
11.86 0.11824
11.87 0.119586
11.88 0.120652
11.89 0.12145
11.9 0.121993
11.91 0.122291
11.92 0.122344
11.93 0.122157
11.94 0.121752
11.95 0.121134
11.96 0.120306
11.97 0.119267
11.98 0.118012
11.99 0.116508
12 0.114759
12.01 0.112749
12.02 0.110455
12.03 0.107848
12.04 0.104895
12.05 0.101544
12.06 0.0977253
12.07 0.0934276
12.08 0.0886035
12.09 0.0832053
12.1 0.0771854
12.11 0.0704981
12.12 0.0630364
12.13 0.0547969
12.14 0.0457716
12.15 0.0359378
12.16 0.0252818
12.17 0.0138003
12.18 0.00148351
12.19 -0.0117031
