# xPDFsuite Configuration #
[PDF]
wavelength = 0.1
dataformat = QA
inputfile = BiMsol6_insitu_700 C-00133.xy
backgroundfile = Quartz2mm-dist500-00000.xy
mode = xray
bgscale = 0.0042
composition = Bi2Fe4O9
outputtype = gr
qmaxinst = 24.998449118
qmin = 0.1
qmax = 21.4986662415
rmax = 80.0
rmin = 0.0
rstep = 0.01
rpoly = 0.9

[Misc]
inputdir = C:/Data/Seafile/CPH/Beamtime/Desy Oct 20/In situ data/Processed/BiMsol6/PDF
savedir = C:/Data/Seafile/CPH/Beamtime/Desy Oct 20/In situ data/PDF/BiMsol6
backgroundfilefull = C:/Data/Seafile/CPH/Beamtime/Desy Oct 20/In situ data/Processed/Standard_Empty_Cap/Quartz2mm-dist500-00000.xy

#### start data
#S 1
#L r($\AA$)  G($\AA^{-2}$)
0 0
0.01 0.00632116
0.02 0.0122873
0.03 0.0175948
0.04 0.0219708
0.05 0.0251866
0.06 0.0270677
0.07 0.0274233
0.08 0.0261978
0.09 0.0235315
0.1 0.01954
0.11 0.0144026
0.12 0.00835442
0.13 0.00167595
0.14 -0.00531745
0.15 -0.0122286
0.16 -0.0187224
0.17 -0.0244845
0.18 -0.029233
0.19 -0.0327323
0.2 -0.0347406
0.21 -0.0350926
0.22 -0.0338843
0.23 -0.0311807
0.24 -0.0271234
0.25 -0.0219261
0.26 -0.0158666
0.27 -0.00926061
0.28 -0.00256337
0.29 0.00382012
0.3 0.00949668
0.31 0.0140926
0.32 0.0172721
0.33 0.0186952
0.34 0.0180298
0.35 0.0153271
0.36 0.0105849
0.37 0.00390322
0.38 -0.00451434
0.39 -0.0143634
0.4 -0.025291
0.41 -0.0366907
0.42 -0.0479671
0.43 -0.0585153
0.44 -0.0677097
0.45 -0.0749272
0.46 -0.0795097
0.47 -0.0806099
0.48 -0.0780451
0.49 -0.0714742
0.5 -0.060676
0.51 -0.0455641
0.52 -0.0261958
0.53 -0.00251018
0.54 0.0249477
0.55 0.0554623
0.56 0.0883677
0.57 0.122886
0.58 0.15815
0.59 0.193214
0.6 0.22687
0.61 0.25818
0.62 0.286198
0.63 0.310039
0.64 0.328908
0.65 0.342124
0.66 0.348741
0.67 0.348382
0.68 0.341231
0.69 0.327307
0.7 0.30681
0.71 0.280117
0.72 0.24777
0.73 0.209991
0.74 0.168259
0.75 0.123541
0.76 0.0768566
0.77 0.0292657
0.78 -0.0181669
0.79 -0.0642884
0.8 -0.107944
0.81 -0.148356
0.82 -0.184771
0.83 -0.216571
0.84 -0.243294
0.85 -0.264635
0.86 -0.279893
0.87 -0.289628
0.88 -0.294148
0.89 -0.293829
0.9 -0.289175
0.91 -0.280795
0.92 -0.269292
0.93 -0.255437
0.94 -0.240235
0.95 -0.224459
0.96 -0.208851
0.97 -0.194095
0.98 -0.180799
0.99 -0.169701
1 -0.1611
1.01 -0.155202
1.02 -0.152142
1.03 -0.151936
1.04 -0.154484
1.05 -0.159645
1.06 -0.167213
1.07 -0.176578
1.08 -0.187303
1.09 -0.198924
1.1 -0.210965
1.11 -0.222961
1.12 -0.234404
1.13 -0.244888
1.14 -0.254121
1.15 -0.261868
1.16 -0.267975
1.17 -0.272371
1.18 -0.275039
1.19 -0.275957
1.2 -0.275474
1.21 -0.273826
1.22 -0.271291
1.23 -0.268177
1.24 -0.264804
1.25 -0.261513
1.26 -0.258638
1.27 -0.256427
1.28 -0.255081
1.29 -0.254747
1.3 -0.255502
1.31 -0.257364
1.32 -0.260371
1.33 -0.26426
1.34 -0.268832
1.35 -0.273842
1.36 -0.279009
1.37 -0.284028
1.38 -0.288541
1.39 -0.292199
1.4 -0.294757
1.41 -0.29598
1.42 -0.295686
1.43 -0.293753
1.44 -0.290129
1.45 -0.284658
1.46 -0.277637
1.47 -0.269262
1.48 -0.259783
1.49 -0.24951
1.5 -0.238793
1.51 -0.228032
1.52 -0.217694
1.53 -0.208174
1.54 -0.199843
1.55 -0.193039
1.56 -0.188044
1.57 -0.185079
1.58 -0.184513
1.59 -0.186214
1.6 -0.190095
1.61 -0.196017
1.62 -0.203758
1.63 -0.213016
1.64 -0.223447
1.65 -0.234587
1.66 -0.245876
1.67 -0.256817
1.68 -0.266913
1.69 -0.275682
1.7 -0.282675
1.71 -0.287268
1.72 -0.289239
1.73 -0.288415
1.74 -0.284654
1.75 -0.277909
1.76 -0.26823
1.77 -0.255695
1.78 -0.240418
1.79 -0.222989
1.8 -0.203816
1.81 -0.18336
1.82 -0.162118
1.83 -0.140606
1.84 -0.119402
1.85 -0.0990579
1.86 -0.0800145
1.87 -0.0626698
1.88 -0.0473537
1.89 -0.0343174
1.9 -0.023763
1.91 -0.0159827
1.92 -0.0106807
1.93 -0.00772605
1.94 -0.00690746
1.95 -0.00794245
1.96 -0.0104899
1.97 -0.0142114
1.98 -0.0186099
1.99 -0.0232084
2 -0.0275942
2.01 -0.0313821
2.02 -0.0342304
2.03 -0.0358486
2.04 -0.0358448
2.05 -0.0342467
2.06 -0.0310203
2.07 -0.0262165
2.08 -0.0199685
2.09 -0.0124877
2.1 -0.0040213
2.11 0.00503277
2.12 0.0142242
2.13 0.0231312
2.14 0.0313217
2.15 0.0383701
2.16 0.043873
2.17 0.0472211
2.18 0.0482777
2.19 0.0468284
2.2 0.0427211
2.21 0.0358858
2.22 0.0263381
2.23 0.0140696
2.24 -0.000760186
2.25 -0.0176853
2.26 -0.0363605
2.27 -0.0563876
2.28 -0.0773284
2.29 -0.0987201
2.3 -0.120041
2.31 -0.140779
2.32 -0.160499
2.33 -0.178805
2.34 -0.195355
2.35 -0.209867
2.36 -0.222048
2.37 -0.231642
2.38 -0.238803
2.39 -0.243574
2.4 -0.246074
2.41 -0.246487
2.42 -0.24506
2.43 -0.24198
2.44 -0.237715
2.45 -0.23267
2.46 -0.227211
2.47 -0.221701
2.48 -0.216482
2.49 -0.211887
2.5 -0.208282
2.51 -0.205812
2.52 -0.204632
2.53 -0.204833
2.54 -0.206449
2.55 -0.209454
2.56 -0.213853
2.57 -0.219441
2.58 -0.225978
2.59 -0.233243
2.6 -0.240994
2.61 -0.248976
2.62 -0.256928
2.63 -0.264545
2.64 -0.27161
2.65 -0.277924
2.66 -0.283321
2.67 -0.287676
2.68 -0.290904
2.69 -0.292889
2.7 -0.293656
2.71 -0.293318
2.72 -0.291965
2.73 -0.289716
2.74 -0.286713
2.75 -0.283114
2.76 -0.27906
2.77 -0.27478
2.78 -0.270436
2.79 -0.26617
2.8 -0.262105
2.81 -0.258337
2.82 -0.254957
2.83 -0.252005
2.84 -0.249453
2.85 -0.247269
2.86 -0.24539
2.87 -0.243731
2.88 -0.242187
2.89 -0.240627
2.9 -0.238911
2.91 -0.236914
2.92 -0.234515
2.93 -0.231607
2.94 -0.228099
2.95 -0.223892
2.96 -0.218916
2.97 -0.213212
2.98 -0.206797
2.99 -0.199715
3 -0.192035
3.01 -0.183846
3.02 -0.175231
3.03 -0.166356
3.04 -0.157357
3.05 -0.148364
3.06 -0.1395
3.07 -0.130879
3.08 -0.122611
3.09 -0.1148
3.1 -0.107463
3.11 -0.100617
3.12 -0.0942518
3.13 -0.0883311
3.14 -0.0827903
3.15 -0.0775562
3.16 -0.0724867
3.17 -0.0674427
3.18 -0.0622834
3.19 -0.056863
3.2 -0.051036
3.21 -0.0446483
3.22 -0.0375061
3.23 -0.0295573
3.24 -0.0207161
3.25 -0.010921
3.26 -0.000137156
3.27 0.0116428
3.28 0.024467
3.29 0.0382476
3.3 0.0528644
3.31 0.0682187
3.32 0.0841946
3.33 0.100664
3.34 0.117492
3.35 0.134545
3.36 0.151651
3.37 0.168683
3.38 0.185526
3.39 0.202079
3.4 0.218261
3.41 0.23398
3.42 0.249196
3.43 0.263919
3.44 0.278154
3.45 0.291923
3.46 0.305264
3.47 0.318223
3.48 0.330827
3.49 0.343175
3.5 0.355323
3.51 0.36732
3.52 0.379204
3.53 0.390999
3.54 0.402707
3.55 0.41431
3.56 0.425775
3.57 0.437044
3.58 0.448041
3.59 0.458669
3.6 0.468817
3.61 0.478285
3.62 0.486983
3.63 0.494781
3.64 0.501546
3.65 0.507149
3.66 0.511472
3.67 0.514354
3.68 0.515648
3.69 0.515407
3.7 0.513601
3.71 0.510225
3.72 0.505303
3.73 0.498886
3.74 0.490926
3.75 0.481639
3.76 0.471186
3.77 0.459709
3.78 0.447366
3.79 0.434321
3.8 0.420736
3.81 0.40678
3.82 0.39266
3.83 0.378531
3.84 0.364532
3.85 0.350786
3.86 0.337398
3.87 0.324494
3.88 0.312119
3.89 0.300292
3.9 0.289026
3.91 0.278314
3.92 0.26813
3.93 0.258442
3.94 0.24922
3.95 0.24035
3.96 0.231759
3.97 0.22337
3.98 0.215106
3.99 0.206893
4 0.198657
4.01 0.190331
4.02 0.181866
4.03 0.173227
4.04 0.164387
4.05 0.155333
4.06 0.146064
4.07 0.13657
4.08 0.126901
4.09 0.117087
4.1 0.107171
4.11 0.0971977
4.12 0.0872186
4.13 0.0772927
4.14 0.0674821
4.15 0.0578363
4.16 0.0484055
4.17 0.0392365
4.18 0.0303712
4.19 0.0218466
4.2 0.0137387
4.21 0.00603346
4.22 -0.00125319
4.23 -0.00810959
4.24 -0.0145297
4.25 -0.0205129
4.26 -0.0260423
4.27 -0.0311205
4.28 -0.0357902
4.29 -0.0400682
4.3 -0.0439744
4.31 -0.0475312
4.32 -0.0507635
4.33 -0.0536706
4.34 -0.0563106
4.35 -0.0587186
4.36 -0.0609268
4.37 -0.0629684
4.38 -0.0648775
4.39 -0.0666864
4.4 -0.0684322
4.41 -0.0701565
4.42 -0.0718926
4.43 -0.0736722
4.44 -0.0755247
4.45 -0.0774767
4.46 -0.0795635
4.47 -0.081797
4.48 -0.0841855
4.49 -0.0867349
4.5 -0.0894449
4.51 -0.0923084
4.52 -0.095315
4.53 -0.0984486
4.54 -0.101668
4.55 -0.10494
4.56 -0.108226
4.57 -0.111482
4.58 -0.114663
4.59 -0.117709
4.6 -0.12057
4.61 -0.123206
4.62 -0.125575
4.63 -0.127639
4.64 -0.129365
4.65 -0.130721
4.66 -0.131657
4.67 -0.132204
4.68 -0.132362
4.69 -0.132145
4.7 -0.131572
4.71 -0.130673
4.72 -0.129466
4.73 -0.12801
4.74 -0.126367
4.75 -0.124591
4.76 -0.122739
4.77 -0.120866
4.78 -0.119029
4.79 -0.117296
4.8 -0.115709
4.81 -0.114312
4.82 -0.11314
4.83 -0.112222
4.84 -0.111579
4.85 -0.111241
4.86 -0.111214
4.87 -0.111477
4.88 -0.11202
4.89 -0.112826
4.9 -0.113873
4.91 -0.115137
4.92 -0.116607
4.93 -0.118232
4.94 -0.119979
4.95 -0.121819
4.96 -0.123727
4.97 -0.125675
4.98 -0.127642
4.99 -0.129606
5 -0.131551
5.01 -0.133465
5.02 -0.13534
5.03 -0.137168
5.04 -0.138945
5.05 -0.140662
5.06 -0.142319
5.07 -0.143916
5.08 -0.145448
5.09 -0.14691
5.1 -0.148297
5.11 -0.149597
5.12 -0.150794
5.13 -0.151884
5.14 -0.152854
5.15 -0.153692
5.16 -0.154384
5.17 -0.154917
5.18 -0.155265
5.19 -0.155429
5.2 -0.155408
5.21 -0.155201
5.22 -0.154811
5.23 -0.154245
5.24 -0.15351
5.25 -0.152616
5.26 -0.151596
5.27 -0.150476
5.28 -0.149282
5.29 -0.148041
5.3 -0.14678
5.31 -0.145529
5.32 -0.144316
5.33 -0.143159
5.34 -0.142074
5.35 -0.141071
5.36 -0.140152
5.37 -0.139315
5.38 -0.138552
5.39 -0.137834
5.4 -0.137135
5.41 -0.136423
5.42 -0.135661
5.43 -0.134807
5.44 -0.13381
5.45 -0.132623
5.46 -0.131214
5.47 -0.129549
5.48 -0.127597
5.49 -0.125337
5.5 -0.122757
5.51 -0.119816
5.52 -0.116562
5.53 -0.113017
5.54 -0.109212
5.55 -0.105187
5.56 -0.100994
5.57 -0.0966867
5.58 -0.0923375
5.59 -0.0880194
5.6 -0.083799
5.61 -0.0797408
5.62 -0.0759046
5.63 -0.0723433
5.64 -0.0691388
5.65 -0.0662928
5.66 -0.0638189
5.67 -0.0617196
5.68 -0.059983
5.69 -0.0585829
5.7 -0.0574902
5.71 -0.0566501
5.72 -0.0559756
5.73 -0.0553925
5.74 -0.0548213
5.75 -0.0541796
5.76 -0.053385
5.77 -0.0523291
5.78 -0.0509503
5.79 -0.0491929
5.8 -0.0470086
5.81 -0.0443633
5.82 -0.0412387
5.83 -0.0376176
5.84 -0.0334965
5.85 -0.0289523
5.86 -0.0240372
5.87 -0.0188172
5.88 -0.0133696
5.89 -0.00778084
5.9 -0.00214721
5.91 0.0034221
5.92 0.00883321
5.93 0.0139988
5.94 0.0188401
5.95 0.0232901
5.96 0.0272855
5.97 0.0307521
5.98 0.0337197
5.99 0.0361937
6 0.0381982
6.01 0.0397757
6.02 0.040985
6.03 0.0418846
6.04 0.0425831
6.05 0.0431893
6.06 0.0438041
6.07 0.0445294
6.08 0.0454641
6.09 0.0467046
6.1 0.048378
6.11 0.0505148
6.12 0.0531626
6.13 0.0563503
6.14 0.0600866
6.15 0.0643598
6.16 0.0691661
6.17 0.0744374
6.18 0.080072
6.19 0.0859799
6.2 0.0920587
6.21 0.0981972
6.22 0.104279
6.23 0.110151
6.24 0.11571
6.25 0.120848
6.26 0.125469
6.27 0.129492
6.28 0.132849
6.29 0.135457
6.3 0.137276
6.31 0.138354
6.32 0.138708
6.33 0.138379
6.34 0.137422
6.35 0.135911
6.36 0.13389
6.37 0.131511
6.38 0.128881
6.39 0.126106
6.4 0.123288
6.41 0.120525
6.42 0.117916
6.43 0.115557
6.44 0.113498
6.45 0.111784
6.46 0.110444
6.47 0.10949
6.48 0.108918
6.49 0.108737
6.5 0.108879
6.51 0.109286
6.52 0.109894
6.53 0.110637
6.54 0.111441
6.55 0.112229
6.56 0.112914
6.57 0.11343
6.58 0.113717
6.59 0.113725
6.6 0.113412
6.61 0.112752
6.62 0.111696
6.63 0.110261
6.64 0.108473
6.65 0.106355
6.66 0.103939
6.67 0.101267
6.68 0.0983844
6.69 0.0953365
6.7 0.0921967
6.71 0.0890181
6.72 0.0858509
6.73 0.0827407
6.74 0.0797272
6.75 0.0768542
6.76 0.0741444
6.77 0.0716056
6.78 0.0692428
6.79 0.0670534
6.8 0.0650273
6.81 0.0631493
6.82 0.061408
6.83 0.0597627
6.84 0.0581867
6.85 0.0566538
6.86 0.0551391
6.87 0.0536209
6.88 0.0520794
6.89 0.0505011
6.9 0.0488817
6.91 0.0472218
6.92 0.0455275
6.93 0.0438102
6.94 0.042086
6.95 0.0403782
6.96 0.0387098
6.97 0.0371034
6.98 0.035581
6.99 0.0341623
7 0.0328632
7.01 0.0317017
7.02 0.0306851
7.03 0.0298011
7.04 0.0290391
7.05 0.0283811
7.06 0.0278022
7.07 0.027271
7.08 0.0267475
7.09 0.0261844
7.1 0.0255372
7.11 0.0247604
7.12 0.0238098
7.13 0.0226438
7.14 0.0212141
7.15 0.0194758
7.16 0.0174282
7.17 0.0150599
7.18 0.0123694
7.19 0.00936626
7.2 0.0060705
7.21 0.00249273
7.22 -0.00130185
7.23 -0.00525434
7.24 -0.00930472
7.25 -0.0133871
7.26 -0.0174313
7.27 -0.02136
7.28 -0.0250802
7.29 -0.0285338
7.3 -0.0316562
7.31 -0.0343896
7.32 -0.0366842
7.33 -0.0385002
7.34 -0.039766
7.35 -0.0404874
7.36 -0.0406813
7.37 -0.0403587
7.38 -0.0395429
7.39 -0.0382682
7.4 -0.0365739
7.41 -0.0344924
7.42 -0.0321281
7.43 -0.0295509
7.44 -0.0268342
7.45 -0.0240536
7.46 -0.0212848
7.47 -0.0186128
7.48 -0.0161157
7.49 -0.0138529
7.5 -0.0118816
7.51 -0.0102512
7.52 -0.00900218
7.53 -0.00816842
7.54 -0.00781838
7.55 -0.00791421
7.56 -0.00845478
7.57 -0.0094295
7.58 -0.0108189
7.59 -0.0125953
7.6 -0.0147418
7.61 -0.0172095
7.62 -0.0199302
7.63 -0.0228521
7.64 -0.0259205
7.65 -0.0290794
7.66 -0.0322721
7.67 -0.0354342
7.68 -0.0385089
7.69 -0.041446
7.7 -0.0441987
7.71 -0.0467252
7.72 -0.048989
7.73 -0.0509445
7.74 -0.0525586
7.75 -0.0538373
7.76 -0.0547732
7.77 -0.0553663
7.78 -0.0556244
7.79 -0.0555622
7.8 -0.0551747
7.81 -0.0545197
7.82 -0.0536383
7.83 -0.0525712
7.84 -0.0513636
7.85 -0.0500633
7.86 -0.0487205
7.87 -0.0473928
7.88 -0.0461318
7.89 -0.044984
7.9 -0.0439915
7.91 -0.0431916
7.92 -0.0426149
7.93 -0.0423078
7.94 -0.0422697
7.95 -0.0424964
7.96 -0.0429808
7.97 -0.043706
7.98 -0.0446457
7.99 -0.0457675
8 -0.0470296
8.01 -0.0483634
8.02 -0.0497111
8.03 -0.0510109
8.04 -0.0521996
8.05 -0.0532145
8.06 -0.0539725
8.07 -0.0544209
8.08 -0.0545226
8.09 -0.0542403
8.1 -0.0535476
8.11 -0.0524303
8.12 -0.0508815
8.13 -0.048881
8.14 -0.0465031
8.15 -0.0437922
8.16 -0.040805
8.17 -0.0376096
8.18 -0.0342834
8.19 -0.0309147
8.2 -0.0276073
8.21 -0.0244549
8.22 -0.0215474
8.23 -0.0189705
8.24 -0.0168022
8.25 -0.0151123
8.26 -0.0140196
8.27 -0.0135045
8.28 -0.0135862
8.29 -0.014266
8.3 -0.0155269
8.31 -0.0173337
8.32 -0.0196573
8.33 -0.0224174
8.34 -0.0254975
8.35 -0.0287994
8.36 -0.0322163
8.37 -0.0356362
8.38 -0.0389451
8.39 -0.0419944
8.4 -0.0446905
8.41 -0.0469391
8.42 -0.0486569
8.43 -0.0497751
8.44 -0.0502421
8.45 -0.0499931
8.46 -0.0489973
8.47 -0.0473159
8.48 -0.0449804
8.49 -0.0420403
8.5 -0.0385615
8.51 -0.0346243
8.52 -0.0302947
8.53 -0.0257145
8.54 -0.0209965
8.55 -0.0162479
8.56 -0.0115728
8.57 -0.00706976
8.58 -0.0028398
8.59 0.00101396
8.6 0.00445479
8.61 0.00743898
8.62 0.00993966
8.63 0.0119471
8.64 0.0134684
8.65 0.0144896
8.66 0.015082
8.67 0.0153125
8.68 0.015244
8.69 0.0149458
8.7 0.0144914
8.71 0.013955
8.72 0.0134171
8.73 0.01295
8.74 0.0126117
8.75 0.01245
8.76 0.0125017
8.77 0.012791
8.78 0.0133479
8.79 0.0141595
8.8 0.0151982
8.81 0.0164358
8.82 0.0178346
8.83 0.0193498
8.84 0.0209315
8.85 0.0225216
8.86 0.0240616
8.87 0.0255018
8.88 0.0267976
8.89 0.0279113
8.9 0.028814
8.91 0.0294709
8.92 0.0298768
8.93 0.0300488
8.94 0.0300025
8.95 0.0297629
8.96 0.0293633
8.97 0.0288435
8.98 0.028245
8.99 0.0276284
9 0.0270407
9.01 0.0265265
9.02 0.0261253
9.03 0.0258704
9.04 0.0257964
9.05 0.0259209
9.06 0.0262345
9.07 0.0267282
9.08 0.0273823
9.09 0.0281672
9.1 0.0290448
9.11 0.0299697
9.12 0.030881
9.13 0.0317249
9.14 0.0324482
9.15 0.0330001
9.16 0.033335
9.17 0.0334022
9.18 0.0331609
9.19 0.0326152
9.2 0.031762
9.21 0.0306112
9.22 0.0291851
9.23 0.0275184
9.24 0.0256439
9.25 0.0236398
9.26 0.0215751
9.27 0.0195197
9.28 0.0175456
9.29 0.0157238
9.3 0.0141313
9.31 0.0128519
9.32 0.0119153
9.33 0.0113597
9.34 0.0112097
9.35 0.0114754
9.36 0.0121516
9.37 0.0132474
9.38 0.0146996
9.39 0.0164425
9.4 0.0184112
9.41 0.0205311
9.42 0.0227208
9.43 0.0248926
9.44 0.0269412
9.45 0.0287866
9.46 0.0303519
9.47 0.0315694
9.48 0.0323826
9.49 0.0327491
9.5 0.0326057
9.51 0.0319572
9.52 0.0308352
9.53 0.0292668
9.54 0.0272947
9.55 0.0249758
9.56 0.022377
9.57 0.0195674
9.58 0.0166615
9.59 0.0137479
9.6 0.0109146
9.61 0.00824565
9.62 0.00581817
9.63 0.0037226
9.64 0.00201799
9.65 0.000724038
9.66 -0.000137881
9.67 -0.000562725
9.68 -0.000561752
9.69 -0.000161902
9.7 0.000630401
9.71 0.00171301
9.72 0.00301844
9.73 0.00447281
9.74 0.00599832
9.75 0.00751626
9.76 0.00894202
9.77 0.0101927
9.78 0.0112144
9.79 0.011958
9.8 0.0123879
9.81 0.0124825
9.82 0.0122359
9.83 0.0116253
9.84 0.010711
9.85 0.00953958
9.86 0.00816503
9.87 0.00665123
9.88 0.00506925
9.89 0.00349815
9.9 0.00202859
9.91 0.000733019
9.92 -0.000320183
9.93 -0.00107096
9.94 -0.00146999
9.95 -0.00148069
9.96 -0.00104177
9.97 -0.000176893
9.98 0.00109109
9.99 0.00273385
10 0.00470872
10.01 0.00696013
10.02 0.00942535
10.03 0.0120262
10.04 0.0146632
10.05 0.0172524
10.06 0.0197103
10.07 0.0219576
10.08 0.0239215
10.09 0.0255052
10.1 0.0266683
10.11 0.0273878
10.12 0.027643
10.13 0.0274283
10.14 0.0267534
10.15 0.0256354
10.16 0.0240867
10.17 0.0222028
10.18 0.0200465
10.19 0.0176876
10.2 0.0152004
10.21 0.0126614
10.22 0.0101534
10.23 0.00775766
10.24 0.00553713
10.25 0.00354801
10.26 0.00183639
10.27 0.000436917
10.28 -0.000625493
10.29 -0.0013058
10.3 -0.00164719
10.31 -0.00166722
10.32 -0.0013939
10.33 -0.000864263
10.34 -0.000122633
10.35 0.000787735
10.36 0.00180499
10.37 0.00286639
10.38 0.00391954
10.39 0.00491545
10.4 0.00581021
10.41 0.00656637
10.42 0.00713247
10.43 0.0075048
10.44 0.00767334
10.45 0.00763581
10.46 0.00739787
10.47 0.00697233
10.48 0.00637108
10.49 0.00561918
10.5 0.00475567
10.51 0.00380979
10.52 0.00281073
10.53 0.0017863
10.54 0.000761643
10.55 -0.000237865
10.56 -0.00119626
10.57 -0.00210347
10.58 -0.00295433
10.59 -0.0037488
10.6 -0.00449153
10.61 -0.00519004
10.62 -0.00585685
10.63 -0.00650944
10.64 -0.00716254
10.65 -0.0078302
10.66 -0.00852458
10.67 -0.00925491
10.68 -0.0100304
10.69 -0.0108481
10.7 -0.0117012
10.71 -0.0125784
10.72 -0.0134634
10.73 -0.014335
10.74 -0.0151665
10.75 -0.0159215
10.76 -0.0165737
10.77 -0.0170932
10.78 -0.017451
10.79 -0.0176216
10.8 -0.0175835
10.81 -0.0173023
10.82 -0.0167786
10.83 -0.0160222
10.84 -0.0150423
10.85 -0.0138573
10.86 -0.0124938
10.87 -0.0109849
10.88 -0.00936956
10.89 -0.00771087
10.9 -0.00606191
10.91 -0.004478
10.92 -0.00301481
10.93 -0.00172633
10.94 -0.000681587
10.95 7.3939e-05
10.96 0.000516547
10.97 0.000620683
10.98 0.000371372
10.99 -0.000234942
11 -0.00119142
11.01 -0.00250941
11.02 -0.00411501
11.03 -0.0059628
11.04 -0.00799824
11.05 -0.0101592
11.06 -0.0123781
11.07 -0.0145784
11.08 -0.0166766
11.09 -0.0186035
11.1 -0.0202931
11.11 -0.0216854
11.12 -0.022729
11.13 -0.0233824
11.14 -0.0235671
11.15 -0.02331
11.16 -0.0226131
11.17 -0.0214885
11.18 -0.0199609
11.19 -0.0180669
11.2 -0.0158417
11.21 -0.0133445
11.22 -0.0106619
11.23 -0.00786312
11.24 -0.00501945
11.25 -0.00220192
11.26 0.000520768
11.27 0.0030628
11.28 0.00537459
11.29 0.00741204
11.3 0.00913788
11.31 0.0105255
11.32 0.0115595
11.33 0.0122231
11.34 0.0125093
11.35 0.0124669
11.36 0.0121244
11.37 0.0115179
11.38 0.0106892
11.39 0.00968432
11.4 0.0085449
11.41 0.00733319
11.42 0.00609949
11.43 0.00488721
11.44 0.00373487
11.45 0.00267503
11.46 0.00173666
11.47 0.000948647
11.48 0.000307892
11.49 -0.000184885
11.5 -0.000536059
11.51 -0.00075836
11.52 -0.000869912
11.53 -0.000888288
11.54 -0.000845838
11.55 -0.000772985
11.56 -0.000696528
11.57 -0.000641724
11.58 -0.000631085
11.59 -0.000684377
11.6 -0.000823793
11.61 -0.00104974
11.62 -0.00136388
11.63 -0.00176219
11.64 -0.00223525
11.65 -0.00276872
11.66 -0.00334527
11.67 -0.00393871
11.68 -0.00452246
11.69 -0.00507111
11.7 -0.00555965
11.71 -0.00596459
11.72 -0.0062648
11.73 -0.00642771
11.74 -0.00645431
11.75 -0.00633826
11.76 -0.00607872
11.77 -0.00568048
11.78 -0.00515374
11.79 -0.00450876
11.8 -0.00376836
