# xPDFsuite Configuration #
[PDF]
wavelength = 0.1
dataformat = QA
inputfile = BiMsol6_insitu_700 C-00671.xy
backgroundfile = Quartz2mm-dist500-00000.xy
mode = xray
bgscale = 0.0042
composition = Bi2Fe4O9
outputtype = gr
qmaxinst = 24.998449118
qmin = 0.1
qmax = 21.4986662415
rmax = 80.0
rmin = 0.0
rstep = 0.01
rpoly = 0.9

[Misc]
inputdir = C:/Data/Seafile/CPH/Beamtime/Desy Oct 20/In situ data/Processed/BiMsol6/PDF
savedir = C:/Data/Seafile/CPH/Beamtime/Desy Oct 20/In situ data/PDF/BiMsol6
backgroundfilefull = C:/Data/Seafile/CPH/Beamtime/Desy Oct 20/In situ data/Processed/Standard_Empty_Cap/Quartz2mm-dist500-00000.xy

#### start data
#S 1
#L r($\AA$)  G($\AA^{-2}$)
0 0
0.01 0.00639762
0.02 0.0124329
0.03 0.0177957
0.04 0.0222078
0.05 0.0254358
0.06 0.0273018
0.07 0.0276112
0.08 0.0263077
0.09 0.0235348
0.1 0.0194109
0.11 0.0141193
0.12 0.00790027
0.13 0.00104024
0.14 -0.00613867
0.15 -0.0132315
0.16 -0.0198968
0.17 -0.0258142
0.18 -0.030697
0.19 -0.0343058
0.2 -0.0363951
0.21 -0.0367977
0.22 -0.0356129
0.23 -0.0329082
0.24 -0.0288293
0.25 -0.0235952
0.26 -0.0174897
0.27 -0.0108361
0.28 -0.00409753
0.29 0.00231383
0.3 0.00799844
0.31 0.0125772
0.32 0.01571
0.33 0.0170534
0.34 0.0162725
0.35 0.0134231
0.36 0.00850632
0.37 0.00162745
0.38 -0.00700294
0.39 -0.0170722
0.4 -0.028217
0.41 -0.0398197
0.42 -0.051275
0.43 -0.0619683
0.44 -0.0712653
0.45 -0.0785357
0.46 -0.0831147
0.47 -0.0841471
0.48 -0.0814556
0.49 -0.0747012
0.5 -0.063668
0.51 -0.0482771
0.52 -0.0285956
0.53 -0.00457375
0.54 0.0232274
0.55 0.0540771
0.56 0.0872949
0.57 0.122089
0.58 0.157579
0.59 0.192806
0.6 0.226548
0.61 0.257867
0.62 0.285817
0.63 0.309513
0.64 0.328167
0.65 0.341108
0.66 0.3474
0.67 0.346685
0.68 0.33917
0.69 0.324896
0.7 0.304085
0.71 0.277136
0.72 0.244614
0.73 0.206775
0.74 0.165105
0.75 0.120584
0.76 0.0742425
0.77 0.0271437
0.78 -0.0196481
0.79 -0.0649799
0.8 -0.10771
0.81 -0.147087
0.82 -0.182382
0.83 -0.213007
0.84 -0.238529
0.85 -0.25868
0.86 -0.272803
0.87 -0.281494
0.88 -0.285097
0.89 -0.284023
0.9 -0.278806
0.91 -0.270082
0.92 -0.258487
0.93 -0.244819
0.94 -0.230073
0.95 -0.215024
0.96 -0.200406
0.97 -0.186894
0.98 -0.175076
0.99 -0.165682
1 -0.158963
1.01 -0.155085
1.02 -0.154145
1.03 -0.156118
1.04 -0.160863
1.05 -0.168197
1.06 -0.177864
1.07 -0.189221
1.08 -0.201798
1.09 -0.2151
1.1 -0.228628
1.11 -0.241897
1.12 -0.254367
1.13 -0.265632
1.14 -0.275408
1.15 -0.283464
1.16 -0.289652
1.17 -0.293914
1.18 -0.296246
1.19 -0.296633
1.2 -0.295464
1.21 -0.292996
1.22 -0.289532
1.23 -0.285402
1.24 -0.280949
1.25 -0.276536
1.26 -0.272521
1.27 -0.269173
1.28 -0.266711
1.29 -0.265298
1.3 -0.265027
1.31 -0.26593
1.32 -0.268066
1.33 -0.271176
1.34 -0.275071
1.35 -0.279516
1.36 -0.284236
1.37 -0.288935
1.38 -0.293268
1.39 -0.296891
1.4 -0.299554
1.41 -0.301024
1.42 -0.301115
1.43 -0.299703
1.44 -0.296727
1.45 -0.292034
1.46 -0.285892
1.47 -0.278477
1.48 -0.27002
1.49 -0.260801
1.5 -0.251146
1.51 -0.241419
1.52 -0.232049
1.53 -0.223397
1.54 -0.215803
1.55 -0.209571
1.56 -0.204953
1.57 -0.202142
1.58 -0.201461
1.59 -0.20278
1.6 -0.20601
1.61 -0.211012
1.62 -0.217574
1.63 -0.22541
1.64 -0.234196
1.65 -0.243506
1.66 -0.252837
1.67 -0.261746
1.68 -0.269794
1.69 -0.27656
1.7 -0.28166
1.71 -0.284556
1.72 -0.285083
1.73 -0.283122
1.74 -0.278581
1.75 -0.271455
1.76 -0.261825
1.77 -0.249805
1.78 -0.235543
1.79 -0.219579
1.8 -0.202296
1.81 -0.184118
1.82 -0.16549
1.83 -0.146867
1.84 -0.128762
1.85 -0.111626
1.86 -0.0958029
1.87 -0.0816008
1.88 -0.0692584
1.89 -0.0589394
1.9 -0.0507584
1.91 -0.0448916
1.92 -0.0410222
1.93 -0.0389767
1.94 -0.0385172
1.95 -0.0393524
1.96 -0.0411503
1.97 -0.043568
1.98 -0.046173
1.99 -0.0485807
2 -0.0504597
2.01 -0.0515189
2.02 -0.0515201
2.03 -0.0502835
2.04 -0.047556
2.05 -0.0434761
2.06 -0.038118
2.07 -0.0316318
2.08 -0.0242395
2.09 -0.0162261
2.1 -0.00793636
2.11 0.000187454
2.12 0.00772321
2.13 0.0142571
2.14 0.0193858
2.15 0.0227324
2.16 0.0239606
2.17 0.0225025
2.18 0.0183809
2.19 0.0114968
2.2 0.00181621
2.21 -0.0106094
2.22 -0.0256432
2.23 -0.0431616
2.24 -0.0628722
2.25 -0.0842311
2.26 -0.106812
2.27 -0.130153
2.28 -0.15377
2.29 -0.177172
2.3 -0.199766
2.31 -0.221111
2.32 -0.24082
2.33 -0.258551
2.34 -0.274029
2.35 -0.287052
2.36 -0.297409
2.37 -0.304941
2.38 -0.309929
2.39 -0.312514
2.4 -0.312909
2.41 -0.311387
2.42 -0.308271
2.43 -0.30385
2.44 -0.29863
2.45 -0.293042
2.46 -0.287473
2.47 -0.28229
2.48 -0.277826
2.49 -0.2744
2.5 -0.27236
2.51 -0.271766
2.52 -0.272715
2.53 -0.275238
2.54 -0.279301
2.55 -0.284811
2.56 -0.291702
2.57 -0.2997
2.58 -0.308508
2.59 -0.317858
2.6 -0.327467
2.61 -0.337048
2.62 -0.346315
2.63 -0.354922
2.64 -0.36268
2.65 -0.369398
2.66 -0.374925
2.67 -0.379156
2.68 -0.382033
2.69 -0.383459
2.7 -0.383499
2.71 -0.382313
2.72 -0.380023
2.73 -0.376782
2.74 -0.372766
2.75 -0.368164
2.76 -0.363149
2.77 -0.357979
2.78 -0.352834
2.79 -0.347881
2.8 -0.343261
2.81 -0.339091
2.82 -0.335489
2.83 -0.332519
2.84 -0.330161
2.85 -0.3284
2.86 -0.327194
2.87 -0.326476
2.88 -0.326161
2.89 -0.326168
2.9 -0.326345
2.91 -0.326573
2.92 -0.326737
2.93 -0.326728
2.94 -0.326446
2.95 -0.325785
2.96 -0.324649
2.97 -0.323011
2.98 -0.32083
2.99 -0.318079
3 -0.314744
3.01 -0.310817
3.02 -0.306239
3.03 -0.301057
3.04 -0.295281
3.05 -0.288903
3.06 -0.281907
3.07 -0.274265
3.08 -0.265912
3.09 -0.256745
3.1 -0.24675
3.11 -0.235841
3.12 -0.223925
3.13 -0.210898
3.14 -0.196654
3.15 -0.180967
3.16 -0.163797
3.17 -0.145101
3.18 -0.124814
3.19 -0.102891
3.2 -0.0793146
3.21 -0.0540651
3.22 -0.0270803
3.23 0.00138949
3.24 0.0312148
3.25 0.0622301
3.26 0.0942357
3.27 0.127001
3.28 0.160282
3.29 0.193742
3.3 0.227059
3.31 0.259924
3.32 0.292027
3.33 0.32306
3.34 0.352714
3.35 0.380522
3.36 0.406393
3.37 0.430114
3.38 0.451504
3.39 0.470424
3.4 0.48677
3.41 0.500312
3.42 0.511053
3.43 0.519159
3.44 0.52469
3.45 0.527733
3.46 0.528404
3.47 0.52684
3.48 0.522973
3.49 0.517222
3.5 0.509762
3.51 0.500766
3.52 0.490404
3.53 0.478838
3.54 0.466173
3.55 0.452559
3.56 0.438188
3.57 0.423171
3.58 0.407608
3.59 0.391589
3.6 0.375191
3.61 0.358462
3.62 0.341506
3.63 0.324392
3.64 0.307187
3.65 0.289962
3.66 0.272794
3.67 0.255778
3.68 0.239029
3.69 0.222639
3.7 0.206722
3.71 0.191396
3.72 0.17679
3.73 0.163032
3.74 0.150361
3.75 0.138852
3.76 0.128607
3.77 0.119744
3.78 0.112369
3.79 0.106575
3.8 0.102489
3.81 0.100276
3.82 0.0998243
3.83 0.101147
3.84 0.104238
3.85 0.109071
3.86 0.115601
3.87 0.123892
3.88 0.133777
3.89 0.145104
3.9 0.157767
3.91 0.171656
3.92 0.186652
3.93 0.202651
3.94 0.219587
3.95 0.237248
3.96 0.255518
3.97 0.274288
3.98 0.293451
3.99 0.312907
4 0.332567
4.01 0.352319
4.02 0.372066
4.03 0.391719
4.04 0.411189
4.05 0.430385
4.06 0.449209
4.07 0.467503
4.08 0.485207
4.09 0.502211
4.1 0.518402
4.11 0.533662
4.12 0.547871
4.13 0.560829
4.14 0.572401
4.15 0.582538
4.16 0.59113
4.17 0.598075
4.18 0.603283
4.19 0.60668
4.2 0.607991
4.21 0.607379
4.22 0.604837
4.23 0.600372
4.24 0.594011
4.25 0.585804
4.26 0.575735
4.27 0.563875
4.28 0.550449
4.29 0.535575
4.3 0.519381
4.31 0.501999
4.32 0.483562
4.33 0.46412
4.34 0.443895
4.35 0.423013
4.36 0.40158
4.37 0.379683
4.38 0.357398
4.39 0.334772
4.4 0.311839
4.41 0.288649
4.42 0.265212
4.43 0.241526
4.44 0.217584
4.45 0.193372
4.46 0.168846
4.47 0.144011
4.48 0.118867
4.49 0.0934192
4.5 0.0676813
4.51 0.0416836
4.52 0.0154679
4.53 -0.0109013
4.54 -0.0373205
4.55 -0.0636878
4.56 -0.0898867
4.57 -0.115788
4.58 -0.141252
4.59 -0.166075
4.6 -0.190115
4.61 -0.213248
4.62 -0.235336
4.63 -0.256253
4.64 -0.275887
4.65 -0.29412
4.66 -0.310752
4.67 -0.325881
4.68 -0.339492
4.69 -0.351596
4.7 -0.362226
4.71 -0.371444
4.72 -0.379247
4.73 -0.385782
4.74 -0.391236
4.75 -0.39574
4.76 -0.399437
4.77 -0.402469
4.78 -0.404976
4.79 -0.40707
4.8 -0.408929
4.81 -0.410662
4.82 -0.412364
4.83 -0.41411
4.84 -0.415954
4.85 -0.417943
4.86 -0.420092
4.87 -0.422385
4.88 -0.424798
4.89 -0.427295
4.9 -0.429826
4.91 -0.432334
4.92 -0.434742
4.93 -0.436988
4.94 -0.439012
4.95 -0.440756
4.96 -0.442171
4.97 -0.443217
4.98 -0.443842
4.99 -0.444015
5 -0.443758
5.01 -0.443073
5.02 -0.441972
5.03 -0.440472
5.04 -0.438596
5.05 -0.436336
5.06 -0.433749
5.07 -0.430864
5.08 -0.427697
5.09 -0.424259
5.1 -0.420554
5.11 -0.416564
5.12 -0.412259
5.13 -0.407635
5.14 -0.402661
5.15 -0.397298
5.16 -0.391503
5.17 -0.385236
5.18 -0.378405
5.19 -0.371004
5.2 -0.363021
5.21 -0.354443
5.22 -0.345269
5.23 -0.335517
5.24 -0.325209
5.25 -0.314372
5.26 -0.303134
5.27 -0.291588
5.28 -0.279844
5.29 -0.268028
5.3 -0.256274
5.31 -0.244752
5.32 -0.233621
5.33 -0.223016
5.34 -0.213074
5.35 -0.203921
5.36 -0.19567
5.37 -0.188425
5.38 -0.182359
5.39 -0.177404
5.4 -0.173571
5.41 -0.170843
5.42 -0.169175
5.43 -0.168497
5.44 -0.168767
5.45 -0.169835
5.46 -0.171521
5.47 -0.173676
5.48 -0.176146
5.49 -0.178775
5.5 -0.181409
5.51 -0.183872
5.52 -0.186039
5.53 -0.187799
5.54 -0.189062
5.55 -0.189761
5.56 -0.189853
5.57 -0.189286
5.58 -0.188064
5.59 -0.186258
5.6 -0.183921
5.61 -0.181119
5.62 -0.177929
5.63 -0.174435
5.64 -0.170708
5.65 -0.166861
5.66 -0.162967
5.67 -0.159085
5.68 -0.155258
5.69 -0.151508
5.7 -0.147841
5.71 -0.144231
5.72 -0.140622
5.73 -0.136945
5.74 -0.133113
5.75 -0.129021
5.76 -0.124555
5.77 -0.119533
5.78 -0.113856
5.79 -0.107418
5.8 -0.10011
5.81 -0.091843
5.82 -0.0825439
5.83 -0.072129
5.84 -0.0605236
5.85 -0.0478362
5.86 -0.0341153
5.87 -0.0194393
5.88 -0.00391609
5.89 0.0123203
5.9 0.0291446
5.91 0.0463254
5.92 0.0636536
5.93 0.0809303
5.94 0.0979566
5.95 0.114539
5.96 0.130478
5.97 0.145534
5.98 0.159633
5.99 0.172667
6 0.184561
6.01 0.195267
6.02 0.204773
6.03 0.213015
6.04 0.220092
6.05 0.226141
6.06 0.231269
6.07 0.235601
6.08 0.239276
6.09 0.242435
6.1 0.245206
6.11 0.247779
6.12 0.250278
6.13 0.252809
6.14 0.255457
6.15 0.258282
6.16 0.261326
6.17 0.264584
6.18 0.268009
6.19 0.271533
6.2 0.275067
6.21 0.278496
6.22 0.281689
6.23 0.284436
6.24 0.286614
6.25 0.288067
6.26 0.288646
6.27 0.288212
6.28 0.286641
6.29 0.283761
6.3 0.279472
6.31 0.273813
6.32 0.26677
6.33 0.258363
6.34 0.248639
6.35 0.237674
6.36 0.225462
6.37 0.212252
6.38 0.198202
6.39 0.183469
6.4 0.168219
6.41 0.152615
6.42 0.136818
6.43 0.121
6.44 0.105307
6.45 0.0898552
6.46 0.0747381
6.47 0.0600275
6.48 0.0457703
6.49 0.0320338
6.5 0.0187782
6.51 0.0059641
6.52 -0.00645538
6.53 -0.018542
6.54 -0.0303687
6.55 -0.042012
6.56 -0.0535592
6.57 -0.0651027
6.58 -0.0767132
6.59 -0.0884498
6.6 -0.100357
6.61 -0.112463
6.62 -0.124793
6.63 -0.13732
6.64 -0.15
6.65 -0.162779
6.66 -0.175583
6.67 -0.188325
6.68 -0.200899
6.69 -0.213159
6.7 -0.225009
6.71 -0.236334
6.72 -0.24702
6.73 -0.256963
6.74 -0.266067
6.75 -0.274177
6.76 -0.281241
6.77 -0.287255
6.78 -0.292185
6.79 -0.296016
6.8 -0.298748
6.81 -0.300386
6.82 -0.300855
6.83 -0.300308
6.84 -0.298789
6.85 -0.296342
6.86 -0.293013
6.87 -0.288843
6.88 -0.283817
6.89 -0.27797
6.9 -0.271358
6.91 -0.263981
6.92 -0.255827
6.93 -0.246871
6.94 -0.237077
6.95 -0.226293
6.96 -0.214557
6.97 -0.20181
6.98 -0.187993
6.99 -0.173046
7 -0.156914
7.01 -0.13949
7.02 -0.120716
7.03 -0.100661
7.04 -0.0793286
7.05 -0.056743
7.06 -0.0329483
7.07 -0.00801013
7.08 0.0180827
7.09 0.0451139
7.1 0.0729388
7.11 0.101412
7.12 0.130374
7.13 0.159658
7.14 0.189087
7.15 0.218459
7.16 0.247589
7.17 0.276311
7.18 0.304463
7.19 0.331898
7.2 0.358482
7.21 0.383999
7.22 0.408405
7.23 0.431646
7.24 0.453661
7.25 0.474407
7.26 0.493854
7.27 0.511949
7.28 0.528608
7.29 0.543952
7.3 0.557991
7.31 0.570737
7.32 0.582199
7.33 0.592386
7.34 0.601196
7.35 0.60868
7.36 0.614866
7.37 0.61973
7.38 0.623237
7.39 0.625345
7.4 0.625979
7.41 0.624948
7.42 0.622341
7.43 0.618095
7.44 0.612153
7.45 0.604463
7.46 0.594979
7.47 0.583541
7.48 0.570169
7.49 0.554952
7.5 0.53791
7.51 0.519084
7.52 0.498535
7.53 0.476337
7.54 0.452448
7.55 0.427176
7.56 0.400672
7.57 0.3731
7.58 0.344638
7.59 0.315478
7.6 0.285802
7.61 0.255848
7.62 0.22585
7.63 0.196014
7.64 0.166538
7.65 0.137615
7.66 0.109427
7.67 0.0822599
7.68 0.0561837
7.69 0.0313256
7.7 0.00779992
7.71 -0.0142979
7.72 -0.0348912
7.73 -0.0538458
7.74 -0.0710853
7.75 -0.0867024
7.76 -0.100697
7.77 -0.113087
7.78 -0.1239
7.79 -0.133181
7.8 -0.140842
7.81 -0.14708
7.82 -0.151995
7.83 -0.155666
7.84 -0.158181
7.85 -0.159628
7.86 -0.160069
7.87 -0.159571
7.88 -0.158304
7.89 -0.156361
7.9 -0.15383
7.91 -0.150798
7.92 -0.147347
7.93 -0.143529
7.94 -0.139445
7.95 -0.135167
7.96 -0.130749
7.97 -0.126241
7.98 -0.121682
7.99 -0.117104
8 -0.112535
8.01 -0.107987
8.02 -0.103468
8.03 -0.0989772
8.04 -0.0945066
8.05 -0.0900442
8.06 -0.0855712
8.07 -0.0810658
8.08 -0.0765074
8.09 -0.0718754
8.1 -0.0671511
8.11 -0.0623192
8.12 -0.0573671
8.13 -0.0522797
8.14 -0.0470736
8.15 -0.0417611
8.16 -0.0363629
8.17 -0.0309085
8.18 -0.0254353
8.19 -0.019994
8.2 -0.0146451
8.21 -0.00944577
8.22 -0.00445854
8.23 0.000252437
8.24 0.00462335
8.25 0.00859127
8.26 0.0120431
8.27 0.0149782
8.28 0.0173582
8.29 0.019156
8.3 0.0203567
8.31 0.0209587
8.32 0.0209432
8.33 0.0203408
8.34 0.0192309
8.35 0.0176701
8.36 0.015726
8.37 0.0134752
8.38 0.0110012
8.39 0.00838632
8.4 0.00574196
8.41 0.00315501
8.42 0.000705741
8.43 -0.00153412
8.44 -0.00350405
8.45 -0.00514125
8.46 -0.00640306
8.47 -0.00730337
8.48 -0.00785091
8.49 -0.00807256
8.5 -0.00801293
8.51 -0.00773322
8.52 -0.00730422
8.53 -0.00683803
8.54 -0.00643792
8.55 -0.0062104
8.56 -0.00626428
8.57 -0.00670714
8.58 -0.00766202
8.59 -0.00926336
8.6 -0.011548
8.61 -0.0145797
8.62 -0.0184049
8.63 -0.0230507
8.64 -0.0285242
8.65 -0.0348797
8.66 -0.042029
8.67 -0.0498895
8.68 -0.058386
8.69 -0.0674284
8.7 -0.0769149
8.71 -0.08674
8.72 -0.0967881
8.73 -0.106913
8.74 -0.117001
8.75 -0.126946
8.76 -0.13665
8.77 -0.146029
8.78 -0.154978
8.79 -0.163453
8.8 -0.171441
8.81 -0.178928
8.82 -0.185918
8.83 -0.192432
8.84 -0.198498
8.85 -0.204135
8.86 -0.209446
8.87 -0.214496
8.88 -0.21935
8.89 -0.224073
8.9 -0.228727
8.91 -0.233367
8.92 -0.238043
8.93 -0.242783
8.94 -0.247601
8.95 -0.252497
8.96 -0.257456
8.97 -0.262447
8.98 -0.267416
8.99 -0.272303
9 -0.277036
9.01 -0.281541
9.02 -0.285737
9.03 -0.289544
9.04 -0.292853
9.05 -0.295577
9.06 -0.297685
9.07 -0.299128
9.08 -0.299869
9.09 -0.299889
9.1 -0.299185
9.11 -0.297697
9.12 -0.295531
9.13 -0.292746
9.14 -0.289406
9.15 -0.285588
9.16 -0.281378
9.17 -0.276862
9.18 -0.272144
9.19 -0.267342
9.2 -0.26255
9.21 -0.257854
9.22 -0.253332
9.23 -0.249049
9.24 -0.245092
9.25 -0.241476
9.26 -0.238216
9.27 -0.235312
9.28 -0.232754
9.29 -0.230516
9.3 -0.228567
9.31 -0.226864
9.32 -0.225325
9.33 -0.223889
9.34 -0.222492
9.35 -0.221071
9.36 -0.219569
9.37 -0.217915
9.38 -0.216068
9.39 -0.214
9.4 -0.211689
9.41 -0.209126
9.42 -0.206311
9.43 -0.203252
9.44 -0.199958
9.45 -0.196484
9.46 -0.192866
9.47 -0.189146
9.48 -0.185366
9.49 -0.181566
9.5 -0.177787
9.51 -0.17406
9.52 -0.170405
9.53 -0.16683
9.54 -0.163331
9.55 -0.159895
9.56 -0.156492
9.57 -0.153075
9.58 -0.149586
9.59 -0.145959
9.6 -0.142123
9.61 -0.137997
9.62 -0.133499
9.63 -0.128512
9.64 -0.122947
9.65 -0.116752
9.66 -0.10986
9.67 -0.102214
9.68 -0.0937651
9.69 -0.0844816
9.7 -0.0742449
9.71 -0.0631506
9.72 -0.0512147
9.73 -0.0384662
9.74 -0.0249472
9.75 -0.0107119
9.76 0.00420513
9.77 0.0197275
9.78 0.0357335
9.79 0.0521402
9.8 0.0688637
9.81 0.0858214
9.82 0.102934
9.83 0.120127
9.84 0.137319
9.85 0.154449
9.86 0.171464
9.87 0.18832
9.88 0.204979
9.89 0.2214
9.9 0.237545
9.91 0.25341
9.92 0.268977
9.93 0.284229
9.94 0.299146
9.95 0.313709
9.96 0.327854
9.97 0.341576
9.98 0.354848
9.99 0.367628
10 0.379873
10.01 0.39153
10.02 0.402526
10.03 0.412756
10.04 0.422219
10.05 0.430861
10.06 0.438631
10.07 0.445483
10.08 0.451381
10.09 0.456217
10.1 0.460024
10.11 0.462838
10.12 0.464678
10.13 0.465578
10.14 0.465587
10.15 0.464756
10.16 0.463116
10.17 0.46084
10.18 0.458034
10.19 0.45481
10.2 0.451284
10.21 0.447576
10.22 0.443806
10.23 0.440104
10.24 0.436574
10.25 0.433306
10.26 0.430378
10.27 0.427849
10.28 0.425765
10.29 0.424198
10.3 0.423097
10.31 0.422439
10.32 0.422185
10.33 0.422277
10.34 0.422642
10.35 0.423197
10.36 0.423827
10.37 0.424417
10.38 0.424855
10.39 0.42503
10.4 0.424834
10.41 0.424162
10.42 0.422847
10.43 0.42086
10.44 0.418135
10.45 0.414618
10.46 0.410271
10.47 0.405069
10.48 0.398962
10.49 0.391943
10.5 0.384093
10.51 0.375445
10.52 0.366043
10.53 0.355937
10.54 0.345182
10.55 0.333781
10.56 0.321849
10.57 0.309453
10.58 0.296644
10.59 0.283468
10.6 0.269968
10.61 0.256167
10.62 0.242083
10.63 0.227758
10.64 0.213204
10.65 0.198425
10.66 0.183426
10.67 0.168204
10.68 0.152738
10.69 0.137039
10.7 0.121114
10.71 0.104968
10.72 0.0886088
10.73 0.0720516
10.74 0.0553132
10.75 0.0384162
10.76 0.0214125
10.77 0.00434413
10.78 -0.0127414
10.79 -0.0297923
10.8 -0.0467541
10.81 -0.0635548
10.82 -0.0801381
10.83 -0.0964574
10.84 -0.112465
10.85 -0.128118
10.86 -0.143383
10.87 -0.158227
10.88 -0.172596
10.89 -0.186529
10.9 -0.200031
10.91 -0.21312
10.92 -0.225821
10.93 -0.238167
10.94 -0.250178
10.95 -0.261913
10.96 -0.273433
10.97 -0.284785
10.98 -0.296014
10.99 -0.307161
11 -0.318259
11.01 -0.329334
11.02 -0.340402
11.03 -0.351466
11.04 -0.362513
11.05 -0.37352
11.06 -0.38445
11.07 -0.395245
11.08 -0.405835
11.09 -0.416155
11.1 -0.426128
11.11 -0.435668
11.12 -0.44469
11.13 -0.453105
11.14 -0.460743
11.15 -0.467585
11.16 -0.473565
11.17 -0.478619
11.18 -0.482693
11.19 -0.485746
11.2 -0.487702
11.21 -0.488521
11.22 -0.48828
11.23 -0.486996
11.24 -0.484698
11.25 -0.481426
11.26 -0.477229
11.27 -0.472084
11.28 -0.466134
11.29 -0.459459
11.3 -0.452128
11.31 -0.444208
11.32 -0.435759
11.33 -0.426828
11.34 -0.41745
11.35 -0.407705
11.36 -0.397627
11.37 -0.387239
11.38 -0.376556
11.39 -0.365586
11.4 -0.354302
11.41 -0.342712
11.42 -0.330813
11.43 -0.318589
11.44 -0.306024
11.45 -0.293103
11.46 -0.279806
11.47 -0.266098
11.48 -0.252014
11.49 -0.237564
11.5 -0.222763
11.51 -0.20764
11.52 -0.192231
11.53 -0.176569
11.54 -0.160727
11.55 -0.144783
11.56 -0.128809
11.57 -0.112885
11.58 -0.0970955
11.59 -0.0815294
11.6 -0.0663107
11.61 -0.0514975
11.62 -0.0371683
11.63 -0.0233949
11.64 -0.0102413
11.65 0.00223814
11.66 0.0139498
11.67 0.0248697
11.68 0.0350177
11.69 0.0443893
11.7 0.0529917
11.71 0.0608438
11.72 0.0679732
11.73 0.0743465
11.74 0.0800941
11.75 0.0852697
11.76 0.0899309
11.77 0.0941375
11.78 0.0979498
11.79 0.101411
11.8 0.104582
11.81 0.107534
11.82 0.110308
11.83 0.11294
11.84 0.115459
11.85 0.117883
11.86 0.120213
11.87 0.122459
11.88 0.124612
11.89 0.126656
11.9 0.128567
11.91 0.130316
11.92 0.131859
11.93 0.133145
11.94 0.134147
11.95 0.134825
11.96 0.135136
11.97 0.135039
11.98 0.134495
11.99 0.133418
12 0.131808
12.01 0.129648
12.02 0.126914
12.03 0.123584
12.04 0.119644
12.05 0.11506
12.06 0.109792
12.07 0.103889
12.08 0.0973495
12.09 0.0901759
12.1 0.0823723
12.11 0.0739451
12.12 0.0648504
12.13 0.0551329
12.14 0.0448238
12.15 0.0339365
12.16 0.0224865
12.17 0.0104913
