# xPDFsuite Configuration #
[PDF]
wavelength = 0.1
dataformat = QA
inputfile = BiMsol6_insitu_700 C-00372.xy
backgroundfile = Quartz2mm-dist500-00000.xy
mode = xray
bgscale = 0.0042
composition = Bi2Fe4O9
outputtype = gr
qmaxinst = 24.998449118
qmin = 0.1
qmax = 21.4986662415
rmax = 80.0
rmin = 0.0
rstep = 0.01
rpoly = 0.9

[Misc]
inputdir = C:/Data/Seafile/CPH/Beamtime/Desy Oct 20/In situ data/Processed/BiMsol6/PDF
savedir = C:/Data/Seafile/CPH/Beamtime/Desy Oct 20/In situ data/PDF/BiMsol6
backgroundfilefull = C:/Data/Seafile/CPH/Beamtime/Desy Oct 20/In situ data/Processed/Standard_Empty_Cap/Quartz2mm-dist500-00000.xy

#### start data
#S 1
#L r($\AA$)  G($\AA^{-2}$)
0 0
0.01 0.00606952
0.02 0.0117954
0.03 0.0168834
0.04 0.0210697
0.05 0.0241328
0.06 0.0259037
0.07 0.0261978
0.08 0.0249613
0.09 0.0223303
0.1 0.0184169
0.11 0.0133948
0.12 0.00749214
0.13 0.000980793
0.14 -0.00583326
0.15 -0.0125652
0.16 -0.0188902
0.17 -0.0245036
0.18 -0.0291324
0.19 -0.0325484
0.2 -0.0345177
0.21 -0.0348809
0.22 -0.0337325
0.23 -0.031137
0.24 -0.0272337
0.25 -0.0222324
0.26 -0.0164052
0.27 -0.0100633
0.28 -0.00365126
0.29 0.00243451
0.3 0.00780865
0.31 0.0121048
0.32 0.0149936
0.33 0.0161413
0.34 0.015221
0.35 0.0122852
0.36 0.00733242
0.37 0.000462504
0.38 -0.00812226
0.39 -0.0181196
0.4 -0.0291777
0.41 -0.0406935
0.42 -0.0520738
0.43 -0.0627139
0.44 -0.071987
0.45 -0.0792672
0.46 -0.0838903
0.47 -0.084998
0.48 -0.0823993
0.49 -0.07574
0.5 -0.0647845
0.51 -0.04943
0.52 -0.0297167
0.53 -0.00555646
0.54 0.0225212
0.55 0.0538102
0.56 0.0876568
0.57 0.123292
0.58 0.159853
0.59 0.196396
0.6 0.231721
0.61 0.264861
0.62 0.294847
0.63 0.320771
0.64 0.341806
0.65 0.357235
0.66 0.366068
0.67 0.367877
0.68 0.362802
0.69 0.350813
0.7 0.332065
0.71 0.306892
0.72 0.275797
0.73 0.238931
0.74 0.197779
0.75 0.153291
0.76 0.106481
0.77 0.0584079
0.78 0.010149
0.79 -0.0371377
0.8 -0.0822675
0.81 -0.124401
0.82 -0.162739
0.83 -0.196614
0.84 -0.225508
0.85 -0.249062
0.86 -0.266512
0.87 -0.278361
0.88 -0.284871
0.89 -0.286379
0.9 -0.283356
0.91 -0.276389
0.92 -0.26606
0.93 -0.253131
0.94 -0.238639
0.95 -0.223381
0.96 -0.20813
0.97 -0.193613
0.98 -0.180488
0.99 -0.169549
1 -0.161159
1.01 -0.155583
1.02 -0.153008
1.03 -0.1535
1.04 -0.157002
1.05 -0.163415
1.06 -0.172574
1.07 -0.183849
1.08 -0.196799
1.09 -0.210937
1.1 -0.225755
1.11 -0.240741
1.12 -0.255338
1.13 -0.269054
1.14 -0.281518
1.15 -0.292414
1.16 -0.301506
1.17 -0.308643
1.18 -0.313727
1.19 -0.316627
1.2 -0.317671
1.21 -0.317052
1.22 -0.315023
1.23 -0.31188
1.24 -0.30795
1.25 -0.303565
1.26 -0.299121
1.27 -0.294951
1.28 -0.291331
1.29 -0.288493
1.3 -0.286614
1.31 -0.285812
1.32 -0.286251
1.33 -0.28777
1.34 -0.290271
1.35 -0.293596
1.36 -0.297542
1.37 -0.301865
1.38 -0.306289
1.39 -0.310492
1.4 -0.314198
1.41 -0.317153
1.42 -0.319135
1.43 -0.319968
1.44 -0.319525
1.45 -0.317586
1.46 -0.314304
1.47 -0.309762
1.48 -0.304098
1.49 -0.297507
1.5 -0.290231
1.51 -0.282548
1.52 -0.274813
1.53 -0.267374
1.54 -0.260552
1.55 -0.254646
1.56 -0.249928
1.57 -0.246623
1.58 -0.245077
1.59 -0.245262
1.6 -0.247174
1.61 -0.250761
1.62 -0.255899
1.63 -0.262394
1.64 -0.27002
1.65 -0.278449
1.66 -0.287234
1.67 -0.295983
1.68 -0.304294
1.69 -0.311769
1.7 -0.318024
1.71 -0.32254
1.72 -0.325085
1.73 -0.325475
1.74 -0.323551
1.75 -0.319231
1.76 -0.31251
1.77 -0.303413
1.78 -0.291983
1.79 -0.278679
1.8 -0.263811
1.81 -0.247741
1.82 -0.230867
1.83 -0.213613
1.84 -0.196453
1.85 -0.179863
1.86 -0.164236
1.87 -0.149927
1.88 -0.137241
1.89 -0.12642
1.9 -0.117666
1.91 -0.111266
1.92 -0.107004
1.93 -0.104799
1.94 -0.1045
1.95 -0.105888
1.96 -0.108689
1.97 -0.112635
1.98 -0.1173
1.99 -0.122263
2 -0.127157
2.01 -0.131629
2.02 -0.135358
2.03 -0.13806
2.04 -0.139349
2.05 -0.139203
2.06 -0.137545
2.07 -0.13437
2.08 -0.129745
2.09 -0.123808
2.1 -0.116712
2.11 -0.108759
2.12 -0.10033
2.13 -0.0917701
2.14 -0.0834429
2.15 -0.0757164
2.16 -0.0689489
2.17 -0.0636507
2.18 -0.0600104
2.19 -0.0582559
2.2 -0.0585664
2.21 -0.0610564
2.22 -0.0657714
2.23 -0.0727816
2.24 -0.082023
2.25 -0.0931602
2.26 -0.105957
2.27 -0.120128
2.28 -0.135348
2.29 -0.151264
2.3 -0.167504
2.31 -0.18363
2.32 -0.199283
2.33 -0.214133
2.34 -0.227885
2.35 -0.240293
2.36 -0.251102
2.37 -0.260083
2.38 -0.26731
2.39 -0.272784
2.4 -0.276571
2.41 -0.278789
2.42 -0.279609
2.43 -0.27916
2.44 -0.277793
2.45 -0.275814
2.46 -0.273507
2.47 -0.271154
2.48 -0.269026
2.49 -0.26739
2.5 -0.266542
2.51 -0.266604
2.52 -0.267709
2.53 -0.26994
2.54 -0.273332
2.55 -0.277873
2.56 -0.283583
2.57 -0.290302
2.58 -0.297841
2.59 -0.306026
2.6 -0.314664
2.61 -0.323545
2.62 -0.332454
2.63 -0.341138
2.64 -0.349401
2.65 -0.357064
2.66 -0.363971
2.67 -0.369993
2.68 -0.375031
2.69 -0.378945
2.7 -0.381713
2.71 -0.383389
2.72 -0.383999
2.73 -0.383593
2.74 -0.382236
2.75 -0.380006
2.76 -0.376905
2.77 -0.373121
2.78 -0.368732
2.79 -0.363809
2.8 -0.358409
2.81 -0.352572
2.82 -0.346298
2.83 -0.339585
2.84 -0.332437
2.85 -0.324817
2.86 -0.316675
2.87 -0.307949
2.88 -0.298572
2.89 -0.28839
2.9 -0.277402
2.91 -0.265561
2.92 -0.252825
2.93 -0.239171
2.94 -0.224597
2.95 -0.209086
2.96 -0.192668
2.97 -0.175485
2.98 -0.157639
2.99 -0.139249
3 -0.120457
3.01 -0.101416
3.02 -0.0822971
3.03 -0.0632931
3.04 -0.0445698
3.05 -0.0262825
3.06 -0.00857291
3.07 0.00843668
3.08 0.024619
3.09 0.0398495
3.1 0.0541628
3.11 0.067555
3.12 0.0800529
3.13 0.0917128
3.14 0.102618
3.15 0.112832
3.16 0.122533
3.17 0.131886
3.18 0.141042
3.19 0.150151
3.2 0.159362
3.21 0.168817
3.22 0.178675
3.23 0.189005
3.24 0.199871
3.25 0.211311
3.26 0.223332
3.27 0.235909
3.28 0.249019
3.29 0.262548
3.3 0.276359
3.31 0.290316
3.32 0.304267
3.33 0.31805
3.34 0.331494
3.35 0.344362
3.36 0.356537
3.37 0.367877
3.38 0.378256
3.39 0.387572
3.4 0.395749
3.41 0.402661
3.42 0.408303
3.43 0.412757
3.44 0.416071
3.45 0.418318
3.46 0.419597
3.47 0.420024
3.48 0.419666
3.49 0.418766
3.5 0.417477
3.51 0.41595
3.52 0.414335
3.53 0.412771
3.54 0.4114
3.55 0.410353
3.56 0.409706
3.57 0.409528
3.58 0.409867
3.59 0.410753
3.6 0.412194
3.61 0.414237
3.62 0.416802
3.63 0.419843
3.64 0.423312
3.65 0.427152
3.66 0.431308
3.67 0.435728
3.68 0.440358
3.69 0.445129
3.7 0.450001
3.71 0.454938
3.72 0.459913
3.73 0.46491
3.74 0.469916
3.75 0.474925
3.76 0.479937
3.77 0.484952
3.78 0.489967
3.79 0.494979
3.8 0.499975
3.81 0.504931
3.82 0.509815
3.83 0.514583
3.84 0.519176
3.85 0.523524
3.86 0.527542
3.87 0.53109
3.88 0.534064
3.89 0.536362
3.9 0.537859
3.91 0.538429
3.92 0.537945
3.93 0.53626
3.94 0.533142
3.95 0.528608
3.96 0.522568
3.97 0.514952
3.98 0.505707
3.99 0.494802
4 0.482107
4.01 0.46768
4.02 0.451639
4.03 0.43404
4.04 0.414964
4.05 0.394505
4.06 0.372767
4.07 0.349769
4.08 0.325784
4.09 0.300954
4.1 0.27542
4.11 0.249328
4.12 0.222818
4.13 0.196022
4.14 0.169089
4.15 0.142157
4.16 0.115338
4.17 0.0887354
4.18 0.0624443
4.19 0.0365495
4.2 0.0111887
4.21 -0.0136159
4.22 -0.0378064
4.23 -0.0613283
4.24 -0.0841321
4.25 -0.106172
4.26 -0.127363
4.27 -0.147644
4.28 -0.167031
4.29 -0.18549
4.3 -0.202987
4.31 -0.219492
4.32 -0.234978
4.33 -0.249316
4.34 -0.262579
4.35 -0.274774
4.36 -0.285904
4.37 -0.295977
4.38 -0.305013
4.39 -0.313005
4.4 -0.319962
4.41 -0.326016
4.42 -0.331231
4.43 -0.335681
4.44 -0.339445
4.45 -0.342611
4.46 -0.34523
4.47 -0.347439
4.48 -0.349343
4.49 -0.351029
4.5 -0.35258
4.51 -0.354069
4.52 -0.355562
4.53 -0.357119
4.54 -0.358775
4.55 -0.360549
4.56 -0.36245
4.57 -0.364468
4.58 -0.366583
4.59 -0.368764
4.6 -0.370955
4.61 -0.373102
4.62 -0.375144
4.63 -0.377019
4.64 -0.378667
4.65 -0.380021
4.66 -0.380995
4.67 -0.381576
4.68 -0.381733
4.69 -0.381447
4.7 -0.380713
4.71 -0.379539
4.72 -0.377925
4.73 -0.375925
4.74 -0.373613
4.75 -0.371056
4.76 -0.368328
4.77 -0.365513
4.78 -0.362698
4.79 -0.359991
4.8 -0.357477
4.81 -0.355237
4.82 -0.353347
4.83 -0.351871
4.84 -0.350862
4.85 -0.350392
4.86 -0.350488
4.87 -0.351129
4.88 -0.352306
4.89 -0.353999
4.9 -0.356171
4.91 -0.358778
4.92 -0.361797
4.93 -0.365117
4.94 -0.368664
4.95 -0.372363
4.96 -0.376141
4.97 -0.379921
4.98 -0.383628
4.99 -0.387182
5 -0.39053
5.01 -0.39362
5.02 -0.396407
5.03 -0.398851
5.04 -0.40092
5.05 -0.402544
5.06 -0.403733
5.07 -0.404472
5.08 -0.404744
5.09 -0.404527
5.1 -0.4038
5.11 -0.402517
5.12 -0.400616
5.13 -0.3981
5.14 -0.394926
5.15 -0.39104
5.16 -0.386382
5.17 -0.380889
5.18 -0.374403
5.19 -0.366896
5.2 -0.358318
5.21 -0.348597
5.22 -0.33766
5.23 -0.325442
5.24 -0.311851
5.25 -0.296738
5.26 -0.280196
5.27 -0.262204
5.28 -0.242759
5.29 -0.221873
5.3 -0.199572
5.31 -0.1758
5.32 -0.15068
5.33 -0.124346
5.34 -0.0968914
5.35 -0.0684211
5.36 -0.0390515
5.37 -0.00889833
5.38 0.0219485
5.39 0.0532749
5.4 0.0849425
5.41 0.116813
5.42 0.148747
5.43 0.180612
5.44 0.21225
5.45 0.24352
5.46 0.274308
5.47 0.304494
5.48 0.333962
5.49 0.362597
5.5 0.390285
5.51 0.416782
5.52 0.442088
5.53 0.466091
5.54 0.488678
5.55 0.509735
5.56 0.529144
5.57 0.546686
5.58 0.562213
5.59 0.575718
5.6 0.587091
5.61 0.596224
5.62 0.603018
5.63 0.607383
5.64 0.608967
5.65 0.607954
5.66 0.60433
5.67 0.598079
5.68 0.589208
5.69 0.577751
5.7 0.563658
5.71 0.546962
5.72 0.527964
5.73 0.506809
5.74 0.483667
5.75 0.458727
5.76 0.432197
5.77 0.404193
5.78 0.375084
5.79 0.34514
5.8 0.314606
5.81 0.283725
5.82 0.252732
5.83 0.221861
5.84 0.191364
5.85 0.161412
5.86 0.132168
5.87 0.103769
5.88 0.0763311
5.89 0.0499424
5.9 0.0247676
5.91 0.000788264
5.92 -0.0220151
5.93 -0.0436451
5.94 -0.0641185
5.95 -0.0834631
5.96 -0.101691
5.97 -0.118768
5.98 -0.134834
5.99 -0.149922
6 -0.164055
6.01 -0.177248
6.02 -0.189501
6.03 -0.200729
6.04 -0.210932
6.05 -0.220107
6.06 -0.2282
6.07 -0.235144
6.08 -0.24087
6.09 -0.245285
6.1 -0.248174
6.11 -0.249604
6.12 -0.249511
6.13 -0.247845
6.14 -0.244571
6.15 -0.23967
6.16 -0.233048
6.17 -0.224759
6.18 -0.214948
6.19 -0.203703
6.2 -0.191133
6.21 -0.177372
6.22 -0.162577
6.23 -0.14684
6.24 -0.130471
6.25 -0.113668
6.26 -0.0966369
6.27 -0.0795803
6.28 -0.0626961
6.29 -0.0462002
6.3 -0.030294
6.31 -0.015099
6.32 -0.000737521
6.33 0.0126951
6.34 0.0251323
6.35 0.0365378
6.36 0.0467984
6.37 0.0560445
6.38 0.064348
6.39 0.0717945
6.4 0.0784924
6.41 0.0845684
6.42 0.0901511
6.43 0.0954039
6.44 0.100519
6.45 0.105655
6.46 0.110964
6.47 0.116589
6.48 0.122662
6.49 0.12936
6.5 0.136747
6.51 0.144881
6.52 0.153809
6.53 0.163557
6.54 0.174132
6.55 0.185539
6.56 0.19778
6.57 0.21073
6.58 0.224318
6.59 0.238464
6.6 0.253079
6.61 0.268071
6.62 0.28336
6.63 0.298825
6.64 0.314367
6.65 0.329903
6.66 0.345355
6.67 0.360652
6.68 0.375729
6.69 0.390506
6.7 0.404962
6.71 0.419061
6.72 0.43277
6.73 0.446063
6.74 0.458914
6.75 0.471259
6.76 0.48308
6.77 0.494363
6.78 0.50507
6.79 0.515154
6.8 0.524561
6.81 0.53322
6.82 0.54097
6.83 0.547809
6.84 0.553648
6.85 0.558391
6.86 0.561938
6.87 0.564186
6.88 0.564939
6.89 0.564087
6.9 0.561615
6.91 0.557431
6.92 0.551458
6.93 0.543628
6.94 0.533886
6.95 0.521967
6.96 0.508069
6.97 0.492196
6.98 0.474368
6.99 0.454619
7 0.433005
7.01 0.409512
7.02 0.384216
7.03 0.357342
7.04 0.329009
7.05 0.29935
7.06 0.268505
7.07 0.236621
7.08 0.203778
7.09 0.170227
7.1 0.13614
7.11 0.101675
7.12 0.0669867
7.13 0.0322283
7.14 -0.00244405
7.15 -0.0368606
7.16 -0.0708962
7.17 -0.104425
7.18 -0.137328
7.19 -0.169497
7.2 -0.200829
7.21 -0.231137
7.22 -0.260392
7.23 -0.288542
7.24 -0.315523
7.25 -0.341277
7.26 -0.365757
7.27 -0.388885
7.28 -0.410544
7.29 -0.430832
7.3 -0.449734
7.31 -0.467249
7.32 -0.483378
7.33 -0.498134
7.34 -0.51143
7.35 -0.523358
7.36 -0.534003
7.37 -0.543407
7.38 -0.551618
7.39 -0.558689
7.4 -0.56466
7.41 -0.569514
7.42 -0.57342
7.43 -0.576444
7.44 -0.578646
7.45 -0.58009
7.46 -0.580835
7.47 -0.580894
7.48 -0.580342
7.49 -0.579251
7.5 -0.577662
7.51 -0.575606
7.52 -0.573109
7.53 -0.570186
7.54 -0.566809
7.55 -0.563027
7.56 -0.558838
7.57 -0.554234
7.58 -0.549206
7.59 -0.543736
7.6 -0.53778
7.61 -0.531316
7.62 -0.52435
7.63 -0.516864
7.64 -0.50884
7.65 -0.500264
7.66 -0.491125
7.67 -0.481354
7.68 -0.47101
7.69 -0.460103
7.7 -0.448643
7.71 -0.436648
7.72 -0.424144
7.73 -0.411138
7.74 -0.397665
7.75 -0.383801
7.76 -0.369595
7.77 -0.355101
7.78 -0.340378
7.79 -0.325488
7.8 -0.310495
7.81 -0.295483
7.82 -0.280525
7.83 -0.265694
7.84 -0.251064
7.85 -0.236706
7.86 -0.222711
7.87 -0.209178
7.88 -0.196147
7.89 -0.183683
7.9 -0.171851
7.91 -0.16071
7.92 -0.150312
7.93 -0.140783
7.94 -0.13212
7.95 -0.124336
7.96 -0.117459
7.97 -0.111508
7.98 -0.106497
7.99 -0.102452
8 -0.0994313
8.01 -0.0973331
8.02 -0.096135
8.03 -0.0958068
8.04 -0.0963108
8.05 -0.0976029
8.06 -0.0996861
8.07 -0.102467
8.08 -0.105857
8.09 -0.109793
8.1 -0.114208
8.11 -0.119036
8.12 -0.124215
8.13 -0.129696
8.14 -0.135383
8.15 -0.141216
8.16 -0.14714
8.17 -0.153104
8.18 -0.159059
8.19 -0.164957
8.2 -0.170755
8.21 -0.176422
8.22 -0.181926
8.23 -0.18724
8.24 -0.192336
8.25 -0.197187
8.26 -0.201731
8.27 -0.205967
8.28 -0.209864
8.29 -0.213384
8.3 -0.216488
8.31 -0.219128
8.32 -0.221222
8.33 -0.222699
8.34 -0.223529
8.35 -0.223642
8.36 -0.222965
8.37 -0.221423
8.38 -0.218939
8.39 -0.215313
8.4 -0.210567
8.41 -0.204636
8.42 -0.197452
8.43 -0.188956
8.44 -0.179096
8.45 -0.167768
8.46 -0.154901
8.47 -0.140584
8.48 -0.12482
8.49 -0.107623
8.5 -0.089025
8.51 -0.0690696
8.52 -0.0476949
8.53 -0.0250852
8.54 -0.00135007
8.55 0.0234156
8.56 0.0491093
8.57 0.0756226
8.58 0.102863
8.59 0.130729
8.6 0.159051
8.61 0.187716
8.62 0.216617
8.63 0.245652
8.64 0.274725
8.65 0.303735
8.66 0.332595
8.67 0.361233
8.68 0.389586
8.69 0.417593
8.7 0.4452
8.71 0.472347
8.72 0.498944
8.73 0.524987
8.74 0.550429
8.75 0.57522
8.76 0.599304
8.77 0.622622
8.78 0.645039
8.79 0.666498
8.8 0.68695
8.81 0.706305
8.82 0.724462
8.83 0.741317
8.84 0.75674
8.85 0.770459
8.86 0.782506
8.87 0.792763
8.88 0.801114
8.89 0.807446
8.9 0.811655
8.91 0.813494
8.92 0.812897
8.93 0.809912
8.94 0.804485
8.95 0.796582
8.96 0.786183
8.97 0.773286
8.98 0.757629
8.99 0.739545
9 0.719094
9.01 0.696357
9.02 0.671427
9.03 0.644415
9.04 0.615346
9.05 0.584362
9.06 0.551734
9.07 0.517617
9.08 0.482174
9.09 0.44557
9.1 0.407974
9.11 0.369489
9.12 0.33038
9.13 0.290825
9.14 0.250991
9.15 0.211042
9.16 0.17114
9.17 0.131458
9.18 0.0921822
9.19 0.0534468
9.2 0.0153974
9.21 -0.0218231
9.22 -0.0580755
9.23 -0.0932241
9.24 -0.127006
9.25 -0.15937
9.26 -0.19022
9.27 -0.219437
9.28 -0.246909
9.29 -0.272528
9.3 -0.296129
9.31 -0.317498
9.32 -0.33672
9.33 -0.353724
9.34 -0.368449
9.35 -0.380845
9.36 -0.390873
9.37 -0.398306
9.38 -0.403258
9.39 -0.40581
9.4 -0.405982
9.41 -0.403804
9.42 -0.399322
9.43 -0.392547
9.44 -0.383392
9.45 -0.372154
9.46 -0.358922
9.47 -0.343795
9.48 -0.326879
9.49 -0.308283
9.5 -0.288018
9.51 -0.266268
9.52 -0.243221
9.53 -0.219003
9.54 -0.19374
9.55 -0.167558
9.56 -0.140577
9.57 -0.112876
9.58 -0.0846642
9.59 -0.0560706
9.6 -0.0272234
9.61 0.00174771
9.62 0.0307127
9.63 0.0595231
9.64 0.0880276
9.65 0.116102
9.66 0.143612
9.67 0.170425
9.68 0.196408
9.69 0.221431
9.7 0.245224
9.71 0.267779
9.72 0.288978
9.73 0.308714
9.74 0.326885
9.75 0.343402
9.76 0.358093
9.77 0.370862
9.78 0.381778
9.79 0.39081
9.8 0.397947
9.81 0.403192
9.82 0.406568
9.83 0.407926
9.84 0.407499
9.85 0.405384
9.86 0.401667
9.87 0.396447
9.88 0.389833
9.89 0.381896
9.9 0.372731
9.91 0.362561
9.92 0.351508
9.93 0.339695
9.94 0.32724
9.95 0.314251
9.96 0.300799
9.97 0.287017
9.98 0.272992
9.99 0.258793
10 0.244474
10.01 0.23008
10.02 0.215646
10.03 0.201198
10.04 0.186751
10.05 0.172314
10.06 0.157889
10.07 0.143476
10.08 0.129073
10.09 0.114677
10.1 0.100289
10.11 0.0859131
10.12 0.0715573
10.13 0.0572356
10.14 0.0429675
10.15 0.0287806
10.16 0.0147198
10.17 0.000814519
10.18 -0.0128929
10.19 -0.0263573
10.2 -0.0395315
10.21 -0.0523676
10.22 -0.0647884
10.23 -0.0767536
10.24 -0.0882422
10.25 -0.0992211
10.26 -0.109664
10.27 -0.119551
10.28 -0.12887
10.29 -0.13756
10.3 -0.145694
10.31 -0.15329
10.32 -0.160375
10.33 -0.166982
10.34 -0.173151
10.35 -0.178906
10.36 -0.184303
10.37 -0.189416
10.38 -0.194295
10.39 -0.198988
10.4 -0.203542
10.41 -0.208001
10.42 -0.212399
10.43 -0.216776
10.44 -0.221158
10.45 -0.225561
10.46 -0.229998
10.47 -0.234473
10.48 -0.238988
10.49 -0.243537
10.5 -0.248107
10.51 -0.252684
10.52 -0.257255
10.53 -0.261803
10.54 -0.266313
10.55 -0.270766
10.56 -0.275152
10.57 -0.279465
10.58 -0.283699
10.59 -0.287851
10.6 -0.291924
10.61 -0.295919
10.62 -0.299841
10.63 -0.303705
10.64 -0.307522
10.65 -0.311303
10.66 -0.315056
10.67 -0.318791
10.68 -0.322513
10.69 -0.326225
10.7 -0.329927
10.71 -0.333613
10.72 -0.337274
10.73 -0.340896
10.74 -0.344461
10.75 -0.347942
10.76 -0.35132
10.77 -0.354572
10.78 -0.357675
10.79 -0.360604
10.8 -0.36334
10.81 -0.365847
10.82 -0.368119
10.83 -0.370158
10.84 -0.371962
10.85 -0.373537
10.86 -0.374895
10.87 -0.37605
10.88 -0.377015
10.89 -0.37784
10.9 -0.378558
10.91 -0.379205
10.92 -0.379819
10.93 -0.380436
10.94 -0.381093
10.95 -0.381824
10.96 -0.382648
10.97 -0.38358
10.98 -0.384625
10.99 -0.385778
11 -0.387025
11.01 -0.388341
11.02 -0.389675
11.03 -0.390977
11.04 -0.392185
11.05 -0.393231
11.06 -0.394039
11.07 -0.394504
11.08 -0.394529
11.09 -0.39405
11.1 -0.392986
11.11 -0.39126
11.12 -0.388804
11.13 -0.385558
11.14 -0.381378
11.15 -0.376312
11.16 -0.370351
11.17 -0.363492
11.18 -0.355747
11.19 -0.347144
11.2 -0.33769
11.21 -0.327433
11.22 -0.3165
11.23 -0.304972
11.24 -0.292935
11.25 -0.280482
11.26 -0.267707
11.27 -0.254693
11.28 -0.24156
11.29 -0.228397
11.3 -0.215283
11.31 -0.202287
11.32 -0.189466
11.33 -0.176876
11.34 -0.164565
11.35 -0.152532
11.36 -0.14078
11.37 -0.129303
11.38 -0.118081
11.39 -0.107085
11.4 -0.0962906
11.41 -0.085636
11.42 -0.075066
11.43 -0.064528
11.44 -0.0539686
11.45 -0.0433356
11.46 -0.0325749
11.47 -0.0216234
11.48 -0.0104542
11.49 0.000966309
11.5 0.0126651
11.51 0.0246627
11.52 0.0369729
11.53 0.0496285
11.54 0.0626192
11.55 0.0759286
11.56 0.089549
11.57 0.103471
11.58 0.117681
11.59 0.132171
11.6 0.14695
11.61 0.161978
11.62 0.177242
11.63 0.192732
11.64 0.20844
11.65 0.224357
11.66 0.240487
11.67 0.256818
11.68 0.273328
11.69 0.290004
11.7 0.306829
11.71 0.323781
11.72 0.340832
11.73 0.357948
11.74 0.375075
11.75 0.392158
11.76 0.409135
11.77 0.425936
11.78 0.44248
11.79 0.458656
11.8 0.474351
11.81 0.489488
11.82 0.50396
11.83 0.517661
11.84 0.530486
11.85 0.542328
11.86 0.552962
11.87 0.56239
11.88 0.570539
11.89 0.577334
11.9 0.582713
11.91 0.586626
11.92 0.588968
11.93 0.589672
11.94 0.588842
11.95 0.586487
11.96 0.582629
11.97 0.577302
11.98 0.57055
11.99 0.5623
12 0.552727
12.01 0.541928
12.02 0.529975
12.03 0.516943
12.04 0.502909
12.05 0.48792
12.06 0.472015
12.07 0.45534
12.08 0.437964
12.09 0.41995
12.1 0.401357
12.11 0.382243
12.12 0.362628
12.13 0.342599
12.14 0.322225
12.15 0.30156
12.16 0.280663
12.17 0.259596
12.18 0.238425
12.19 0.217232
12.2 0.196105
12.21 0.175133
12.22 0.154409
12.23 0.134033
12.24 0.114113
12.25 0.0948081
12.26 0.0762295
12.27 0.0584661
