# xPDFsuite Configuration #
[PDF]
wavelength = 0.1
dataformat = QA
inputfile = BiMsol6_insitu_700 C-00454.xy
backgroundfile = Quartz2mm-dist500-00000.xy
mode = xray
bgscale = 0.0042
composition = Bi2Fe4O9
outputtype = gr
qmaxinst = 24.998449118
qmin = 0.1
qmax = 21.4986662415
rmax = 80.0
rmin = 0.0
rstep = 0.01
rpoly = 0.9

[Misc]
inputdir = C:/Data/Seafile/CPH/Beamtime/Desy Oct 20/In situ data/Processed/BiMsol6/PDF
savedir = C:/Data/Seafile/CPH/Beamtime/Desy Oct 20/In situ data/PDF/BiMsol6
backgroundfilefull = C:/Data/Seafile/CPH/Beamtime/Desy Oct 20/In situ data/Processed/Standard_Empty_Cap/Quartz2mm-dist500-00000.xy

#### start data
#S 1
#L r($\AA$)  G($\AA^{-2}$)
0 0
0.01 0.00642162
0.02 0.0124814
0.03 0.0178697
0.04 0.0223086
0.05 0.0255645
0.06 0.0274592
0.07 0.0277976
0.08 0.0265223
0.09 0.0237757
0.1 0.0196746
0.11 0.014401
0.12 0.00819363
0.13 0.00133765
0.14 -0.00584692
0.15 -0.012955
0.16 -0.0196451
0.17 -0.0255966
0.18 -0.0305216
0.19 -0.0341793
0.2 -0.0363218
0.21 -0.0367793
0.22 -0.0356476
0.23 -0.0329909
0.24 -0.0289519
0.25 -0.0237466
0.26 -0.0176563
0.27 -0.0110009
0.28 -0.00424381
0.29 0.0022022
0.3 0.00793614
0.31 0.0125763
0.32 0.0157788
0.33 0.0171954
0.34 0.0164845
0.35 0.013695
0.36 0.00882126
0.37 0.00196203
0.38 -0.00667837
0.39 -0.0167926
0.4 -0.0280246
0.41 -0.0397568
0.42 -0.0513822
0.43 -0.0622829
0.44 -0.0718187
0.45 -0.0793508
0.46 -0.0842028
0.47 -0.0855031
0.48 -0.0830564
0.49 -0.0765052
0.5 -0.0656136
0.51 -0.050282
0.52 -0.0305574
0.53 -0.00636067
0.54 0.0217629
0.55 0.0530906
0.56 0.0869514
0.57 0.122559
0.58 0.159031
0.59 0.195408
0.6 0.230464
0.61 0.263229
0.62 0.292727
0.63 0.318045
0.64 0.338358
0.65 0.352956
0.66 0.360854
0.67 0.361644
0.68 0.355492
0.69 0.342394
0.7 0.322532
0.71 0.296269
0.72 0.264142
0.73 0.226343
0.74 0.18438
0.75 0.139229
0.76 0.0919267
0.77 0.0435505
0.78 -0.0048108
0.79 -0.0519814
0.8 -0.0967742
0.81 -0.138371
0.82 -0.175987
0.83 -0.208975
0.84 -0.236841
0.85 -0.259257
0.86 -0.275484
0.87 -0.286074
0.88 -0.291324
0.89 -0.291607
0.9 -0.287426
0.91 -0.279399
0.92 -0.268139
0.93 -0.254436
0.94 -0.23933
0.95 -0.223624
0.96 -0.208092
0.97 -0.193453
0.98 -0.180354
0.99 -0.169577
1 -0.161452
1.01 -0.15621
1.02 -0.15401
1.03 -0.154883
1.04 -0.158742
1.05 -0.165454
1.06 -0.174819
1.07 -0.186189
1.08 -0.199104
1.09 -0.213066
1.1 -0.227559
1.11 -0.242073
1.12 -0.256047
1.13 -0.269009
1.14 -0.280614
1.15 -0.29057
1.16 -0.298667
1.17 -0.304786
1.18 -0.308858
1.19 -0.310793
1.2 -0.310944
1.21 -0.309531
1.22 -0.306828
1.23 -0.303148
1.24 -0.298829
1.25 -0.294218
1.26 -0.289706
1.27 -0.285605
1.28 -0.28218
1.29 -0.27964
1.3 -0.278135
1.31 -0.277757
1.32 -0.278633
1.33 -0.280567
1.34 -0.283428
1.35 -0.287029
1.36 -0.291137
1.37 -0.29549
1.38 -0.299782
1.39 -0.303679
1.4 -0.306912
1.41 -0.309229
1.42 -0.31042
1.43 -0.310324
1.44 -0.308836
1.45 -0.305757
1.46 -0.301284
1.47 -0.295533
1.48 -0.288678
1.49 -0.280947
1.5 -0.272615
1.51 -0.263996
1.52 -0.255476
1.53 -0.247415
1.54 -0.240142
1.55 -0.233965
1.56 -0.229153
1.57 -0.225923
1.58 -0.224619
1.59 -0.225176
1.6 -0.22756
1.61 -0.231687
1.62 -0.237398
1.63 -0.244465
1.64 -0.252619
1.65 -0.261494
1.66 -0.27061
1.67 -0.279551
1.68 -0.287891
1.69 -0.295213
1.7 -0.301123
1.71 -0.305081
1.72 -0.306869
1.73 -0.306318
1.74 -0.303286
1.75 -0.297711
1.76 -0.289615
1.77 -0.279045
1.78 -0.266078
1.79 -0.25121
1.8 -0.234781
1.81 -0.21718
1.82 -0.198831
1.83 -0.180179
1.84 -0.16172
1.85 -0.14394
1.86 -0.127231
1.87 -0.111947
1.88 -0.098388
1.89 -0.0867832
1.9 -0.0773219
1.91 -0.0702739
1.92 -0.0653963
1.93 -0.0625878
1.94 -0.0616756
1.95 -0.0624232
1.96 -0.0645409
1.97 -0.0677432
1.98 -0.0715987
1.99 -0.0756884
2 -0.0796495
2.01 -0.0831412
2.02 -0.085858
2.03 -0.0875378
2.04 -0.0878292
2.05 -0.0867407
2.06 -0.0842301
2.07 -0.080329
2.08 -0.0751416
2.09 -0.0688405
2.1 -0.0616279
2.11 -0.0538408
2.12 -0.045869
2.13 -0.0380763
2.14 -0.0308383
2.15 -0.0245272
2.16 -0.0194986
2.17 -0.0162847
2.18 -0.0150212
2.19 -0.0159069
2.2 -0.0190887
2.21 -0.0246429
2.22 -0.0325729
2.23 -0.0429062
2.24 -0.0555261
2.25 -0.0700428
2.26 -0.0861733
2.27 -0.103588
2.28 -0.12192
2.29 -0.140781
2.3 -0.159744
2.31 -0.178361
2.32 -0.196257
2.33 -0.21309
2.34 -0.228562
2.35 -0.242426
2.36 -0.254426
2.37 -0.264337
2.38 -0.272267
2.39 -0.27824
2.4 -0.282345
2.41 -0.284723
2.42 -0.28557
2.43 -0.285032
2.44 -0.283491
2.45 -0.281279
2.46 -0.278694
2.47 -0.276035
2.48 -0.273584
2.49 -0.271613
2.5 -0.270422
2.51 -0.270135
2.52 -0.270878
2.53 -0.272728
2.54 -0.275712
2.55 -0.279808
2.56 -0.285015
2.57 -0.291164
2.58 -0.298056
2.59 -0.305505
2.6 -0.31331
2.61 -0.321254
2.62 -0.329117
2.63 -0.336635
2.64 -0.343629
2.65 -0.349927
2.66 -0.355386
2.67 -0.359893
2.68 -0.363372
2.69 -0.365709
2.7 -0.366916
2.71 -0.367084
2.72 -0.366278
2.73 -0.364589
2.74 -0.362126
2.75 -0.359013
2.76 -0.355341
2.77 -0.351317
2.78 -0.34707
2.79 -0.34272
2.8 -0.33837
2.81 -0.334105
2.82 -0.329999
2.83 -0.326095
2.84 -0.322393
2.85 -0.318879
2.86 -0.315517
2.87 -0.312253
2.88 -0.309018
2.89 -0.305717
2.9 -0.302255
2.91 -0.298543
2.92 -0.294493
2.93 -0.290024
2.94 -0.285064
2.95 -0.279529
2.96 -0.273353
2.97 -0.266555
2.98 -0.259129
2.99 -0.251084
3 -0.242444
3.01 -0.233243
3.02 -0.223482
3.03 -0.213257
3.04 -0.202629
3.05 -0.191649
3.06 -0.180363
3.07 -0.168805
3.08 -0.156992
3.09 -0.144923
3.1 -0.13261
3.11 -0.12003
3.12 -0.107147
3.13 -0.0939091
3.14 -0.0802569
3.15 -0.066074
3.16 -0.051304
3.17 -0.0358905
3.18 -0.0197666
3.19 -0.00287512
3.2 0.0148272
3.21 0.0333838
3.22 0.0528602
3.23 0.0731492
3.24 0.0941984
3.25 0.115928
3.26 0.138232
3.27 0.160979
3.28 0.184018
3.29 0.207138
3.3 0.230129
3.31 0.25278
3.32 0.274876
3.33 0.296201
3.34 0.31653
3.35 0.335523
3.36 0.353108
3.37 0.369124
3.38 0.383437
3.39 0.395941
3.4 0.406561
3.41 0.415133
3.42 0.421669
3.43 0.426307
3.44 0.429112
3.45 0.430176
3.46 0.429619
3.47 0.42758
3.48 0.424086
3.49 0.419475
3.5 0.41393
3.51 0.407635
3.52 0.40077
3.53 0.393509
3.54 0.386011
3.55 0.378448
3.56 0.370963
3.57 0.363668
3.58 0.356655
3.59 0.350001
3.6 0.343761
3.61 0.338024
3.62 0.332769
3.63 0.327999
3.64 0.323708
3.65 0.319883
3.66 0.316507
3.67 0.313575
3.68 0.311079
3.69 0.308966
3.7 0.307222
3.71 0.305838
3.72 0.304811
3.73 0.304142
3.74 0.303878
3.75 0.30401
3.76 0.304552
3.77 0.305527
3.78 0.306962
3.79 0.308885
3.8 0.311336
3.81 0.314373
3.82 0.317964
3.83 0.322121
3.84 0.326845
3.85 0.332128
3.86 0.337955
3.87 0.344338
3.88 0.351211
3.89 0.358508
3.9 0.366171
3.91 0.374137
3.92 0.382332
3.93 0.390681
3.94 0.399095
3.95 0.407474
3.96 0.41573
3.97 0.423775
3.98 0.431519
3.99 0.438877
4 0.445725
4.01 0.451984
4.02 0.4576
4.03 0.462502
4.04 0.466624
4.05 0.469906
4.06 0.472285
4.07 0.473609
4.08 0.473937
4.09 0.473231
4.1 0.471464
4.11 0.468611
4.12 0.464658
4.13 0.459528
4.14 0.453226
4.15 0.445823
4.16 0.437336
4.17 0.427792
4.18 0.417223
4.19 0.405671
4.2 0.393088
4.21 0.37964
4.22 0.365396
4.23 0.35043
4.24 0.334816
4.25 0.318636
4.26 0.301952
4.27 0.28485
4.28 0.267441
4.29 0.249803
4.3 0.232006
4.31 0.214113
4.32 0.19618
4.33 0.178257
4.34 0.160381
4.35 0.142573
4.36 0.124842
4.37 0.107189
4.38 0.0896028
4.39 0.0720644
4.4 0.0545432
4.41 0.0370024
4.42 0.0194059
4.43 0.00171705
4.44 -0.0160984
4.45 -0.0340702
4.46 -0.0522387
4.47 -0.0706056
4.48 -0.0891652
4.49 -0.107903
4.5 -0.126792
4.51 -0.145789
4.52 -0.164835
4.53 -0.183849
4.54 -0.202738
4.55 -0.221406
4.56 -0.239746
4.57 -0.257648
4.58 -0.274998
4.59 -0.29162
4.6 -0.307421
4.61 -0.322327
4.62 -0.33625
4.63 -0.349116
4.64 -0.360869
4.65 -0.37145
4.66 -0.380743
4.67 -0.388871
4.68 -0.395864
4.69 -0.401769
4.7 -0.406655
4.71 -0.410606
4.72 -0.413671
4.73 -0.415994
4.74 -0.417736
4.75 -0.41902
4.76 -0.419969
4.77 -0.420704
4.78 -0.42134
4.79 -0.42199
4.8 -0.42275
4.81 -0.423693
4.82 -0.424872
4.83 -0.426325
4.84 -0.42807
4.85 -0.430124
4.86 -0.432467
4.87 -0.435046
4.88 -0.437813
4.89 -0.440711
4.9 -0.443674
4.91 -0.44663
4.92 -0.449492
4.93 -0.452189
4.94 -0.454657
4.95 -0.456834
4.96 -0.458669
4.97 -0.46012
4.98 -0.461134
4.99 -0.461679
5 -0.461776
5.01 -0.461425
5.02 -0.460637
5.03 -0.459426
5.04 -0.457813
5.05 -0.455785
5.06 -0.453398
5.07 -0.450678
5.08 -0.44764
5.09 -0.444291
5.1 -0.440634
5.11 -0.436648
5.12 -0.432297
5.13 -0.427577
5.14 -0.422451
5.15 -0.416874
5.16 -0.410793
5.17 -0.404155
5.18 -0.396841
5.19 -0.388825
5.2 -0.380071
5.21 -0.370533
5.22 -0.360172
5.23 -0.348959
5.24 -0.336859
5.25 -0.323811
5.26 -0.309912
5.27 -0.295194
5.28 -0.279703
5.29 -0.2635
5.3 -0.246657
5.31 -0.229222
5.32 -0.211324
5.33 -0.193083
5.34 -0.174604
5.35 -0.155989
5.36 -0.137342
5.37 -0.11876
5.38 -0.100358
5.39 -0.0822053
5.4 -0.0643694
5.41 -0.0469062
5.42 -0.0298599
5.43 -0.0132628
5.44 0.00283191
5.45 0.0184199
5.46 0.0335242
5.47 0.0481495
5.48 0.062304
5.49 0.0759972
5.5 0.0892368
5.51 0.101977
5.52 0.114269
5.53 0.126102
5.54 0.137459
5.55 0.148311
5.56 0.158622
5.57 0.16831
5.58 0.177307
5.59 0.185587
5.6 0.193082
5.61 0.199724
5.62 0.205444
5.63 0.210177
5.64 0.213748
5.65 0.21621
5.66 0.217538
5.67 0.217715
5.68 0.216742
5.69 0.214636
5.7 0.211388
5.71 0.207036
5.72 0.201737
5.73 0.195589
5.74 0.1887
5.75 0.181195
5.76 0.173205
5.77 0.164846
5.78 0.156301
5.79 0.147711
5.8 0.139205
5.81 0.130903
5.82 0.12291
5.83 0.115331
5.84 0.108268
5.85 0.101733
5.86 0.0957511
5.87 0.0903276
5.88 0.0854481
5.89 0.0810808
5.9 0.0772127
5.91 0.0737489
5.92 0.0706037
5.93 0.0677012
5.94 0.0649646
5.95 0.0623202
5.96 0.0597004
5.97 0.0570402
5.98 0.054299
5.99 0.0514536
6 0.0484986
6.01 0.0454472
6.02 0.042331
6.03 0.0392042
6.04 0.0361452
6.05 0.0332384
6.06 0.0305786
6.07 0.0282672
6.08 0.0264089
6.09 0.0251146
6.1 0.0245561
6.11 0.0247575
6.12 0.0257897
6.13 0.0277058
6.14 0.0305379
6.15 0.0342951
6.16 0.0390174
6.17 0.0446444
6.18 0.0510553
6.19 0.0581542
6.2 0.0658237
6.21 0.0739277
6.22 0.082315
6.23 0.0908173
6.24 0.099235
6.25 0.107397
6.26 0.115136
6.27 0.122295
6.28 0.128728
6.29 0.134255
6.3 0.138747
6.31 0.142182
6.32 0.14451
6.33 0.145707
6.34 0.145778
6.35 0.144752
6.36 0.142584
6.37 0.139466
6.38 0.135513
6.39 0.130848
6.4 0.125603
6.41 0.119921
6.42 0.11394
6.43 0.107822
6.44 0.101725
6.45 0.0957775
6.46 0.0900952
6.47 0.0847787
6.48 0.0799104
6.49 0.0756065
6.5 0.0718743
6.51 0.0687199
6.52 0.0661414
6.53 0.0641189
6.54 0.0626167
6.55 0.0615974
6.56 0.0610136
6.57 0.0607549
6.58 0.0607465
6.59 0.0609127
6.6 0.0611796
6.61 0.0614781
6.62 0.061739
6.63 0.0619059
6.64 0.0619411
6.65 0.0618179
6.66 0.061522
6.67 0.0610516
6.68 0.0604143
6.69 0.0596244
6.7 0.0587313
6.71 0.0577762
6.72 0.0568057
6.73 0.0558702
6.74 0.0550214
6.75 0.0543236
6.76 0.0538273
6.77 0.0535681
6.78 0.0535811
6.79 0.0538939
6.8 0.0545254
6.81 0.0554879
6.82 0.0568134
6.83 0.0584547
6.84 0.0603916
6.85 0.0625967
6.86 0.065036
6.87 0.0676702
6.88 0.0704629
6.89 0.0733609
6.9 0.0763106
6.91 0.0792675
6.92 0.0821898
6.93 0.0850392
6.94 0.0877826
6.95 0.0903741
6.96 0.0928062
6.97 0.0950655
6.98 0.0971449
6.99 0.0990432
7 0.100765
7.01 0.102311
7.02 0.103697
7.03 0.104951
7.04 0.106092
7.05 0.107142
7.06 0.108122
7.07 0.109053
7.08 0.109952
7.09 0.110839
7.1 0.111729
7.11 0.11263
7.12 0.113547
7.13 0.114484
7.14 0.115438
7.15 0.116403
7.16 0.117368
7.17 0.11832
7.18 0.119244
7.19 0.120123
7.2 0.120938
7.21 0.12166
7.22 0.122271
7.23 0.122753
7.24 0.123086
7.25 0.123249
7.26 0.123224
7.27 0.122984
7.28 0.122497
7.29 0.121765
7.3 0.120771
7.31 0.119499
7.32 0.117935
7.33 0.116063
7.34 0.11384
7.35 0.111265
7.36 0.108332
7.37 0.105028
7.38 0.101334
7.39 0.0972356
7.4 0.0927086
7.41 0.0876987
7.42 0.0822327
7.43 0.0762961
7.44 0.0698759
7.45 0.0629605
7.46 0.0555408
7.47 0.0475749
7.48 0.0390716
7.49 0.0300575
7.5 0.0205393
7.51 0.010529
7.52 4.41525e-05
7.53 -0.0108945
7.54 -0.0222974
7.55 -0.0340774
7.56 -0.0461904
7.57 -0.0585857
7.58 -0.0712065
7.59 -0.08399
7.6 -0.0968685
7.61 -0.109756
7.62 -0.122569
7.63 -0.135224
7.64 -0.147637
7.65 -0.159721
7.66 -0.171389
7.67 -0.18249
7.68 -0.192985
7.69 -0.202798
7.7 -0.211855
7.71 -0.220089
7.72 -0.227438
7.73 -0.233806
7.74 -0.239126
7.75 -0.243435
7.76 -0.246719
7.77 -0.248973
7.78 -0.250209
7.79 -0.250447
7.8 -0.249632
7.81 -0.247898
7.82 -0.245324
7.83 -0.24198
7.84 -0.237948
7.85 -0.233315
7.86 -0.228162
7.87 -0.222582
7.88 -0.216717
7.89 -0.210666
7.9 -0.204527
7.91 -0.198394
7.92 -0.192356
7.93 -0.186513
7.94 -0.180934
7.95 -0.17567
7.96 -0.170768
7.97 -0.166263
7.98 -0.162175
7.99 -0.158525
8 -0.155339
8.01 -0.152562
8.02 -0.150168
8.03 -0.148126
8.04 -0.146396
8.05 -0.144934
8.06 -0.143709
8.07 -0.142658
8.08 -0.141726
8.09 -0.140872
8.1 -0.140058
8.11 -0.13925
8.12 -0.138425
8.13 -0.137559
8.14 -0.136646
8.15 -0.135688
8.16 -0.134689
8.17 -0.133664
8.18 -0.13263
8.19 -0.131611
8.2 -0.130635
8.21 -0.129725
8.22 -0.128902
8.23 -0.128184
8.24 -0.127583
8.25 -0.127104
8.26 -0.126754
8.27 -0.126503
8.28 -0.126324
8.29 -0.126179
8.3 -0.12602
8.31 -0.125787
8.32 -0.125403
8.33 -0.124778
8.34 -0.12384
8.35 -0.122505
8.36 -0.120688
8.37 -0.118305
8.38 -0.115278
8.39 -0.11145
8.4 -0.106828
8.41 -0.101369
8.42 -0.0950401
8.43 -0.0878242
8.44 -0.0797195
8.45 -0.0707035
8.46 -0.0607936
8.47 -0.0501056
8.48 -0.0387079
8.49 -0.0266826
8.5 -0.0141232
8.51 -0.00113251
8.52 0.0122003
8.53 0.0257234
8.54 0.0393171
8.55 0.0528704
8.56 0.0662781
8.57 0.0794429
8.58 0.0922642
8.59 0.10464
8.6 0.116541
8.61 0.127928
8.62 0.138774
8.63 0.149068
8.64 0.158815
8.65 0.167988
8.66 0.176652
8.67 0.184863
8.68 0.192669
8.69 0.200122
8.7 0.207275
8.71 0.214175
8.72 0.22086
8.73 0.227392
8.74 0.2338
8.75 0.240103
8.76 0.246307
8.77 0.252404
8.78 0.258361
8.79 0.26414
8.8 0.269694
8.81 0.27496
8.82 0.279863
8.83 0.284322
8.84 0.28824
8.85 0.291455
8.86 0.293932
8.87 0.295579
8.88 0.29631
8.89 0.296047
8.9 0.294719
8.91 0.292191
8.92 0.288428
8.93 0.283461
8.94 0.277276
8.95 0.269878
8.96 0.261282
8.97 0.25152
8.98 0.240515
8.99 0.228462
9 0.215431
9.01 0.201504
9.02 0.186765
9.03 0.171304
9.04 0.155188
9.05 0.138518
9.06 0.121427
9.07 0.104003
9.08 0.0863323
9.09 0.0684946
9.1 0.0505646
9.11 0.0326143
9.12 0.0147129
9.13 -0.00308563
9.14 -0.0207332
9.15 -0.0381868
9.16 -0.0554078
9.17 -0.0723477
9.18 -0.0889596
9.19 -0.105233
9.2 -0.121136
9.21 -0.136637
9.22 -0.151703
9.23 -0.1663
9.24 -0.180337
9.25 -0.193806
9.26 -0.206677
9.27 -0.218904
9.28 -0.230438
9.29 -0.241232
9.3 -0.25121
9.31 -0.260271
9.32 -0.268436
9.33 -0.275659
9.34 -0.2819
9.35 -0.287118
9.36 -0.291282
9.37 -0.29427
9.38 -0.296115
9.39 -0.29684
9.4 -0.296437
9.41 -0.294907
9.42 -0.292259
9.43 -0.288483
9.44 -0.283522
9.45 -0.277509
9.46 -0.27048
9.47 -0.262471
9.48 -0.253525
9.49 -0.243688
9.5 -0.232949
9.51 -0.221393
9.52 -0.209106
9.53 -0.196143
9.54 -0.182556
9.55 -0.168398
9.56 -0.153717
9.57 -0.138526
9.58 -0.122929
9.59 -0.106977
9.6 -0.0907169
9.61 -0.0741967
9.62 -0.0574623
9.63 -0.040551
9.64 -0.0235146
9.65 -0.00640487
9.66 0.0107364
9.67 0.027868
9.68 0.0449497
9.69 0.0619419
9.7 0.0787863
9.71 0.0954561
9.72 0.111914
9.73 0.128124
9.74 0.144049
9.75 0.159656
9.76 0.174889
9.77 0.189704
9.78 0.204093
9.79 0.218023
9.8 0.231465
9.81 0.244388
9.82 0.256762
9.83 0.268496
9.84 0.279614
9.85 0.290096
9.86 0.299918
9.87 0.309057
9.88 0.31749
9.89 0.325167
9.9 0.332042
9.91 0.338156
9.92 0.343495
9.93 0.348052
9.94 0.351819
9.95 0.354795
9.96 0.356909
9.97 0.358222
9.98 0.358764
9.99 0.358551
10 0.357602
10.01 0.355941
10.02 0.353577
10.03 0.350508
10.04 0.34683
10.05 0.34258
10.06 0.337799
10.07 0.332528
10.08 0.326812
10.09 0.320662
10.1 0.314147
10.11 0.307322
10.12 0.300226
10.13 0.292897
10.14 0.28537
10.15 0.277676
10.16 0.269838
10.17 0.261897
10.18 0.253879
10.19 0.245805
10.2 0.237695
10.21 0.229569
10.22 0.221446
10.23 0.213347
10.24 0.20529
10.25 0.197294
10.26 0.189379
10.27 0.181567
10.28 0.173884
10.29 0.166371
10.3 0.159043
10.31 0.151926
10.32 0.145049
10.33 0.138438
10.34 0.132119
10.35 0.126136
10.36 0.12051
10.37 0.115237
10.38 0.110325
10.39 0.105772
10.4 0.101573
10.41 0.0977098
10.42 0.0941874
10.43 0.0909307
10.44 0.0878901
10.45 0.0850078
10.46 0.0822174
10.47 0.0794448
10.48 0.0766021
10.49 0.0735882
10.5 0.0703199
10.51 0.0667085
10.52 0.0626676
10.53 0.058115
10.54 0.0529751
10.55 0.0471085
10.56 0.0405121
10.57 0.0331563
10.58 0.0250157
10.59 0.0160804
10.6 0.00635647
10.61 -0.0041613
10.62 -0.0154573
10.63 -0.0274139
10.64 -0.0399603
10.65 -0.0530141
10.66 -0.0664833
10.67 -0.0802685
10.68 -0.0942751
10.69 -0.108371
10.7 -0.122447
10.71 -0.136403
10.72 -0.150147
10.73 -0.163596
10.74 -0.176667
10.75 -0.189269
10.76 -0.201396
10.77 -0.213025
10.78 -0.224146
10.79 -0.234767
10.8 -0.244907
10.81 -0.254568
10.82 -0.263822
10.83 -0.272741
10.84 -0.281387
10.85 -0.289825
10.86 -0.298122
10.87 -0.306341
10.88 -0.314548
10.89 -0.322801
10.9 -0.331141
10.91 -0.339599
10.92 -0.348193
10.93 -0.35693
10.94 -0.365809
10.95 -0.374803
10.96 -0.383868
10.97 -0.392957
10.98 -0.402013
10.99 -0.410972
11 -0.419763
11.01 -0.428276
11.02 -0.436457
11.03 -0.444233
11.04 -0.451533
11.05 -0.458294
11.06 -0.464457
11.07 -0.469934
11.08 -0.474679
11.09 -0.478703
11.1 -0.48199
11.11 -0.484531
11.12 -0.486328
11.13 -0.48739
11.14 -0.487656
11.15 -0.487225
11.16 -0.486129
11.17 -0.484394
11.18 -0.482049
11.19 -0.47912
11.2 -0.475606
11.21 -0.471516
11.22 -0.466904
11.23 -0.461778
11.24 -0.456142
11.25 -0.449993
11.26 -0.443325
11.27 -0.436073
11.28 -0.428264
11.29 -0.41989
11.3 -0.410936
11.31 -0.401386
11.32 -0.391226
11.33 -0.380426
11.34 -0.368951
11.35 -0.356855
11.36 -0.344149
11.37 -0.330848
11.38 -0.316978
11.39 -0.302568
11.4 -0.287616
11.41 -0.272201
11.42 -0.256386
11.43 -0.240223
11.44 -0.223764
11.45 -0.207065
11.46 -0.190173
11.47 -0.173136
11.48 -0.156014
11.49 -0.138847
11.5 -0.121667
11.51 -0.1045
11.52 -0.087367
11.53 -0.070283
11.54 -0.0532522
11.55 -0.0362712
11.56 -0.0193337
11.57 -0.00243
11.58 0.0144518
11.59 0.0313243
11.6 0.0482007
11.61 0.0650903
11.62 0.0819976
11.63 0.0989218
11.64 0.115856
11.65 0.132787
11.66 0.14969
11.67 0.166531
11.68 0.183274
11.69 0.199876
11.7 0.216286
11.71 0.232452
11.72 0.248315
11.73 0.263768
11.74 0.278791
11.75 0.293325
11.76 0.307318
11.77 0.320722
11.78 0.333493
11.79 0.345558
11.8 0.35688
11.81 0.36748
11.82 0.377349
11.83 0.386481
11.84 0.394877
11.85 0.402544
11.86 0.409418
11.87 0.415582
11.88 0.421058
11.89 0.425858
11.9 0.429992
11.91 0.433465
11.92 0.436248
11.93 0.438313
11.94 0.439693
11.95 0.440367
11.96 0.440302
11.97 0.439464
11.98 0.437808
11.99 0.435199
12 0.431647
12.01 0.427116
12.02 0.421557
12.03 0.414921
12.04 0.407166
12.05 0.39822
12.06 0.387993
12.07 0.376571
12.08 0.363958
12.09 0.350167
12.1 0.335228
12.11 0.319186
12.12 0.302014
12.13 0.283853
12.14 0.264821
12.15 0.245017
12.16 0.224547
12.17 0.203523
12.18 0.182056
12.19 0.16026
12.2 0.138292
12.21 0.116269
12.22 0.0943042
12.23 0.0725039
12.24 0.0509672
