# xPDFsuite Configuration #
[PDF]
wavelength = 0.1
dataformat = QA
inputfile = BiMsol6_insitu_700 C-00547.xy
backgroundfile = Quartz2mm-dist500-00000.xy
mode = xray
bgscale = 0.0042
composition = Bi2Fe4O9
outputtype = gr
qmaxinst = 24.998449118
qmin = 0.1
qmax = 21.4986662415
rmax = 80.0
rmin = 0.0
rstep = 0.01
rpoly = 0.9

[Misc]
inputdir = C:/Data/Seafile/CPH/Beamtime/Desy Oct 20/In situ data/Processed/BiMsol6/PDF
savedir = C:/Data/Seafile/CPH/Beamtime/Desy Oct 20/In situ data/PDF/BiMsol6
backgroundfilefull = C:/Data/Seafile/CPH/Beamtime/Desy Oct 20/In situ data/Processed/Standard_Empty_Cap/Quartz2mm-dist500-00000.xy

#### start data
#S 1
#L r($\AA$)  G($\AA^{-2}$)
0 0
0.01 0.0061086
0.02 0.0118701
0.03 0.0169873
0.04 0.0211938
0.05 0.0242659
0.06 0.0260333
0.07 0.0263099
0.08 0.0250417
0.09 0.0223667
0.1 0.0183985
0.11 0.0133132
0.12 0.0073412
0.13 0.000757614
0.14 -0.00612816
0.15 -0.0129279
0.16 -0.0193139
0.17 -0.0249791
0.18 -0.0296483
0.19 -0.0330922
0.2 -0.0350754
0.21 -0.0354382
0.22 -0.0342769
0.23 -0.0316571
0.24 -0.0277201
0.25 -0.0226775
0.26 -0.0168036
0.27 -0.0104113
0.28 -0.00394754
0.29 0.00219008
0.3 0.00761559
0.31 0.0119627
0.32 0.0149029
0.33 0.0161039
0.34 0.0152418
0.35 0.0123714
0.36 0.00749444
0.37 0.00071351
0.38 -0.00776645
0.39 -0.0176412
0.4 -0.0285567
0.41 -0.0399113
0.42 -0.0511152
0.43 -0.0615684
0.44 -0.0706508
0.45 -0.0777456
0.46 -0.0822005
0.47 -0.0831751
0.48 -0.0804922
0.49 -0.0738151
0.5 -0.0629263
0.51 -0.0477415
0.52 -0.0283193
0.53 -0.00459987
0.54 0.0228742
0.55 0.0533911
0.56 0.0862889
0.57 0.120795
0.58 0.156047
0.59 0.191105
0.6 0.22477
0.61 0.256109
0.62 0.284181
0.63 0.308106
0.64 0.327093
0.65 0.340463
0.66 0.347275
0.67 0.347152
0.68 0.340276
0.69 0.326663
0.7 0.306509
0.71 0.280189
0.72 0.248241
0.73 0.210882
0.74 0.169586
0.75 0.125313
0.76 0.0790806
0.77 0.0319429
0.78 -0.0150377
0.79 -0.0607112
0.8 -0.103925
0.81 -0.143901
0.82 -0.179887
0.83 -0.211266
0.84 -0.237573
0.85 -0.258507
0.86 -0.273366
0.87 -0.282712
0.88 -0.286856
0.89 -0.28618
0.9 -0.281194
0.91 -0.272514
0.92 -0.260756
0.93 -0.24671
0.94 -0.23139
0.95 -0.215587
0.96 -0.200059
0.97 -0.185509
0.98 -0.172564
0.99 -0.161993
1 -0.154104
1.01 -0.149112
1.02 -0.147161
1.03 -0.148273
1.04 -0.152348
1.05 -0.159249
1.06 -0.168766
1.07 -0.180254
1.08 -0.193254
1.09 -0.207269
1.1 -0.221786
1.11 -0.236301
1.12 -0.250255
1.13 -0.263185
1.14 -0.274748
1.15 -0.284657
1.16 -0.292706
1.17 -0.298774
1.18 -0.302795
1.19 -0.304674
1.2 -0.304761
1.21 -0.303273
1.22 -0.300475
1.23 -0.296676
1.24 -0.292205
1.25 -0.287402
1.26 -0.282649
1.27 -0.278258
1.28 -0.274488
1.29 -0.271548
1.3 -0.269589
1.31 -0.268703
1.32 -0.269021
1.33 -0.270361
1.34 -0.272601
1.35 -0.275566
1.36 -0.279038
1.37 -0.282769
1.38 -0.286471
1.39 -0.289828
1.4 -0.292581
1.41 -0.294492
1.42 -0.295362
1.43 -0.295037
1.44 -0.293417
1.45 -0.290314
1.46 -0.285911
1.47 -0.280316
1.48 -0.273692
1.49 -0.266253
1.5 -0.258254
1.51 -0.249992
1.52 -0.241824
1.53 -0.234085
1.54 -0.227082
1.55 -0.221099
1.56 -0.216384
1.57 -0.213135
1.58 -0.211666
1.59 -0.211912
1.6 -0.213834
1.61 -0.21735
1.62 -0.222305
1.63 -0.228482
1.64 -0.235626
1.65 -0.243389
1.66 -0.251329
1.67 -0.259059
1.68 -0.266184
1.69 -0.272322
1.7 -0.277112
1.71 -0.280059
1.72 -0.280972
1.73 -0.279707
1.74 -0.276142
1.75 -0.270231
1.76 -0.262004
1.77 -0.251519
1.78 -0.238856
1.79 -0.224479
1.8 -0.208706
1.81 -0.191898
1.82 -0.174444
1.83 -0.156751
1.84 -0.139268
1.85 -0.122431
1.86 -0.106583
1.87 -0.0920342
1.88 -0.0790402
1.89 -0.0677933
1.9 -0.0584456
1.91 -0.0512152
1.92 -0.0458691
1.93 -0.0422996
1.94 -0.0403374
1.95 -0.0397592
1.96 -0.0402989
1.97 -0.0416916
1.98 -0.0435593
1.99 -0.0455453
2 -0.0473446
2.01 -0.0486791
2.02 -0.0493093
2.03 -0.0490409
2.04 -0.0476193
2.05 -0.0450989
2.06 -0.0414958
2.07 -0.0368933
2.08 -0.0314393
2.09 -0.0253409
2.1 -0.0188528
2.11 -0.0123274
2.12 -0.00612207
2.13 -0.000587371
2.14 0.00392633
2.15 0.00708223
2.16 0.00857026
2.17 0.0078826
2.18 0.00498597
2.19 -0.000248188
2.2 -0.00789522
2.21 -0.0179588
2.22 -0.0303698
2.23 -0.0450775
2.24 -0.0618851
2.25 -0.0803509
2.26 -0.100139
2.27 -0.120875
2.28 -0.142157
2.29 -0.163569
2.3 -0.184624
2.31 -0.2049
2.32 -0.224034
2.33 -0.241697
2.34 -0.257609
2.35 -0.271548
2.36 -0.283281
2.37 -0.292608
2.38 -0.299704
2.39 -0.304633
2.4 -0.307524
2.41 -0.308558
2.42 -0.307969
2.43 -0.305937
2.44 -0.302881
2.45 -0.299162
2.46 -0.295103
2.47 -0.291019
2.48 -0.287209
2.49 -0.283958
2.5 -0.28158
2.51 -0.280196
2.52 -0.279934
2.53 -0.280872
2.54 -0.283034
2.55 -0.286397
2.56 -0.290965
2.57 -0.296565
2.58 -0.30299
2.59 -0.310057
2.6 -0.317561
2.61 -0.325288
2.62 -0.333018
2.63 -0.340498
2.64 -0.347539
2.65 -0.353971
2.66 -0.359648
2.67 -0.364458
2.68 -0.368319
2.69 -0.37112
2.7 -0.372864
2.71 -0.37363
2.72 -0.373474
2.73 -0.372476
2.74 -0.370737
2.75 -0.368369
2.76 -0.365454
2.77 -0.362187
2.78 -0.358693
2.79 -0.355086
2.8 -0.351471
2.81 -0.347937
2.82 -0.344564
2.83 -0.341413
2.84 -0.3385
2.85 -0.335832
2.86 -0.333402
2.87 -0.331185
2.88 -0.329142
2.89 -0.327234
2.9 -0.325388
2.91 -0.323543
2.92 -0.321642
2.93 -0.319628
2.94 -0.317448
2.95 -0.315046
2.96 -0.312371
2.97 -0.309407
2.98 -0.30613
2.99 -0.302521
3 -0.298562
3.01 -0.294238
3.02 -0.289493
3.03 -0.284331
3.04 -0.278732
3.05 -0.272657
3.06 -0.266059
3.07 -0.258876
3.08 -0.251015
3.09 -0.242339
3.1 -0.232809
3.11 -0.222321
3.12 -0.210767
3.13 -0.198034
3.14 -0.184014
3.15 -0.168479
3.16 -0.151402
3.17 -0.132758
3.18 -0.112499
3.19 -0.0905998
3.2 -0.0670672
3.21 -0.0419063
3.22 -0.0150866
3.23 0.0131243
3.24 0.0425772
3.25 0.0730902
3.26 0.104451
3.27 0.136421
3.28 0.168741
3.29 0.201082
3.3 0.233137
3.31 0.264608
3.32 0.295203
3.33 0.324634
3.34 0.352616
3.35 0.378707
3.36 0.402851
3.37 0.424863
3.38 0.444594
3.39 0.461931
3.4 0.476795
3.41 0.488993
3.42 0.498547
3.43 0.505637
3.44 0.510334
3.45 0.512738
3.46 0.51297
3.47 0.51117
3.48 0.507293
3.49 0.501731
3.5 0.494651
3.51 0.486219
3.52 0.476591
3.53 0.465919
3.54 0.454302
3.55 0.441874
3.56 0.428805
3.57 0.415193
3.58 0.401125
3.59 0.386678
3.6 0.371918
3.61 0.35689
3.62 0.34168
3.63 0.326349
3.64 0.310957
3.65 0.295569
3.66 0.280257
3.67 0.265109
3.68 0.250235
3.69 0.235722
3.7 0.221678
3.71 0.208216
3.72 0.195457
3.73 0.183526
3.74 0.172647
3.75 0.162892
3.76 0.154353
3.77 0.147138
3.78 0.141344
3.79 0.137053
3.8 0.134377
3.81 0.133462
3.82 0.13419
3.83 0.136565
3.84 0.140566
3.85 0.146154
3.86 0.153271
3.87 0.161955
3.88 0.172031
3.89 0.183344
3.9 0.195778
3.91 0.209211
3.92 0.223519
3.93 0.238586
3.94 0.254321
3.95 0.270532
3.96 0.287104
3.97 0.303928
3.98 0.320903
3.99 0.337936
4 0.35493
4.01 0.371797
4.02 0.388463
4.03 0.40486
4.04 0.42092
4.05 0.436575
4.06 0.451753
4.07 0.466322
4.08 0.48026
4.09 0.49349
4.1 0.505931
4.11 0.517497
4.12 0.5281
4.13 0.537578
4.14 0.545831
4.15 0.552829
4.16 0.558485
4.17 0.562721
4.18 0.565464
4.19 0.566653
4.2 0.566056
4.21 0.563812
4.22 0.559917
4.23 0.554373
4.24 0.547204
4.25 0.538449
4.26 0.528093
4.27 0.516193
4.28 0.50294
4.29 0.488434
4.3 0.472782
4.31 0.456094
4.32 0.438485
4.33 0.419993
4.34 0.400807
4.35 0.381034
4.36 0.360762
4.37 0.340064
4.38 0.318999
4.39 0.297605
4.4 0.275903
4.41 0.253932
4.42 0.231697
4.43 0.209191
4.44 0.186401
4.45 0.163311
4.46 0.139871
4.47 0.116086
4.48 0.0919589
4.49 0.0674909
4.5 0.0426982
4.51 0.0176112
4.52 -0.00772787
4.53 -0.0332548
4.54 -0.0588605
4.55 -0.0844406
4.56 -0.109875
4.57 -0.135029
4.58 -0.15976
4.59 -0.183856
4.6 -0.207168
4.61 -0.229565
4.62 -0.250901
4.63 -0.271041
4.64 -0.289866
4.65 -0.307249
4.66 -0.322979
4.67 -0.337153
4.68 -0.349752
4.69 -0.360784
4.7 -0.370287
4.71 -0.378323
4.72 -0.384895
4.73 -0.390163
4.74 -0.394328
4.75 -0.397541
4.76 -0.399962
4.77 -0.401756
4.78 -0.403089
4.79 -0.404109
4.8 -0.405012
4.81 -0.405934
4.82 -0.406993
4.83 -0.408284
4.84 -0.409883
4.85 -0.41186
4.86 -0.414243
4.87 -0.417003
4.88 -0.420113
4.89 -0.423524
4.9 -0.42717
4.91 -0.43097
4.92 -0.434828
4.93 -0.438626
4.94 -0.442262
4.95 -0.445635
4.96 -0.448646
4.97 -0.451209
4.98 -0.453216
4.99 -0.454582
5 -0.455298
5.01 -0.455332
5.02 -0.454669
5.03 -0.453308
5.04 -0.451261
5.05 -0.448491
5.06 -0.44509
5.07 -0.441115
5.08 -0.436614
5.09 -0.431636
5.1 -0.426231
5.11 -0.420435
5.12 -0.414279
5.13 -0.407828
5.14 -0.401108
5.15 -0.394141
5.16 -0.386936
5.17 -0.379498
5.18 -0.371805
5.19 -0.363861
5.2 -0.355665
5.21 -0.347204
5.22 -0.338469
5.23 -0.329455
5.24 -0.320152
5.25 -0.310551
5.26 -0.300695
5.27 -0.290609
5.28 -0.28033
5.29 -0.269905
5.3 -0.25939
5.31 -0.248852
5.32 -0.238375
5.33 -0.228038
5.34 -0.217921
5.35 -0.208106
5.36 -0.198671
5.37 -0.189697
5.38 -0.181307
5.39 -0.173506
5.4 -0.166339
5.41 -0.159836
5.42 -0.154015
5.43 -0.14888
5.44 -0.144462
5.45 -0.140721
5.46 -0.137583
5.47 -0.134999
5.48 -0.13291
5.49 -0.131249
5.5 -0.12995
5.51 -0.128965
5.52 -0.128185
5.53 -0.127544
5.54 -0.126981
5.55 -0.126442
5.56 -0.125881
5.57 -0.125256
5.58 -0.124535
5.59 -0.123704
5.6 -0.122753
5.61 -0.121679
5.62 -0.120483
5.63 -0.119169
5.64 -0.117733
5.65 -0.116189
5.66 -0.114539
5.67 -0.11278
5.68 -0.110901
5.69 -0.108884
5.7 -0.106693
5.71 -0.10428
5.72 -0.101613
5.73 -0.0986384
5.74 -0.0952988
5.75 -0.0915315
5.76 -0.0872729
5.77 -0.0824003
5.78 -0.0768915
5.79 -0.0707068
5.8 -0.0638054
5.81 -0.0561585
5.82 -0.0477514
5.83 -0.0385616
5.84 -0.0285751
5.85 -0.0178976
5.86 -0.00658841
5.87 0.00527585
5.88 0.0176033
5.89 0.0302884
5.9 0.043225
5.91 0.0562594
5.92 0.0692559
5.93 0.0820864
5.94 0.094627
5.95 0.106762
5.96 0.118372
5.97 0.129316
5.98 0.139574
5.99 0.149099
6 0.157864
6.01 0.165863
6.02 0.17311
6.03 0.17959
6.04 0.185391
6.05 0.190613
6.06 0.195341
6.07 0.199666
6.08 0.203683
6.09 0.207486
6.1 0.211164
6.11 0.214816
6.12 0.218509
6.13 0.222293
6.14 0.226198
6.15 0.230236
6.16 0.234401
6.17 0.238652
6.18 0.242923
6.19 0.247137
6.2 0.251198
6.21 0.254998
6.22 0.258419
6.23 0.261262
6.24 0.263448
6.25 0.264855
6.26 0.265369
6.27 0.264887
6.28 0.263323
6.29 0.260547
6.3 0.256495
6.31 0.251225
6.32 0.244747
6.33 0.237092
6.34 0.228316
6.35 0.218497
6.36 0.207643
6.37 0.195973
6.38 0.183624
6.39 0.170735
6.4 0.157444
6.41 0.143892
6.42 0.130214
6.43 0.116552
6.44 0.103025
6.45 0.089727
6.46 0.0767354
6.47 0.0641073
6.48 0.0518803
6.49 0.0401111
6.5 0.028764
6.51 0.0178055
6.52 0.00719616
6.53 -0.00311553
6.54 -0.0131904
6.55 -0.0230921
6.56 -0.0328935
6.57 -0.042675
6.58 -0.0524983
6.59 -0.0624163
6.6 -0.072471
6.61 -0.0826912
6.62 -0.0931061
6.63 -0.103702
6.64 -0.114451
6.65 -0.125315
6.66 -0.136242
6.67 -0.147167
6.68 -0.158011
6.69 -0.168664
6.7 -0.179043
6.71 -0.189053
6.72 -0.198599
6.73 -0.20759
6.74 -0.215939
6.75 -0.223509
6.76 -0.230241
6.77 -0.236112
6.78 -0.241076
6.79 -0.2451
6.8 -0.24816
6.81 -0.250239
6.82 -0.251236
6.83 -0.251266
6.84 -0.250344
6.85 -0.248489
6.86 -0.245722
6.87 -0.242064
6.88 -0.237483
6.89 -0.232005
6.9 -0.22569
6.91 -0.218545
6.92 -0.210571
6.93 -0.201766
6.94 -0.192119
6.95 -0.181518
6.96 -0.170039
6.97 -0.157667
6.98 -0.144384
6.99 -0.130173
7 -0.115023
7.01 -0.0988811
7.02 -0.0817359
7.03 -0.0636649
7.04 -0.0446936
7.05 -0.0248593
7.06 -0.0042118
7.07 0.0171868
7.08 0.0393234
7.09 0.0620409
7.1 0.0852319
7.11 0.10879
7.12 0.132604
7.13 0.156555
7.14 0.180522
7.15 0.204365
7.16 0.227969
7.17 0.251226
7.18 0.27403
7.19 0.296287
7.2 0.317912
7.21 0.338759
7.22 0.358803
7.23 0.378011
7.24 0.396342
7.25 0.413762
7.26 0.430246
7.27 0.445747
7.28 0.460189
7.29 0.473645
7.3 0.486102
7.31 0.497546
7.32 0.50796
7.33 0.51732
7.34 0.525507
7.35 0.53253
7.36 0.538384
7.37 0.543017
7.38 0.546374
7.39 0.548392
7.4 0.54898
7.41 0.547943
7.42 0.545354
7.43 0.541152
7.44 0.535281
7.45 0.527692
7.46 0.51835
7.47 0.507107
7.48 0.493998
7.49 0.479123
7.5 0.462516
7.51 0.444231
7.52 0.424346
7.53 0.402948
7.54 0.380023
7.55 0.355877
7.56 0.330667
7.57 0.304564
7.58 0.277752
7.59 0.250423
7.6 0.222772
7.61 0.195032
7.62 0.167421
7.63 0.140137
7.64 0.113368
7.65 0.0872945
7.66 0.0620815
7.67 0.038008
7.68 0.0151086
7.69 -0.0065133
7.7 -0.026769
7.71 -0.0455908
7.72 -0.0629316
7.73 -0.0786923
7.74 -0.0928356
7.75 -0.105482
7.76 -0.116666
7.77 -0.126434
7.78 -0.134848
7.79 -0.141978
7.8 -0.147792
7.81 -0.152487
7.82 -0.156173
7.83 -0.15894
7.84 -0.160879
7.85 -0.162078
7.86 -0.162598
7.87 -0.1625
7.88 -0.161906
7.89 -0.160875
7.9 -0.15946
7.91 -0.157704
7.92 -0.155643
7.93 -0.15328
7.94 -0.150653
7.95 -0.147782
7.96 -0.144671
7.97 -0.141321
7.98 -0.13773
7.99 -0.133887
8 -0.12977
8.01 -0.125396
8.02 -0.120764
8.03 -0.115874
8.04 -0.110732
8.05 -0.105348
8.06 -0.0997204
8.07 -0.0938855
8.08 -0.0878819
8.09 -0.081746
8.1 -0.0755203
8.11 -0.0692532
8.12 -0.0629987
8.13 -0.0568275
8.14 -0.0507976
8.15 -0.0449705
8.16 -0.0394072
8.17 -0.034167
8.18 -0.0293056
8.19 -0.024906
8.2 -0.0210098
8.21 -0.0176291
8.22 -0.0147884
8.23 -0.0125012
8.24 -0.0107703
8.25 -0.00958798
8.26 -0.00898728
8.27 -0.00887025
8.28 -0.00918979
8.29 -0.00988877
8.3 -0.0109012
8.31 -0.012154
8.32 -0.0135727
8.33 -0.0150625
8.34 -0.0165313
8.35 -0.0178977
8.36 -0.0190846
8.37 -0.0200211
8.38 -0.020645
8.39 -0.0208603
8.4 -0.0206633
8.41 -0.0200349
8.42 -0.0189682
8.43 -0.0174716
8.44 -0.0155687
8.45 -0.0132842
8.46 -0.0106724
8.47 -0.00782795
8.48 -0.00483046
8.49 -0.00176777
8.5 0.00126619
8.51 0.00417412
8.52 0.00682638
8.53 0.00913499
8.54 0.0110152
8.55 0.012386
8.56 0.0131768
8.57 0.0133295
8.58 0.0127755
8.59 0.0114494
8.6 0.00939974
8.61 0.00663388
8.62 0.00317483
8.63 -0.000939783
8.64 -0.005659
8.65 -0.0109611
8.66 -0.0167328
8.67 -0.0228775
8.68 -0.0293111
8.69 -0.0359481
8.7 -0.0427047
8.71 -0.0494998
8.72 -0.056249
8.73 -0.0628871
8.74 -0.069362
8.75 -0.075633
8.76 -0.0816718
8.77 -0.0874624
8.78 -0.0929829
8.79 -0.0982533
8.8 -0.103305
8.81 -0.108169
8.82 -0.11288
8.83 -0.117482
8.84 -0.122018
8.85 -0.126536
8.86 -0.131084
8.87 -0.1357
8.88 -0.140415
8.89 -0.145254
8.9 -0.150232
8.91 -0.155365
8.92 -0.160643
8.93 -0.166045
8.94 -0.171544
8.95 -0.177108
8.96 -0.182698
8.97 -0.188267
8.98 -0.193755
8.99 -0.199114
9 -0.204296
9.01 -0.209254
9.02 -0.213945
9.03 -0.218334
9.04 -0.222372
9.05 -0.226032
9.06 -0.229327
9.07 -0.232254
9.08 -0.234821
9.09 -0.237041
9.1 -0.238936
9.11 -0.240505
9.12 -0.241811
9.13 -0.242891
9.14 -0.243778
9.15 -0.244506
9.16 -0.245104
9.17 -0.245593
9.18 -0.245992
9.19 -0.246318
9.2 -0.246577
9.21 -0.246763
9.22 -0.246866
9.23 -0.24687
9.24 -0.246736
9.25 -0.246443
9.26 -0.245964
9.27 -0.245267
9.28 -0.244322
9.29 -0.243104
9.3 -0.241578
9.31 -0.239712
9.32 -0.237523
9.33 -0.235014
9.34 -0.232195
9.35 -0.229086
9.36 -0.225717
9.37 -0.222109
9.38 -0.218325
9.39 -0.214422
9.4 -0.210454
9.41 -0.206477
9.42 -0.202543
9.43 -0.198707
9.44 -0.195029
9.45 -0.191531
9.46 -0.188237
9.47 -0.18516
9.48 -0.182297
9.49 -0.179634
9.5 -0.177149
9.51 -0.174786
9.52 -0.172479
9.53 -0.170156
9.54 -0.167737
9.55 -0.165134
9.56 -0.162253
9.57 -0.158949
9.58 -0.155164
9.59 -0.150808
9.6 -0.145801
9.61 -0.140072
9.62 -0.133562
9.63 -0.126172
9.64 -0.117877
9.65 -0.108713
9.66 -0.098688
9.67 -0.0878239
9.68 -0.0761594
9.69 -0.0637465
9.7 -0.0505785
9.71 -0.0368159
9.72 -0.0225422
9.73 -0.00784409
9.74 0.00719077
9.75 0.0224759
9.76 0.0379331
9.77 0.0534766
9.78 0.0690303
9.79 0.0845377
9.8 0.099953
9.81 0.115241
9.82 0.130379
9.83 0.145333
9.84 0.160116
9.85 0.174733
9.86 0.189195
9.87 0.203512
9.88 0.217699
9.89 0.231762
9.9 0.245703
9.91 0.259531
9.92 0.273237
9.93 0.286802
9.94 0.300196
9.95 0.313379
9.96 0.326271
9.97 0.33882
9.98 0.35096
9.99 0.362613
10 0.373697
10.01 0.384127
10.02 0.393794
10.03 0.402562
10.04 0.410424
10.05 0.417321
10.06 0.423203
10.07 0.428037
10.08 0.431805
10.09 0.434423
10.1 0.435966
10.11 0.436513
10.12 0.436124
10.13 0.434877
10.14 0.432861
10.15 0.430171
10.16 0.426891
10.17 0.423205
10.18 0.419236
10.19 0.415106
10.2 0.410932
10.21 0.406823
10.22 0.402898
10.23 0.399248
10.24 0.39593
10.25 0.392994
10.26 0.39047
10.27 0.388371
10.28 0.386693
10.29 0.38545
10.3 0.384554
10.31 0.383947
10.32 0.383561
10.33 0.383322
10.34 0.383146
10.35 0.382941
10.36 0.38261
10.37 0.382072
10.38 0.381249
10.39 0.380073
10.4 0.378482
10.41 0.376424
10.42 0.373799
10.43 0.37063
10.44 0.366903
10.45 0.36261
10.46 0.357752
10.47 0.352337
10.48 0.346352
10.49 0.339806
10.5 0.332756
10.51 0.325219
10.52 0.317213
10.53 0.308751
10.54 0.299842
10.55 0.290448
10.56 0.280605
10.57 0.270315
10.58 0.259568
10.59 0.248352
10.6 0.236652
10.61 0.224433
10.62 0.211661
10.63 0.198364
10.64 0.184538
10.65 0.170186
10.66 0.155318
10.67 0.139952
10.68 0.124078
10.69 0.107771
10.7 0.0910962
10.71 0.0741131
10.72 0.0568907
10.73 0.0395049
10.74 0.0220366
10.75 0.00458097
10.76 -0.0127717
10.77 -0.0299394
10.78 -0.0468452
10.79 -0.0634189
10.8 -0.0795998
10.81 -0.0952995
10.82 -0.110497
10.83 -0.125189
10.84 -0.139371
10.85 -0.153051
10.86 -0.166251
10.87 -0.179
10.88 -0.191317
10.89 -0.203304
10.9 -0.215022
10.91 -0.226538
10.92 -0.237919
10.93 -0.249228
10.94 -0.260527
10.95 -0.271872
10.96 -0.283299
10.97 -0.294834
10.98 -0.306485
10.99 -0.318247
11 -0.330099
11.01 -0.342003
11.02 -0.353894
11.03 -0.365705
11.04 -0.377356
11.05 -0.388759
11.06 -0.399822
11.07 -0.410416
11.08 -0.420429
11.09 -0.429796
11.1 -0.438433
11.11 -0.446265
11.12 -0.453226
11.13 -0.459268
11.14 -0.464248
11.15 -0.468247
11.16 -0.471272
11.17 -0.473341
11.18 -0.474484
11.19 -0.474746
11.2 -0.474147
11.21 -0.472741
11.22 -0.470656
11.23 -0.467965
11.24 -0.464738
11.25 -0.461041
11.26 -0.456937
11.27 -0.452445
11.28 -0.447636
11.29 -0.442543
11.3 -0.437175
11.31 -0.43153
11.32 -0.425591
11.33 -0.419315
11.34 -0.412638
11.35 -0.405534
11.36 -0.397943
11.37 -0.389803
11.38 -0.38105
11.39 -0.371623
11.4 -0.361398
11.41 -0.350364
11.42 -0.338511
11.43 -0.325818
11.44 -0.31228
11.45 -0.297909
11.46 -0.282719
11.47 -0.266711
11.48 -0.25003
11.49 -0.23276
11.5 -0.215
11.51 -0.196861
11.52 -0.178463
11.53 -0.159932
11.54 -0.141422
11.55 -0.123065
11.56 -0.104989
11.57 -0.0873119
11.58 -0.0701426
11.59 -0.053588
11.6 -0.037802
11.61 -0.0227828
11.62 -0.00857625
11.63 0.00478897
11.64 0.0173015
11.65 0.0289667
11.66 0.0397528
11.67 0.0497143
11.68 0.0589427
11.69 0.0674966
11.7 0.0754413
11.71 0.0828462
11.72 0.0897815
11.73 0.0962799
11.74 0.102459
11.75 0.108379
11.76 0.114091
11.77 0.119638
11.78 0.125054
11.79 0.130354
11.8 0.135551
11.81 0.14065
11.82 0.145638
11.83 0.150495
11.84 0.155195
11.85 0.159701
11.86 0.163947
11.87 0.167907
11.88 0.171541
11.89 0.174804
11.9 0.177654
11.91 0.180053
11.92 0.181941
11.93 0.183269
11.94 0.184048
11.95 0.184259
11.96 0.183888
11.97 0.182925
11.98 0.181366
11.99 0.179151
12 0.176329
12.01 0.172915
12.02 0.168917
12.03 0.164338
12.04 0.159185
12.05 0.153444
12.06 0.147088
12.07 0.140166
12.08 0.132677
12.09 0.124619
12.1 0.115988
12.11 0.106778
12.12 0.0969348
12.13 0.0864855
12.14 0.0754464
12.15 0.0638182
12.16 0.0516055
