# xPDFsuite Configuration #
[PDF]
wavelength = 0.1
dataformat = QA
inputfile = BiMsol6_insitu_700 C-00397.xy
backgroundfile = Quartz2mm-dist500-00000.xy
mode = xray
bgscale = 0.0042
composition = Bi2Fe4O9
outputtype = gr
qmaxinst = 24.998449118
qmin = 0.1
qmax = 21.4986662415
rmax = 80.0
rmin = 0.0
rstep = 0.01
rpoly = 0.9

[Misc]
inputdir = C:/Data/Seafile/CPH/Beamtime/Desy Oct 20/In situ data/Processed/BiMsol6/PDF
savedir = C:/Data/Seafile/CPH/Beamtime/Desy Oct 20/In situ data/PDF/BiMsol6
backgroundfilefull = C:/Data/Seafile/CPH/Beamtime/Desy Oct 20/In situ data/Processed/Standard_Empty_Cap/Quartz2mm-dist500-00000.xy

#### start data
#S 1
#L r($\AA$)  G($\AA^{-2}$)
0 0
0.01 0.00723111
0.02 0.0140619
0.03 0.0201496
0.04 0.0251862
0.05 0.0289124
0.06 0.0311297
0.07 0.0316199
0.08 0.0303164
0.09 0.0273741
0.1 0.0229189
0.11 0.0171486
0.12 0.0103237
0.13 0.00275657
0.14 -0.00520457
0.15 -0.013111
0.16 -0.0205851
0.17 -0.0272715
0.18 -0.0328495
0.19 -0.0370489
0.2 -0.0395906
0.21 -0.0402787
0.22 -0.0392091
0.23 -0.0364427
0.24 -0.0321261
0.25 -0.0264868
0.26 -0.0198241
0.27 -0.0124743
0.28 -0.00494286
0.29 0.00232085
0.3 0.00887935
0.31 0.0143137
0.32 0.0182438
0.33 0.0202832
0.34 0.0200492
0.35 0.0175766
0.36 0.0128424
0.37 0.00593555
0.38 -0.002942
0.39 -0.0134772
0.4 -0.0253132
0.41 -0.0377992
0.42 -0.0502933
0.43 -0.0621435
0.44 -0.0726709
0.45 -0.0811957
0.46 -0.0869974
0.47 -0.0891511
0.48 -0.0874272
0.49 -0.081433
0.5 -0.0709027
0.51 -0.0557132
0.52 -0.035895
0.53 -0.0113424
0.54 0.0173918
0.55 0.0495641
0.56 0.0844865
0.57 0.121348
0.58 0.159237
0.59 0.197158
0.6 0.233852
0.61 0.268291
0.62 0.29946
0.63 0.326405
0.64 0.348261
0.65 0.364284
0.66 0.373448
0.67 0.375319
0.68 0.370055
0.69 0.357641
0.7 0.338258
0.71 0.312271
0.72 0.280224
0.73 0.242308
0.74 0.200071
0.75 0.154513
0.76 0.106693
0.77 0.0577147
0.78 0.00869208
0.79 -0.039177
0.8 -0.0846818
0.81 -0.126986
0.82 -0.165291
0.83 -0.198942
0.84 -0.22744
0.85 -0.250456
0.86 -0.267254
0.87 -0.278396
0.88 -0.28419
0.89 -0.285019
0.9 -0.281398
0.91 -0.273957
0.92 -0.26332
0.93 -0.250289
0.94 -0.235904
0.95 -0.220968
0.96 -0.206252
0.97 -0.192469
0.98 -0.180252
0.99 -0.17037
1 -0.163131
1.01 -0.158744
1.02 -0.157346
1.03 -0.158949
1.04 -0.163443
1.05 -0.170673
1.06 -0.180413
1.07 -0.192017
1.08 -0.20502
1.09 -0.218923
1.1 -0.233219
1.11 -0.247409
1.12 -0.260946
1.13 -0.27339
1.14 -0.284431
1.15 -0.29381
1.16 -0.301355
1.17 -0.306982
1.18 -0.310664
1.19 -0.312359
1.2 -0.312442
1.21 -0.311156
1.22 -0.308794
1.23 -0.305682
1.24 -0.30216
1.25 -0.298587
1.26 -0.295327
1.27 -0.292662
1.28 -0.290822
1.29 -0.289977
1.3 -0.290234
1.31 -0.291633
1.32 -0.294244
1.33 -0.297817
1.34 -0.302171
1.35 -0.307074
1.36 -0.312253
1.37 -0.317411
1.38 -0.322201
1.39 -0.326273
1.4 -0.329369
1.41 -0.33125
1.42 -0.331723
1.43 -0.330655
1.44 -0.327982
1.45 -0.323536
1.46 -0.317591
1.47 -0.310324
1.48 -0.301968
1.49 -0.292813
1.5 -0.283192
1.51 -0.273485
1.52 -0.264139
1.53 -0.255536
1.54 -0.248037
1.55 -0.241966
1.56 -0.237601
1.57 -0.235154
1.58 -0.234982
1.59 -0.236963
1.6 -0.241018
1.61 -0.247016
1.62 -0.254747
1.63 -0.263922
1.64 -0.274215
1.65 -0.285187
1.66 -0.296302
1.67 -0.307089
1.68 -0.317077
1.69 -0.325812
1.7 -0.33287
1.71 -0.337668
1.72 -0.34
1.73 -0.339713
1.74 -0.336682
1.75 -0.330874
1.76 -0.322348
1.77 -0.311196
1.78 -0.297544
1.79 -0.281959
1.8 -0.264839
1.81 -0.24663
1.82 -0.227809
1.83 -0.208873
1.84 -0.190382
1.85 -0.172851
1.86 -0.156688
1.87 -0.142261
1.88 -0.129871
1.89 -0.11974
1.9 -0.112045
1.91 -0.107043
1.92 -0.104424
1.93 -0.104039
1.94 -0.105665
1.95 -0.109006
1.96 -0.113715
1.97 -0.119439
1.98 -0.12568
1.99 -0.131968
2 -0.13789
2.01 -0.143062
2.02 -0.147142
2.03 -0.149836
2.04 -0.150729
2.05 -0.149859
2.06 -0.147181
2.07 -0.142732
2.08 -0.136627
2.09 -0.129057
2.1 -0.120228
2.11 -0.11051
2.12 -0.100341
2.13 -0.0901157
2.14 -0.0802428
2.15 -0.0711256
2.16 -0.0631497
2.17 -0.0568659
2.18 -0.0524491
2.19 -0.0501215
2.2 -0.0500491
2.21 -0.0523253
2.22 -0.0569679
2.23 -0.0640179
2.24 -0.0733715
2.25 -0.0846484
2.26 -0.0975759
2.27 -0.111834
2.28 -0.127068
2.29 -0.142902
2.3 -0.158931
2.31 -0.174718
2.32 -0.189904
2.33 -0.204167
2.34 -0.217227
2.35 -0.228858
2.36 -0.238831
2.37 -0.246954
2.38 -0.253335
2.39 -0.258015
2.4 -0.261092
2.41 -0.262719
2.42 -0.263095
2.43 -0.262391
2.44 -0.260966
2.45 -0.259132
2.46 -0.257176
2.47 -0.255375
2.48 -0.253987
2.49 -0.253266
2.5 -0.253488
2.51 -0.25473
2.52 -0.257091
2.53 -0.260616
2.54 -0.265305
2.55 -0.27111
2.56 -0.278006
2.57 -0.285802
2.58 -0.294287
2.59 -0.303266
2.6 -0.312529
2.61 -0.321859
2.62 -0.331037
2.63 -0.339796
2.64 -0.34797
2.65 -0.355395
2.66 -0.361934
2.67 -0.36748
2.68 -0.371958
2.69 -0.375253
2.7 -0.377371
2.71 -0.378396
2.72 -0.378377
2.73 -0.377383
2.74 -0.375498
2.75 -0.372814
2.76 -0.36936
2.77 -0.365319
2.78 -0.360777
2.79 -0.355809
2.8 -0.350471
2.81 -0.344805
2.82 -0.338815
2.83 -0.332496
2.84 -0.325845
2.85 -0.318824
2.86 -0.311379
2.87 -0.30345
2.88 -0.294967
2.89 -0.285787
2.9 -0.275896
2.91 -0.265245
2.92 -0.253786
2.93 -0.241491
2.94 -0.228348
2.95 -0.214329
2.96 -0.199447
2.97 -0.183817
2.98 -0.167516
2.99 -0.150634
3 -0.13328
3.01 -0.115571
3.02 -0.0976244
3.03 -0.0795997
3.04 -0.0616286
3.05 -0.0438311
3.06 -0.0263166
3.07 -0.00918112
3.08 0.00747984
3.09 0.0235731
3.1 0.0391046
3.11 0.0540611
3.12 0.068449
3.13 0.0822936
3.14 0.0956367
3.15 0.108502
3.16 0.120988
3.17 0.133183
3.18 0.145162
3.19 0.156999
3.2 0.168761
3.21 0.180506
3.22 0.192286
3.23 0.204128
3.24 0.216042
3.25 0.228021
3.26 0.24004
3.27 0.252057
3.28 0.264007
3.29 0.275811
3.3 0.28739
3.31 0.298656
3.32 0.309518
3.33 0.319887
3.34 0.32967
3.35 0.338716
3.36 0.347024
3.37 0.354545
3.38 0.361241
3.39 0.367093
3.4 0.3721
3.41 0.376227
3.42 0.379518
3.43 0.38207
3.44 0.383946
3.45 0.385218
3.46 0.38597
3.47 0.386289
3.48 0.386236
3.49 0.385949
3.5 0.385516
3.51 0.385019
3.52 0.384534
3.53 0.384131
3.54 0.383879
3.55 0.383839
3.56 0.384042
3.57 0.384522
3.58 0.385303
3.59 0.386408
3.6 0.387853
3.61 0.389689
3.62 0.391898
3.63 0.394485
3.64 0.397465
3.65 0.400851
3.66 0.404658
3.67 0.408921
3.68 0.413678
3.69 0.418911
3.7 0.424635
3.71 0.430861
3.72 0.437596
3.73 0.444836
3.74 0.452617
3.75 0.460874
3.76 0.469557
3.77 0.478612
3.78 0.48797
3.79 0.497546
3.8 0.50724
3.81 0.516919
3.82 0.526443
3.83 0.53567
3.84 0.544451
3.85 0.552629
3.86 0.560047
3.87 0.566461
3.88 0.571746
3.89 0.575793
3.9 0.578476
3.91 0.579684
3.92 0.579321
3.93 0.577284
3.94 0.573379
3.95 0.567744
3.96 0.560378
3.97 0.551298
3.98 0.540544
3.99 0.52817
4 0.514145
4.01 0.498607
4.02 0.481724
4.03 0.463597
4.04 0.444335
4.05 0.424042
4.06 0.402816
4.07 0.380685
4.08 0.357837
4.09 0.334357
4.1 0.310321
4.11 0.285794
4.12 0.260838
4.13 0.235485
4.14 0.209793
4.15 0.183828
4.16 0.157634
4.17 0.131257
4.18 0.104747
4.19 0.0781605
4.2 0.0515665
4.21 0.0250467
4.22 -0.00131594
4.23 -0.0274292
4.24 -0.0531923
4.25 -0.078497
4.26 -0.103195
4.27 -0.12714
4.28 -0.150252
4.29 -0.172418
4.3 -0.19353
4.31 -0.21349
4.32 -0.232212
4.33 -0.249488
4.34 -0.26538
4.35 -0.279881
4.36 -0.292989
4.37 -0.304726
4.38 -0.315132
4.39 -0.32423
4.4 -0.332068
4.41 -0.338852
4.42 -0.344703
4.43 -0.34975
4.44 -0.35413
4.45 -0.357979
4.46 -0.361409
4.47 -0.364586
4.48 -0.367634
4.49 -0.37065
4.5 -0.373714
4.51 -0.376885
4.52 -0.380205
4.53 -0.3837
4.54 -0.387343
4.55 -0.391102
4.56 -0.394925
4.57 -0.398749
4.58 -0.402495
4.59 -0.406058
4.6 -0.409344
4.61 -0.412273
4.62 -0.414765
4.63 -0.416748
4.64 -0.418166
4.65 -0.418967
4.66 -0.419076
4.67 -0.41856
4.68 -0.417443
4.69 -0.415772
4.7 -0.413611
4.71 -0.411043
4.72 -0.408152
4.73 -0.405068
4.74 -0.401922
4.75 -0.398834
4.76 -0.39592
4.77 -0.39329
4.78 -0.391047
4.79 -0.389337
4.8 -0.388178
4.81 -0.387618
4.82 -0.387679
4.83 -0.388367
4.84 -0.389663
4.85 -0.39156
4.86 -0.393993
4.87 -0.396853
4.88 -0.400055
4.89 -0.403505
4.9 -0.407104
4.91 -0.410755
4.92 -0.414347
4.93 -0.417791
4.94 -0.42101
4.95 -0.423943
4.96 -0.426541
4.97 -0.428773
4.98 -0.430601
4.99 -0.432017
5 -0.433062
5.01 -0.433761
5.02 -0.434145
5.03 -0.434251
5.04 -0.434118
5.05 -0.433762
5.06 -0.433231
5.07 -0.432542
5.08 -0.431698
5.09 -0.430684
5.1 -0.429468
5.11 -0.427987
5.12 -0.426144
5.13 -0.423867
5.14 -0.421047
5.15 -0.417561
5.16 -0.413274
5.17 -0.408046
5.18 -0.401624
5.19 -0.393913
5.2 -0.384811
5.21 -0.374194
5.22 -0.361956
5.23 -0.348008
5.24 -0.332239
5.25 -0.314483
5.26 -0.294896
5.27 -0.273499
5.28 -0.250335
5.29 -0.225477
5.3 -0.199018
5.31 -0.17097
5.32 -0.141542
5.33 -0.110944
5.34 -0.0793339
5.35 -0.0468765
5.36 -0.0137373
5.37 0.0199253
5.38 0.053968
5.39 0.0881941
5.4 0.122468
5.41 0.156668
5.42 0.190682
5.43 0.224411
5.44 0.257738
5.45 0.29058
5.46 0.322886
5.47 0.354589
5.48 0.385621
5.49 0.415914
5.5 0.445389
5.51 0.473851
5.52 0.501296
5.53 0.527612
5.54 0.552675
5.55 0.576345
5.56 0.598471
5.57 0.618783
5.58 0.637071
5.59 0.653261
5.6 0.667177
5.61 0.678642
5.62 0.687491
5.63 0.693574
5.64 0.696434
5.65 0.696246
5.66 0.692968
5.67 0.686563
5.68 0.677033
5.69 0.664417
5.7 0.648667
5.71 0.629838
5.72 0.608316
5.73 0.584297
5.74 0.558013
5.75 0.529718
5.76 0.499686
5.77 0.468096
5.78 0.435391
5.79 0.401895
5.8 0.3679
5.81 0.333683
5.82 0.299501
5.83 0.265605
5.84 0.232254
5.85 0.199589
5.86 0.167747
5.87 0.136832
5.88 0.106917
5.89 0.0780455
5.9 0.0503242
5.91 0.0236845
5.92 -0.00193518
5.93 -0.0265749
5.94 -0.0502812
5.95 -0.0731014
5.96 -0.0950607
5.97 -0.116137
5.98 -0.136425
5.99 -0.155924
6 -0.174613
6.01 -0.192449
6.02 -0.209371
6.03 -0.225211
6.04 -0.239885
6.05 -0.253317
6.06 -0.265376
6.07 -0.275929
6.08 -0.284841
6.09 -0.291964
6.1 -0.296989
6.11 -0.30001
6.12 -0.300956
6.13 -0.299781
6.14 -0.296471
6.15 -0.291045
6.16 -0.283429
6.17 -0.273752
6.18 -0.262252
6.19 -0.249091
6.2 -0.234457
6.21 -0.218562
6.22 -0.201636
6.23 -0.183858
6.24 -0.165593
6.25 -0.147087
6.26 -0.128581
6.27 -0.1103
6.28 -0.0924488
6.29 -0.0752492
6.3 -0.0588805
6.31 -0.0434124
6.32 -0.0289215
6.33 -0.0154488
6.34 -0.00300081
6.35 0.00844945
6.36 0.0188699
6.37 0.028449
6.38 0.0373127
6.39 0.045594
6.4 0.0534387
6.41 0.0609999
6.42 0.0684343
6.43 0.075916
6.44 0.0835944
6.45 0.091598
6.46 0.100039
6.47 0.109012
6.48 0.118588
6.49 0.128883
6.5 0.13988
6.51 0.151564
6.52 0.163921
6.53 0.176914
6.54 0.190497
6.55 0.204623
6.56 0.21924
6.57 0.234229
6.58 0.249515
6.59 0.265024
6.6 0.280689
6.61 0.296446
6.62 0.312239
6.63 0.328017
6.64 0.343743
6.65 0.35939
6.66 0.37494
6.67 0.390379
6.68 0.405696
6.69 0.420873
6.7 0.435913
6.71 0.450805
6.72 0.465531
6.73 0.480065
6.74 0.494371
6.75 0.508378
6.76 0.522024
6.77 0.535245
6.78 0.547952
6.79 0.560043
6.8 0.571408
6.81 0.581917
6.82 0.591327
6.83 0.5996
6.84 0.6066
6.85 0.612195
6.86 0.616255
6.87 0.618661
6.88 0.619187
6.89 0.61773
6.9 0.614311
6.91 0.608868
6.92 0.601354
6.93 0.591743
6.94 0.580028
6.95 0.565981
6.96 0.549872
6.97 0.531753
6.98 0.51169
6.99 0.48976
7 0.46605
7.01 0.44058
7.02 0.413448
7.03 0.384879
7.04 0.354988
7.05 0.323898
7.06 0.291729
7.07 0.258604
7.08 0.22457
7.09 0.189837
7.1 0.154535
7.11 0.118786
7.12 0.0827063
7.13 0.0464154
7.14 0.0100324
7.15 -0.0263065
7.16 -0.0624772
7.17 -0.0983609
7.18 -0.133839
7.19 -0.168792
7.2 -0.203103
7.21 -0.236574
7.22 -0.26913
7.23 -0.300681
7.24 -0.331124
7.25 -0.360362
7.26 -0.388307
7.27 -0.414837
7.28 -0.439791
7.29 -0.463239
7.3 -0.485142
7.31 -0.505474
7.32 -0.524225
7.33 -0.541397
7.34 -0.556885
7.35 -0.570796
7.36 -0.583232
7.37 -0.594252
7.38 -0.603921
7.39 -0.612312
7.4 -0.619487
7.41 -0.625445
7.42 -0.630388
7.43 -0.634398
7.44 -0.637552
7.45 -0.639924
7.46 -0.64158
7.47 -0.642535
7.48 -0.642862
7.49 -0.642627
7.5 -0.64186
7.51 -0.640578
7.52 -0.638793
7.53 -0.636503
7.54 -0.633649
7.55 -0.630274
7.56 -0.626363
7.57 -0.621896
7.58 -0.616854
7.59 -0.611217
7.6 -0.604928
7.61 -0.597972
7.62 -0.590373
7.63 -0.582123
7.64 -0.573223
7.65 -0.563675
7.66 -0.553489
7.67 -0.542613
7.68 -0.531134
7.69 -0.519084
7.7 -0.506491
7.71 -0.493389
7.72 -0.479817
7.73 -0.465794
7.74 -0.451362
7.75 -0.436594
7.76 -0.421537
7.77 -0.406239
7.78 -0.390749
7.79 -0.375119
7.8 -0.3594
7.81 -0.343659
7.82 -0.327957
7.83 -0.312354
7.84 -0.296913
7.85 -0.281701
7.86 -0.266798
7.87 -0.252302
7.88 -0.238261
7.89 -0.224747
7.9 -0.211833
7.91 -0.199592
7.92 -0.188092
7.93 -0.177479
7.94 -0.167767
7.95 -0.158988
7.96 -0.151185
7.97 -0.144391
7.98 -0.138632
7.99 -0.133946
8 -0.130399
8.01 -0.12788
8.02 -0.126361
8.03 -0.125802
8.04 -0.126149
8.05 -0.127342
8.06 -0.129364
8.07 -0.132096
8.08 -0.135423
8.09 -0.139258
8.1 -0.143516
8.11 -0.14811
8.12 -0.15296
8.13 -0.157996
8.14 -0.163126
8.15 -0.168289
8.16 -0.173435
8.17 -0.178522
8.18 -0.183519
8.19 -0.188391
8.2 -0.193124
8.21 -0.197715
8.22 -0.202161
8.23 -0.206458
8.24 -0.210606
8.25 -0.214598
8.26 -0.218408
8.27 -0.222034
8.28 -0.225451
8.29 -0.228623
8.3 -0.231503
8.31 -0.23403
8.32 -0.236104
8.33 -0.237625
8.34 -0.238524
8.35 -0.238695
8.36 -0.238026
8.37 -0.236402
8.38 -0.233705
8.39 -0.229677
8.4 -0.224318
8.41 -0.217537
8.42 -0.209243
8.43 -0.199364
8.44 -0.18784
8.45 -0.174554
8.46 -0.159441
8.47 -0.14263
8.48 -0.124149
8.49 -0.104046
8.5 -0.0823887
8.51 -0.0592618
8.52 -0.0346431
8.53 -0.00876977
8.54 0.0182073
8.55 0.0461567
8.56 0.0749443
8.57 0.104437
8.58 0.134519
8.59 0.165073
8.6 0.19594
8.61 0.227018
8.62 0.258217
8.63 0.289459
8.64 0.320678
8.65 0.35181
8.66 0.382809
8.67 0.413646
8.68 0.444291
8.69 0.474719
8.7 0.504904
8.71 0.534811
8.72 0.564376
8.73 0.593582
8.74 0.62237
8.75 0.65067
8.76 0.678397
8.77 0.70545
8.78 0.731643
8.79 0.756853
8.8 0.780964
8.81 0.803817
8.82 0.825243
8.83 0.84507
8.84 0.863097
8.85 0.878946
8.86 0.89264
8.87 0.904021
8.88 0.912944
8.89 0.919281
8.9 0.922923
8.91 0.9236
8.92 0.92128
8.93 0.916078
8.94 0.90799
8.95 0.897037
8.96 0.883264
8.97 0.866738
8.98 0.847255
8.99 0.825245
9 0.800837
9.01 0.77417
9.02 0.745393
9.03 0.714662
9.04 0.682045
9.05 0.647709
9.06 0.611921
9.07 0.574832
9.08 0.536587
9.09 0.497325
9.1 0.457178
9.11 0.416204
9.12 0.374611
9.13 0.332522
9.14 0.290052
9.15 0.247315
9.16 0.204426
9.17 0.161509
9.18 0.11871
9.19 0.076163
9.2 0.0340088
9.21 -0.00760292
9.22 -0.0485138
9.23 -0.0885569
9.24 -0.12744
9.25 -0.165039
9.26 -0.201191
9.27 -0.235708
9.28 -0.268405
9.29 -0.299101
9.3 -0.327548
9.31 -0.353438
9.32 -0.376815
9.33 -0.397551
9.34 -0.415541
9.35 -0.430699
9.36 -0.442967
9.37 -0.452058
9.38 -0.458119
9.39 -0.461266
9.4 -0.461546
9.41 -0.459025
9.42 -0.453793
9.43 -0.445907
9.44 -0.435317
9.45 -0.422412
9.46 -0.407337
9.47 -0.390246
9.48 -0.371292
9.49 -0.35063
9.5 -0.328311
9.51 -0.304547
9.52 -0.279545
9.53 -0.253438
9.54 -0.226351
9.55 -0.198401
9.56 -0.169694
9.57 -0.140283
9.58 -0.110345
9.59 -0.0799781
9.6 -0.0492776
9.61 -0.0183412
9.62 0.0127308
9.63 0.0438284
9.64 0.074823
9.65 0.105594
9.66 0.136016
9.67 0.165954
9.68 0.195267
9.69 0.223809
9.7 0.251306
9.71 0.277695
9.72 0.302825
9.73 0.326548
9.74 0.348722
9.75 0.369213
9.76 0.387803
9.77 0.404344
9.78 0.418874
9.79 0.431329
9.8 0.441668
9.81 0.449872
9.82 0.455945
9.83 0.4597
9.84 0.461388
9.85 0.461113
9.86 0.458968
9.87 0.455063
9.88 0.449521
9.89 0.442419
9.9 0.43387
9.91 0.424127
9.92 0.413335
9.93 0.401629
9.94 0.389141
9.95 0.375991
9.96 0.362247
9.97 0.348053
9.98 0.333499
9.99 0.318652
10 0.30356
10.01 0.288262
10.02 0.272778
10.03 0.257115
10.04 0.241295
10.05 0.225316
10.06 0.209178
10.07 0.192876
10.08 0.17641
10.09 0.159768
10.1 0.142968
10.11 0.126034
10.12 0.108988
10.13 0.0918663
10.14 0.0747091
10.15 0.0575683
10.16 0.0405148
10.17 0.0236107
10.18 0.00692427
10.19 -0.00947435
10.2 -0.0255151
10.21 -0.04113
10.22 -0.0562162
10.23 -0.0707217
10.24 -0.0846223
10.25 -0.0978805
10.26 -0.11047
10.27 -0.122375
10.28 -0.133589
10.29 -0.144051
10.3 -0.153861
10.31 -0.16305
10.32 -0.17166
10.33 -0.179739
10.34 -0.187341
10.35 -0.194501
10.36 -0.201289
10.37 -0.207786
10.38 -0.214048
10.39 -0.220126
10.4 -0.226066
10.41 -0.231909
10.42 -0.237683
10.43 -0.243423
10.44 -0.249143
10.45 -0.254855
10.46 -0.260561
10.47 -0.26626
10.48 -0.271945
10.49 -0.277604
10.5 -0.283227
10.51 -0.288805
10.52 -0.294327
10.53 -0.299787
10.54 -0.305178
10.55 -0.310495
10.56 -0.315747
10.57 -0.320943
10.58 -0.326095
10.59 -0.331217
10.6 -0.336327
10.61 -0.341444
10.62 -0.346589
10.63 -0.351777
10.64 -0.357023
10.65 -0.362337
10.66 -0.367723
10.67 -0.37318
10.68 -0.378705
10.69 -0.384278
10.7 -0.389874
10.71 -0.395465
10.72 -0.401014
10.73 -0.406483
10.74 -0.411826
10.75 -0.416979
10.76 -0.42191
10.77 -0.426577
10.78 -0.43094
10.79 -0.434966
10.8 -0.438626
10.81 -0.441871
10.82 -0.444709
10.83 -0.447156
10.84 -0.449226
10.85 -0.450943
10.86 -0.452339
10.87 -0.453451
10.88 -0.454316
10.89 -0.455016
10.9 -0.455607
10.91 -0.456147
10.92 -0.456693
10.93 -0.457296
10.94 -0.458009
10.95 -0.45887
10.96 -0.459894
10.97 -0.461092
10.98 -0.462456
10.99 -0.463967
11 -0.465591
11.01 -0.467278
11.02 -0.468949
11.03 -0.470527
11.04 -0.471923
11.05 -0.473043
11.06 -0.473786
11.07 -0.474015
11.08 -0.473613
11.09 -0.472513
11.1 -0.470626
11.11 -0.467875
11.12 -0.464193
11.13 -0.459529
11.14 -0.453734
11.15 -0.446899
11.16 -0.439036
11.17 -0.430168
11.18 -0.420336
11.19 -0.409597
11.2 -0.397987
11.21 -0.385587
11.22 -0.37255
11.23 -0.358978
11.24 -0.344978
11.25 -0.330655
11.26 -0.316115
11.27 -0.301454
11.28 -0.286781
11.29 -0.272178
11.3 -0.257709
11.31 -0.243429
11.32 -0.229374
11.33 -0.215577
11.34 -0.202059
11.35 -0.188787
11.36 -0.175739
11.37 -0.162882
11.38 -0.150169
11.39 -0.13755
11.4 -0.124963
11.41 -0.112337
11.42 -0.0996082
11.43 -0.0867153
11.44 -0.0736003
11.45 -0.0602103
11.46 -0.0464903
11.47 -0.0323732
11.48 -0.0178624
11.49 -0.00293986
11.5 0.0124033
11.51 0.028167
11.52 0.0443425
11.53 0.0609424
11.54 0.0779251
11.55 0.0952452
11.56 0.11287
11.57 0.130763
11.58 0.148888
11.59 0.16721
11.6 0.185703
11.61 0.204316
11.62 0.223017
11.63 0.24178
11.64 0.260581
11.65 0.279399
11.66 0.298215
11.67 0.317013
11.68 0.335779
11.69 0.354499
11.7 0.373161
11.71 0.391749
11.72 0.410245
11.73 0.428612
11.74 0.446833
11.75 0.464875
11.76 0.482698
11.77 0.500256
11.78 0.517496
11.79 0.534332
11.8 0.550683
11.81 0.566499
11.82 0.5817
11.83 0.5962
11.84 0.609911
11.85 0.622744
11.86 0.634491
11.87 0.645148
11.88 0.654637
11.89 0.662871
11.9 0.669771
11.91 0.675261
11.92 0.679209
11.93 0.681502
11.94 0.682203
11.95 0.681274
11.96 0.67869
11.97 0.674435
11.98 0.668506
11.99 0.66075
12 0.651317
12.01 0.640274
12.02 0.627665
12.03 0.613543
12.04 0.597971
12.05 0.580978
12.06 0.562592
12.07 0.543017
12.08 0.52235
12.09 0.500695
12.1 0.478159
12.11 0.454855
12.12 0.430854
12.13 0.406324
12.14 0.381408
12.15 0.356227
12.16 0.330903
12.17 0.305559
12.18 0.280317
12.19 0.255329
12.2 0.230695
12.21 0.206527
12.22 0.18293
12.23 0.160004
12.24 0.137844
12.25 0.116609
12.26 0.0963624
12.27 0.0771398
12.28 0.0590052
