# xPDFsuite Configuration #
[PDF]
wavelength = 0.1
dataformat = QA
inputfile = BiMsol6_insitu_700 C-00590.xy
backgroundfile = Quartz2mm-dist500-00000.xy
mode = xray
bgscale = 0.0042
composition = Bi2Fe4O9
outputtype = gr
qmaxinst = 24.998449118
qmin = 0.1
qmax = 21.4986662415
rmax = 80.0
rmin = 0.0
rstep = 0.01
rpoly = 0.9

[Misc]
inputdir = C:/Data/Seafile/CPH/Beamtime/Desy Oct 20/In situ data/Processed/BiMsol6/PDF
savedir = C:/Data/Seafile/CPH/Beamtime/Desy Oct 20/In situ data/PDF/BiMsol6
backgroundfilefull = C:/Data/Seafile/CPH/Beamtime/Desy Oct 20/In situ data/Processed/Standard_Empty_Cap/Quartz2mm-dist500-00000.xy

#### start data
#S 1
#L r($\AA$)  G($\AA^{-2}$)
0 0
0.01 0.00581538
0.02 0.0112963
0.03 0.0161565
0.04 0.0201397
0.05 0.023031
0.06 0.0246672
0.07 0.0248706
0.08 0.0235914
0.09 0.0209645
0.1 0.0171015
0.11 0.0121745
0.12 0.00640813
0.13 6.94249e-05
0.14 -0.00653955
0.15 -0.0130453
0.16 -0.0191321
0.17 -0.0245047
0.18 -0.0288997
0.19 -0.0320988
0.2 -0.0338788
0.21 -0.0340914
0.22 -0.032836
0.23 -0.0301829
0.24 -0.0262752
0.25 -0.0213242
0.26 -0.0156017
0.27 -0.00942028
0.28 -0.00321428
0.29 0.00262928
0.3 0.00773546
0.31 0.0117502
0.32 0.0143576
0.33 0.0152396
0.34 0.0140881
0.35 0.0109684
0.36 0.00589278
0.37 -0.0010273
0.38 -0.00958009
0.39 -0.0194569
0.4 -0.0302956
0.41 -0.0414996
0.42 -0.0524856
0.43 -0.0626601
0.44 -0.0714121
0.45 -0.0781356
0.46 -0.0821909
0.47 -0.0827522
0.48 -0.0796599
0.49 -0.0725921
0.5 -0.061346
0.51 -0.0458508
0.52 -0.0261772
0.53 -0.00228142
0.54 0.0252873
0.55 0.0558156
0.56 0.0886402
0.57 0.122989
0.58 0.158005
0.59 0.192755
0.6 0.226044
0.61 0.256959
0.62 0.284576
0.63 0.308029
0.64 0.326543
0.65 0.339458
0.66 0.34585
0.67 0.345359
0.68 0.33818
0.69 0.324338
0.7 0.304039
0.71 0.27766
0.72 0.245742
0.73 0.208511
0.74 0.167421
0.75 0.123426
0.76 0.077528
0.77 0.0307684
0.78 -0.0158083
0.79 -0.0610712
0.8 -0.103891
0.81 -0.143507
0.82 -0.179188
0.83 -0.210332
0.84 -0.236491
0.85 -0.257375
0.86 -0.272301
0.87 -0.281827
0.88 -0.286263
0.89 -0.285985
0.9 -0.281495
0.91 -0.273396
0.92 -0.262292
0.93 -0.248948
0.94 -0.234353
0.95 -0.219273
0.96 -0.204439
0.97 -0.190531
0.98 -0.17815
0.99 -0.168033
1 -0.160469
1.01 -0.155663
1.02 -0.153745
1.03 -0.15473
1.04 -0.158518
1.05 -0.164968
1.06 -0.173872
1.07 -0.184615
1.08 -0.196753
1.09 -0.209816
1.1 -0.223316
1.11 -0.236777
1.12 -0.249674
1.13 -0.261579
1.14 -0.272178
1.15 -0.281214
1.16 -0.288506
1.17 -0.293954
1.18 -0.297514
1.19 -0.299117
1.2 -0.299103
1.21 -0.297687
1.22 -0.295129
1.23 -0.291723
1.24 -0.287783
1.25 -0.283629
1.26 -0.279611
1.27 -0.276005
1.28 -0.273037
1.29 -0.270883
1.3 -0.26966
1.31 -0.26943
1.32 -0.270281
1.33 -0.272017
1.34 -0.274498
1.35 -0.277538
1.36 -0.280914
1.37 -0.284376
1.38 -0.287638
1.39 -0.2904
1.4 -0.292436
1.41 -0.293535
1.42 -0.29353
1.43 -0.292302
1.44 -0.289789
1.45 -0.285852
1.46 -0.280709
1.47 -0.274503
1.48 -0.267428
1.49 -0.259724
1.5 -0.251669
1.51 -0.243581
1.52 -0.23583
1.53 -0.22873
1.54 -0.222575
1.55 -0.21763
1.56 -0.214112
1.57 -0.212188
1.58 -0.212132
1.59 -0.213824
1.6 -0.217174
1.61 -0.22205
1.62 -0.228249
1.63 -0.235506
1.64 -0.243516
1.65 -0.251878
1.66 -0.260138
1.67 -0.267889
1.68 -0.274727
1.69 -0.280267
1.7 -0.284158
1.71 -0.285899
1.72 -0.285352
1.73 -0.282417
1.74 -0.277021
1.75 -0.269168
1.76 -0.258946
1.77 -0.246472
1.78 -0.2319
1.79 -0.215748
1.8 -0.198389
1.81 -0.180231
1.82 -0.161707
1.83 -0.143253
1.84 -0.125372
1.85 -0.108494
1.86 -0.0929513
1.87 -0.0790394
1.88 -0.06699
1.89 -0.0569615
1.9 -0.049066
1.91 -0.0434796
1.92 -0.0398887
1.93 -0.0381243
1.94 -0.0379539
1.95 -0.0390922
1.96 -0.0412131
1.97 -0.0439806
1.98 -0.046966
1.99 -0.0497847
2 -0.0521042
2.01 -0.05363
2.02 -0.0541177
2.03 -0.0533786
2.04 -0.0511464
2.05 -0.047545
2.06 -0.042633
2.07 -0.0365445
2.08 -0.0294849
2.09 -0.0217233
2.1 -0.0135841
2.11 -0.00549481
2.12 0.00212533
2.13 0.00886798
2.14 0.0143315
2.15 0.0181361
2.16 0.0199391
2.17 0.0191709
2.18 0.0158265
2.19 0.00978637
2.2 0.000994037
2.21 -0.0105236
2.22 -0.0246559
2.23 -0.041308
2.24 -0.0602186
2.25 -0.0808649
2.26 -0.102842
2.27 -0.125705
2.28 -0.148982
2.29 -0.172194
2.3 -0.194764
2.31 -0.216237
2.32 -0.236216
2.33 -0.254344
2.34 -0.270329
2.35 -0.283949
2.36 -0.294968
2.37 -0.303201
2.38 -0.308894
2.39 -0.312161
2.4 -0.313189
2.41 -0.312228
2.42 -0.309578
2.43 -0.305502
2.44 -0.300498
2.45 -0.294994
2.46 -0.289378
2.47 -0.284019
2.48 -0.279262
2.49 -0.275436
2.5 -0.272905
2.51 -0.271763
2.52 -0.272129
2.53 -0.274061
2.54 -0.277552
2.55 -0.282533
2.56 -0.28897
2.57 -0.296607
2.58 -0.305164
2.59 -0.314382
2.6 -0.323986
2.61 -0.333692
2.62 -0.34321
2.63 -0.352197
2.64 -0.360436
2.65 -0.367719
2.66 -0.373872
2.67 -0.378767
2.68 -0.382321
2.69 -0.384409
2.7 -0.385066
2.71 -0.38443
2.72 -0.382601
2.73 -0.379715
2.74 -0.375934
2.75 -0.371435
2.76 -0.366372
2.77 -0.361018
2.78 -0.355559
2.79 -0.350169
2.8 -0.345005
2.81 -0.340199
2.82 -0.335886
2.83 -0.332151
2.84 -0.329002
2.85 -0.326446
2.86 -0.324459
2.87 -0.322996
2.88 -0.321986
2.89 -0.321371
2.9 -0.321002
2.91 -0.320767
2.92 -0.320553
2.93 -0.320251
2.94 -0.319757
2.95 -0.318961
2.96 -0.317759
2.97 -0.316107
2.98 -0.313954
2.99 -0.311261
3 -0.308001
3.01 -0.304157
3.02 -0.299662
3.03 -0.294553
3.04 -0.288837
3.05 -0.282504
3.06 -0.27554
3.07 -0.267919
3.08 -0.259582
3.09 -0.250431
3.1 -0.240464
3.11 -0.229602
3.12 -0.21776
3.13 -0.204841
3.14 -0.190748
3.15 -0.175262
3.16 -0.158345
3.17 -0.139952
3.18 -0.120015
3.19 -0.0984837
3.2 -0.0753343
3.21 -0.0505374
3.22 -0.0240189
3.23 0.00398587
3.24 0.0333606
3.25 0.0639527
3.26 0.0955747
3.27 0.128006
3.28 0.161017
3.29 0.194274
3.3 0.227455
3.31 0.260248
3.32 0.292336
3.33 0.323406
3.34 0.353134
3.35 0.381037
3.36 0.407004
3.37 0.430799
3.38 0.452224
3.39 0.471118
3.4 0.487358
3.41 0.500691
3.42 0.511104
3.43 0.518763
3.44 0.523722
3.45 0.526072
3.46 0.525935
3.47 0.523462
3.48 0.518598
3.49 0.511799
3.5 0.503272
3.51 0.493224
3.52 0.481863
3.53 0.469389
3.54 0.455957
3.55 0.441763
3.56 0.427024
3.57 0.411884
3.58 0.39647
3.59 0.380888
3.6 0.365231
3.61 0.349583
3.62 0.334011
3.63 0.318568
3.64 0.303297
3.65 0.288239
3.66 0.273433
3.67 0.258932
3.68 0.244799
3.69 0.231063
3.7 0.217781
3.71 0.205018
3.72 0.192849
3.73 0.181353
3.74 0.170696
3.75 0.160929
3.76 0.152128
3.77 0.144388
3.78 0.137801
3.79 0.132456
3.8 0.128474
3.81 0.126015
3.82 0.12502
3.83 0.125529
3.84 0.127572
3.85 0.131158
3.86 0.136285
3.87 0.143053
3.88 0.151346
3.89 0.161056
3.9 0.172114
3.91 0.18444
3.92 0.197944
3.93 0.212543
3.94 0.228195
3.95 0.244684
3.96 0.261894
3.97 0.279709
3.98 0.29801
3.99 0.316681
4 0.335615
4.01 0.354674
4.02 0.373734
4.03 0.392682
4.04 0.411409
4.05 0.429805
4.06 0.447755
4.07 0.465082
4.08 0.481727
4.09 0.497582
4.1 0.51254
4.11 0.526492
4.12 0.539335
4.13 0.550888
4.14 0.56104
4.15 0.569773
4.16 0.577001
4.17 0.582651
4.18 0.586657
4.19 0.58897
4.2 0.589351
4.21 0.587966
4.22 0.58482
4.23 0.579923
4.24 0.573304
4.25 0.565007
4.26 0.555014
4.27 0.543382
4.28 0.530305
4.29 0.515881
4.3 0.500212
4.31 0.483405
4.32 0.465568
4.33 0.446727
4.34 0.427076
4.35 0.406726
4.36 0.385766
4.37 0.364274
4.38 0.342318
4.39 0.319942
4.4 0.297182
4.41 0.2741
4.42 0.250718
4.43 0.227051
4.44 0.203107
4.45 0.17889
4.46 0.154378
4.47 0.129595
4.48 0.104557
4.49 0.07928
4.5 0.0537898
4.51 0.0281224
4.52 0.00232441
4.53 -0.0235373
4.54 -0.0493738
4.55 -0.0750943
4.56 -0.100596
4.57 -0.125767
4.58 -0.150486
4.59 -0.174571
4.6 -0.197901
4.61 -0.220372
4.62 -0.241862
4.63 -0.262257
4.64 -0.281456
4.65 -0.29935
4.66 -0.315745
4.67 -0.330727
4.68 -0.344271
4.69 -0.356373
4.7 -0.367053
4.71 -0.376349
4.72 -0.384235
4.73 -0.390833
4.74 -0.396302
4.75 -0.400755
4.76 -0.404313
4.77 -0.407102
4.78 -0.40925
4.79 -0.410847
4.8 -0.412084
4.81 -0.413079
4.82 -0.413936
4.83 -0.41475
4.84 -0.415599
4.85 -0.416555
4.86 -0.417673
4.87 -0.418972
4.88 -0.420466
4.89 -0.422151
4.9 -0.424014
4.91 -0.426027
4.92 -0.428163
4.93 -0.430361
4.94 -0.432571
4.95 -0.434741
4.96 -0.436817
4.97 -0.438748
4.98 -0.440472
4.99 -0.441929
5 -0.443092
5.01 -0.443924
5.02 -0.444391
5.03 -0.444464
5.04 -0.444118
5.05 -0.443286
5.06 -0.441982
5.07 -0.440197
5.08 -0.437913
5.09 -0.435116
5.1 -0.431788
5.11 -0.427893
5.12 -0.423388
5.13 -0.418302
5.14 -0.41262
5.15 -0.40633
5.16 -0.399425
5.17 -0.391899
5.18 -0.383702
5.19 -0.374883
5.2 -0.365479
5.21 -0.355521
5.22 -0.345052
5.23 -0.334123
5.24 -0.322792
5.25 -0.311124
5.26 -0.299241
5.27 -0.287243
5.28 -0.275232
5.29 -0.26332
5.3 -0.251617
5.31 -0.24027
5.32 -0.229389
5.33 -0.219063
5.34 -0.209383
5.35 -0.200429
5.36 -0.192267
5.37 -0.184957
5.38 -0.178612
5.39 -0.17315
5.4 -0.16856
5.41 -0.164813
5.42 -0.161859
5.43 -0.159635
5.44 -0.158101
5.45 -0.157143
5.46 -0.15663
5.47 -0.156461
5.48 -0.156531
5.49 -0.15674
5.5 -0.156995
5.51 -0.157197
5.52 -0.157273
5.53 -0.157167
5.54 -0.156837
5.55 -0.156259
5.56 -0.155422
5.57 -0.154319
5.58 -0.152972
5.59 -0.151428
5.6 -0.149728
5.61 -0.147917
5.62 -0.146042
5.63 -0.144147
5.64 -0.142276
5.65 -0.140461
5.66 -0.138715
5.67 -0.137041
5.68 -0.135422
5.69 -0.133828
5.7 -0.132204
5.71 -0.130469
5.72 -0.128541
5.73 -0.126322
5.74 -0.123705
5.75 -0.120577
5.76 -0.116822
5.77 -0.112246
5.78 -0.106791
5.79 -0.100379
5.8 -0.0929375
5.81 -0.0844125
5.82 -0.0747735
5.83 -0.0639793
5.84 -0.0520037
5.85 -0.038999
5.86 -0.0250509
5.87 -0.0102711
5.88 0.00520497
5.89 0.0212218
5.9 0.0376227
5.91 0.0541794
5.92 0.0706899
5.93 0.0869636
5.94 0.102816
5.95 0.118072
5.96 0.132556
5.97 0.14605
5.98 0.158523
5.99 0.1699
6 0.180134
6.01 0.189207
6.02 0.197136
6.03 0.203887
6.04 0.20958
6.05 0.214362
6.06 0.218353
6.07 0.221683
6.08 0.224495
6.09 0.226929
6.1 0.22912
6.11 0.231235
6.12 0.233388
6.13 0.235676
6.14 0.23817
6.15 0.24092
6.16 0.243962
6.17 0.24728
6.18 0.250815
6.19 0.254499
6.2 0.258237
6.21 0.261916
6.22 0.265404
6.23 0.268505
6.24 0.271091
6.25 0.273014
6.26 0.274129
6.27 0.2743
6.28 0.273407
6.29 0.271285
6.3 0.267833
6.31 0.26308
6.32 0.257008
6.33 0.249627
6.34 0.240974
6.35 0.231112
6.36 0.220021
6.37 0.20793
6.38 0.194982
6.39 0.18132
6.4 0.167092
6.41 0.152452
6.42 0.137548
6.43 0.122539
6.44 0.107577
6.45 0.0927784
6.46 0.0782428
6.47 0.0640507
6.48 0.0502619
6.49 0.036958
6.5 0.0241222
6.51 0.0117364
6.52 -0.000225602
6.53 -0.0118051
6.54 -0.0230557
6.55 -0.0340342
6.56 -0.0448073
6.57 -0.0554669
6.58 -0.0660798
6.59 -0.0767073
6.6 -0.0874013
6.61 -0.0982023
6.62 -0.10915
6.63 -0.120248
6.64 -0.131484
6.65 -0.142833
6.66 -0.154257
6.67 -0.165701
6.68 -0.177097
6.69 -0.188346
6.7 -0.199367
6.71 -0.210067
6.72 -0.220351
6.73 -0.230123
6.74 -0.239291
6.75 -0.24771
6.76 -0.255308
6.77 -0.262046
6.78 -0.267861
6.79 -0.272705
6.8 -0.276537
6.81 -0.279317
6.82 -0.28092
6.83 -0.28145
6.84 -0.280906
6.85 -0.279293
6.86 -0.276621
6.87 -0.272904
6.88 -0.268092
6.89 -0.262209
6.9 -0.255327
6.91 -0.247457
6.92 -0.238608
6.93 -0.228788
6.94 -0.218
6.95 -0.206137
6.96 -0.193306
6.97 -0.179509
6.98 -0.164746
6.99 -0.149021
7 -0.132337
7.01 -0.114657
7.02 -0.0959844
7.03 -0.0764061
7.04 -0.0559534
7.05 -0.0346663
7.06 -0.0125932
7.07 0.0102085
7.08 0.0337332
7.09 0.0578382
7.1 0.0824307
7.11 0.107421
7.12 0.132713
7.13 0.158209
7.14 0.183806
7.15 0.209386
7.16 0.234841
7.17 0.26007
7.18 0.284973
7.19 0.309457
7.2 0.333429
7.21 0.356741
7.22 0.379344
7.23 0.401176
7.24 0.422167
7.25 0.442251
7.26 0.461365
7.27 0.479418
7.28 0.496279
7.29 0.511987
7.3 0.526487
7.31 0.539727
7.32 0.551654
7.33 0.562217
7.34 0.571244
7.35 0.578743
7.36 0.584715
7.37 0.589114
7.38 0.591897
7.39 0.593023
7.4 0.592429
7.41 0.589942
7.42 0.585712
7.43 0.579731
7.44 0.572
7.45 0.56253
7.46 0.551345
7.47 0.538366
7.48 0.523689
7.49 0.507455
7.5 0.489741
7.51 0.470634
7.52 0.450231
7.53 0.428633
7.54 0.405858
7.55 0.382161
7.56 0.357671
7.57 0.332523
7.58 0.306853
7.59 0.280799
7.6 0.254491
7.61 0.228085
7.62 0.201728
7.63 0.175547
7.64 0.149665
7.65 0.124199
7.66 0.0992629
7.67 0.0750431
7.68 0.05158
7.69 0.0289607
7.7 0.0072692
7.71 -0.0134176
7.72 -0.0330296
7.73 -0.0514469
7.74 -0.068581
7.75 -0.0844653
7.76 -0.0990615
7.77 -0.112339
7.78 -0.124277
7.79 -0.134861
7.8 -0.143953
7.81 -0.151674
7.82 -0.158065
7.83 -0.163155
7.84 -0.166981
7.85 -0.169593
7.86 -0.171007
7.87 -0.171255
7.88 -0.170505
7.89 -0.168841
7.9 -0.166353
7.91 -0.163134
7.92 -0.159282
7.93 -0.154855
7.94 -0.149995
7.95 -0.144808
7.96 -0.139382
7.97 -0.1338
7.98 -0.128135
7.99 -0.122454
8 -0.116818
8.01 -0.11127
8.02 -0.105839
8.03 -0.100546
8.04 -0.0953985
8.05 -0.0903976
8.06 -0.0855444
8.07 -0.0808154
8.08 -0.0761847
8.09 -0.0716287
8.1 -0.0671233
8.11 -0.0626456
8.12 -0.0581758
8.13 -0.0536967
8.14 -0.049201
8.15 -0.0446889
8.16 -0.0401689
8.17 -0.0356579
8.18 -0.0311808
8.19 -0.0267776
8.2 -0.022493
8.21 -0.0183694
8.22 -0.0144556
8.23 -0.0108018
8.24 -0.00745721
8.25 -0.00446935
8.26 -0.0019269
8.27 0.000180245
8.28 0.00183029
8.29 0.00301243
8.3 0.00372782
8.31 0.0039902
8.32 0.00380428
8.33 0.00321508
8.34 0.00230138
8.35 0.00112593
8.36 -0.000240897
8.37 -0.00172339
8.38 -0.00324308
8.39 -0.00470863
8.4 -0.0060422
8.41 -0.00717667
8.42 -0.00805388
8.43 -0.00862741
8.44 -0.00886468
8.45 -0.00873252
8.46 -0.00822355
8.47 -0.00738471
8.48 -0.00625437
8.49 -0.00488696
8.5 -0.00335156
8.51 -0.00172994
8.52 -0.000124599
8.53 0.00135355
8.54 0.00260087
8.55 0.00351362
8.56 0.00399177
8.57 0.00394225
8.58 0.00325866
8.59 0.00183038
8.6 -0.000340756
8.61 -0.00328696
8.62 -0.00702166
8.63 -0.0115391
8.64 -0.0168143
8.65 -0.0228612
8.66 -0.0295687
8.67 -0.0368375
8.68 -0.0445778
8.69 -0.0526919
8.7 -0.0610764
8.71 -0.0696279
8.72 -0.0782344
8.73 -0.086786
8.74 -0.0951951
8.75 -0.103386
8.76 -0.111294
8.77 -0.118874
8.78 -0.126063
8.79 -0.132858
8.8 -0.13928
8.81 -0.145346
8.82 -0.151087
8.83 -0.156546
8.84 -0.16177
8.85 -0.166805
8.86 -0.171733
8.87 -0.17661
8.88 -0.181488
8.89 -0.186411
8.9 -0.191417
8.91 -0.196536
8.92 -0.20178
8.93 -0.207138
8.94 -0.212591
8.95 -0.218108
8.96 -0.223646
8.97 -0.229152
8.98 -0.234546
8.99 -0.239764
9 -0.244736
9.01 -0.249391
9.02 -0.253664
9.03 -0.257493
9.04 -0.260797
9.05 -0.263526
9.06 -0.265685
9.07 -0.267264
9.08 -0.268263
9.09 -0.268701
9.1 -0.268608
9.11 -0.26798
9.12 -0.266924
9.13 -0.265511
9.14 -0.263809
9.15 -0.261891
9.16 -0.25983
9.17 -0.257695
9.18 -0.25556
9.19 -0.253482
9.2 -0.251506
9.21 -0.249665
9.22 -0.247979
9.23 -0.246455
9.24 -0.2451
9.25 -0.24388
9.26 -0.24276
9.27 -0.2417
9.28 -0.240652
9.29 -0.239566
9.3 -0.238383
9.31 -0.237037
9.32 -0.235489
9.33 -0.233699
9.34 -0.231635
9.35 -0.229275
9.36 -0.226608
9.37 -0.223611
9.38 -0.220318
9.39 -0.216765
9.4 -0.212992
9.41 -0.209045
9.42 -0.204977
9.43 -0.200844
9.44 -0.196712
9.45 -0.192642
9.46 -0.188684
9.47 -0.184881
9.48 -0.181266
9.49 -0.177858
9.5 -0.17468
9.51 -0.171712
9.52 -0.168918
9.53 -0.166254
9.54 -0.163662
9.55 -0.161072
9.56 -0.1584
9.57 -0.155528
9.58 -0.152368
9.59 -0.148823
9.6 -0.144794
9.61 -0.140189
9.62 -0.134922
9.63 -0.128868
9.64 -0.121965
9.65 -0.114209
9.66 -0.105575
9.67 -0.0960544
9.68 -0.0856561
9.69 -0.074406
9.7 -0.062259
9.71 -0.0493717
9.72 -0.0358168
9.73 -0.021675
9.74 -0.00703289
9.75 0.00801934
9.76 0.0234029
9.77 0.0390206
9.78 0.0547715
9.79 0.0705827
9.8 0.0863911
9.81 0.102144
9.82 0.117802
9.83 0.133319
9.84 0.148692
9.85 0.163915
9.86 0.178993
9.87 0.193934
9.88 0.208752
9.89 0.223458
9.9 0.238063
9.91 0.252582
9.92 0.267016
9.93 0.281357
9.94 0.295586
9.95 0.309672
9.96 0.32355
9.97 0.33717
9.98 0.350465
9.99 0.363357
10 0.375757
10.01 0.387573
10.02 0.398685
10.03 0.408941
10.04 0.41831
10.05 0.426712
10.06 0.434075
10.07 0.440343
10.08 0.445474
10.09 0.449354
10.1 0.452038
10.11 0.453594
10.12 0.454069
10.13 0.453532
10.14 0.45207
10.15 0.449775
10.16 0.446726
10.17 0.443134
10.18 0.43914
10.19 0.434885
10.2 0.43051
10.21 0.426151
10.22 0.421951
10.23 0.418036
10.24 0.414488
10.25 0.411384
10.26 0.408774
10.27 0.40669
10.28 0.405144
10.29 0.404171
10.3 0.403671
10.31 0.403585
10.32 0.403837
10.33 0.404336
10.34 0.404983
10.35 0.405665
10.36 0.406254
10.37 0.406638
10.38 0.40671
10.39 0.406371
10.4 0.405531
10.41 0.404113
10.42 0.401974
10.43 0.399133
10.44 0.395561
10.45 0.391243
10.46 0.386176
10.47 0.38037
10.48 0.373813
10.49 0.366528
10.5 0.358601
10.51 0.350075
10.52 0.340991
10.53 0.331393
10.54 0.321321
10.55 0.310768
10.56 0.299805
10.57 0.288459
10.58 0.276747
10.59 0.264676
10.6 0.252249
10.61 0.239449
10.62 0.226253
10.63 0.212681
10.64 0.198724
10.65 0.184375
10.66 0.16963
10.67 0.154491
10.68 0.138932
10.69 0.122998
10.7 0.106726
10.71 0.0901512
10.72 0.0733193
10.73 0.0562826
10.74 0.0390995
10.75 0.0218403
10.76 0.00458794
10.77 -0.0125851
10.78 -0.0296071
10.79 -0.0464088
10.8 -0.0629264
10.81 -0.0790714
10.82 -0.0948059
10.83 -0.110108
10.84 -0.124956
10.85 -0.13934
10.86 -0.153261
10.87 -0.166729
10.88 -0.179739
10.89 -0.192375
10.9 -0.204684
10.91 -0.21672
10.92 -0.22854
10.93 -0.240202
10.94 -0.251759
10.95 -0.263271
10.96 -0.274787
10.97 -0.286341
10.98 -0.297956
10.99 -0.309642
11 -0.321398
11.01 -0.333209
11.02 -0.345034
11.03 -0.356825
11.04 -0.368526
11.05 -0.380068
11.06 -0.391374
11.07 -0.40234
11.08 -0.412866
11.09 -0.422887
11.1 -0.43232
11.11 -0.441086
11.12 -0.449115
11.13 -0.456346
11.14 -0.462628
11.15 -0.46801
11.16 -0.472473
11.17 -0.476006
11.18 -0.478611
11.19 -0.480299
11.2 -0.481053
11.21 -0.480889
11.22 -0.479909
11.23 -0.478155
11.24 -0.475674
11.25 -0.47251
11.26 -0.468708
11.27 -0.46425
11.28 -0.459224
11.29 -0.453667
11.3 -0.447597
11.31 -0.441028
11.32 -0.433964
11.33 -0.426385
11.34 -0.418259
11.35 -0.409613
11.36 -0.400432
11.37 -0.390699
11.38 -0.380399
11.39 -0.369519
11.4 -0.357999
11.41 -0.345873
11.42 -0.333165
11.43 -0.319892
11.44 -0.30608
11.45 -0.291764
11.46 -0.276978
11.47 -0.261758
11.48 -0.246207
11.49 -0.230397
11.5 -0.214401
11.51 -0.198296
11.52 -0.182161
11.53 -0.166082
11.54 -0.15014
11.55 -0.134403
11.56 -0.118929
11.57 -0.103773
11.58 -0.0889777
11.59 -0.074584
11.6 -0.0606565
11.61 -0.0471664
11.62 -0.0341178
11.63 -0.0215072
11.64 -0.00932515
11.65 0.00244289
11.66 0.0137895
11.67 0.0247422
11.68 0.0353388
11.69 0.0455946
11.7 0.0555207
11.71 0.065123
11.72 0.0744006
11.73 0.0833077
11.74 0.091866
11.75 0.100053
11.76 0.107842
11.77 0.1152
11.78 0.122092
11.79 0.12845
11.8 0.134228
11.81 0.139423
11.82 0.144006
11.83 0.147953
11.84 0.151248
11.85 0.153885
11.86 0.155796
11.87 0.157063
11.88 0.157719
11.89 0.1578
11.9 0.157353
11.91 0.15643
11.92 0.155075
11.93 0.15335
11.94 0.151349
11.95 0.149133
11.96 0.146762
11.97 0.144284
11.98 0.141743
11.99 0.139165
12 0.13657
12.01 0.133956
12.02 0.131306
12.03 0.128585
12.04 0.125748
12.05 0.122722
12.06 0.119408
12.07 0.115736
12.08 0.111612
12.09 0.106939
12.1 0.101617
12.11 0.0955534
12.12 0.08858
12.13 0.080656
12.14 0.0717459
12.15 0.0618042
12.16 0.0508045
12.17 0.0387403
12.18 0.025605
