# xPDFsuite Configuration #
[PDF]
wavelength = 0.1
dataformat = QA
inputfile = BiMsol6_insitu_700 C-00047.xy
backgroundfile = Quartz2mm-dist500-00000.xy
mode = xray
bgscale = 0.0042
composition = Bi2Fe4O9
outputtype = gr
qmaxinst = 24.998449118
qmin = 0.1
qmax = 21.4986662415
rmax = 80.0
rmin = 0.0
rstep = 0.01
rpoly = 0.9

[Misc]
inputdir = C:/Data/Seafile/CPH/Beamtime/Desy Oct 20/In situ data/Processed/BiMsol6/PDF
savedir = C:/Data/Seafile/CPH/Beamtime/Desy Oct 20/In situ data/PDF/BiMsol6
backgroundfilefull = C:/Data/Seafile/CPH/Beamtime/Desy Oct 20/In situ data/Processed/Standard_Empty_Cap/Quartz2mm-dist500-00000.xy

#### start data
#S 1
#L r($\AA$)  G($\AA^{-2}$)
0 0
0.01 0.00707405
0.02 0.0137568
0.03 0.0197132
0.04 0.0246422
0.05 0.0282909
0.06 0.0304655
0.07 0.0309536
0.08 0.0296911
0.09 0.0268302
0.1 0.0224953
0.11 0.0168807
0.12 0.0102422
0.13 0.00288614
0.14 -0.00484541
0.15 -0.0125141
0.16 -0.0197509
0.17 -0.0262088
0.18 -0.0315753
0.19 -0.0355872
0.2 -0.0379735
0.21 -0.038545
0.22 -0.037398
0.23 -0.0345948
0.24 -0.0302812
0.25 -0.0246817
0.26 -0.0180913
0.27 -0.0108413
0.28 -0.0034259
0.29 0.00371585
0.3 0.0101572
0.31 0.0154907
0.32 0.0193475
0.33 0.0213536
0.34 0.0211407
0.35 0.0187481
0.36 0.0141596
0.37 0.00746767
0.38 -0.00112418
0.39 -0.0113048
0.4 -0.0227176
0.41 -0.0347251
0.42 -0.0467003
0.43 -0.0580069
0.44 -0.0679851
0.45 -0.0759764
0.46 -0.0812853
0.47 -0.0830206
0.48 -0.0809747
0.49 -0.0747813
0.5 -0.0642002
0.51 -0.0491324
0.52 -0.0296301
0.53 -0.00562283
0.54 0.0223265
0.55 0.0534751
0.56 0.0871312
0.57 0.122486
0.58 0.158636
0.59 0.194597
0.6 0.229114
0.61 0.261211
0.62 0.289906
0.63 0.31428
0.64 0.333514
0.65 0.346906
0.66 0.353486
0.67 0.352874
0.68 0.345275
0.69 0.330722
0.7 0.309441
0.71 0.281837
0.72 0.248492
0.73 0.209669
0.74 0.166902
0.75 0.121204
0.76 0.0736406
0.77 0.0253138
0.78 -0.0226736
0.79 -0.0691251
0.8 -0.112856
0.81 -0.15309
0.82 -0.189071
0.83 -0.22019
0.84 -0.245999
0.85 -0.266222
0.86 -0.28018
0.87 -0.288497
0.88 -0.291534
0.89 -0.289723
0.9 -0.283622
0.91 -0.273898
0.92 -0.261215
0.93 -0.24641
0.94 -0.230515
0.95 -0.214337
0.96 -0.198641
0.97 -0.184125
0.98 -0.171398
0.99 -0.161216
1 -0.15383
1.01 -0.149406
1.02 -0.148032
1.03 -0.149675
1.04 -0.154175
1.05 -0.161332
1.06 -0.170861
1.07 -0.18209
1.08 -0.194521
1.09 -0.207633
1.1 -0.220903
1.11 -0.233827
1.12 -0.245839
1.13 -0.256528
1.14 -0.265613
1.15 -0.272865
1.16 -0.278149
1.17 -0.281426
1.18 -0.282716
1.19 -0.282034
1.2 -0.27981
1.21 -0.276339
1.22 -0.271962
1.23 -0.267049
1.24 -0.261977
1.25 -0.257158
1.26 -0.252978
1.27 -0.249713
1.28 -0.247596
1.29 -0.246791
1.3 -0.247387
1.31 -0.249401
1.32 -0.252888
1.33 -0.257527
1.34 -0.263089
1.35 -0.26929
1.36 -0.275805
1.37 -0.282283
1.38 -0.288317
1.39 -0.293504
1.4 -0.297548
1.41 -0.300174
1.42 -0.301161
1.43 -0.30036
1.44 -0.297693
1.45 -0.292968
1.46 -0.286495
1.47 -0.278475
1.48 -0.269167
1.49 -0.258896
1.5 -0.248034
1.51 -0.237004
1.52 -0.226302
1.53 -0.216363
1.54 -0.207589
1.55 -0.200346
1.56 -0.194942
1.57 -0.191621
1.58 -0.190778
1.59 -0.192287
1.6 -0.196067
1.61 -0.201978
1.62 -0.209794
1.63 -0.219202
1.64 -0.229844
1.65 -0.241243
1.66 -0.252811
1.67 -0.264031
1.68 -0.274387
1.69 -0.283379
1.7 -0.290542
1.71 -0.295235
1.72 -0.297229
1.73 -0.296353
1.74 -0.292466
1.75 -0.28553
1.76 -0.275605
1.77 -0.262787
1.78 -0.247208
1.79 -0.229485
1.8 -0.210046
1.81 -0.189374
1.82 -0.167986
1.83 -0.146416
1.84 -0.125263
1.85 -0.105085
1.86 -0.0863198
1.87 -0.0693596
1.88 -0.0545236
1.89 -0.0420453
1.9 -0.0321036
1.91 -0.02496
1.92 -0.0202792
1.93 -0.0178931
1.94 -0.0175516
1.95 -0.0189335
1.96 -0.0216601
1.97 -0.0253428
1.98 -0.0294551
1.99 -0.033508
2 -0.0370742
2.01 -0.0397624
2.02 -0.0412335
2.03 -0.0412085
2.04 -0.0392937
2.05 -0.0355798
2.06 -0.0300739
2.07 -0.0228751
2.08 -0.014171
2.09 -0.00423095
2.1 0.00663016
2.11 0.0179432
2.12 0.029203
2.13 0.0399323
2.14 0.0496497
2.15 0.0578873
2.16 0.0642085
2.17 0.0679359
2.18 0.0689615
2.19 0.0670763
2.2 0.0621419
2.21 0.0541131
2.22 0.0430413
2.23 0.0289526
2.24 0.0120629
2.25 -0.00708027
2.26 -0.0280658
2.27 -0.0504271
2.28 -0.0736576
2.29 -0.0972272
2.3 -0.120528
2.31 -0.142999
2.32 -0.16416
2.33 -0.183577
2.34 -0.200877
2.35 -0.21576
2.36 -0.227913
2.37 -0.237067
2.38 -0.243424
2.39 -0.247057
2.4 -0.24812
2.41 -0.246842
2.42 -0.243519
2.43 -0.238386
2.44 -0.231984
2.45 -0.224781
2.46 -0.217202
2.47 -0.209663
2.48 -0.202557
2.49 -0.196269
2.5 -0.191219
2.51 -0.187565
2.52 -0.185478
2.53 -0.185062
2.54 -0.186353
2.55 -0.189316
2.56 -0.193961
2.57 -0.200048
2.58 -0.207295
2.59 -0.215446
2.6 -0.224221
2.61 -0.233322
2.62 -0.242447
2.63 -0.251243
2.64 -0.259447
2.65 -0.266822
2.66 -0.273167
2.67 -0.278328
2.68 -0.282194
2.69 -0.284616
2.7 -0.285608
2.71 -0.285288
2.72 -0.283746
2.73 -0.281108
2.74 -0.27753
2.75 -0.273188
2.76 -0.268229
2.77 -0.262934
2.78 -0.257493
2.79 -0.252082
2.8 -0.24686
2.81 -0.241959
2.82 -0.237511
2.83 -0.233599
2.84 -0.230224
2.85 -0.227384
2.86 -0.225045
2.87 -0.223146
2.88 -0.221603
2.89 -0.220329
2.9 -0.219169
2.91 -0.217999
2.92 -0.216696
2.93 -0.215147
2.94 -0.213246
2.95 -0.210885
2.96 -0.207972
2.97 -0.2045
2.98 -0.200453
2.99 -0.195837
3 -0.190679
3.01 -0.185027
3.02 -0.178912
3.03 -0.172453
3.04 -0.165746
3.05 -0.15888
3.06 -0.151942
3.07 -0.145014
3.08 -0.138169
3.09 -0.131475
3.1 -0.12496
3.11 -0.118637
3.12 -0.1125
3.13 -0.106526
3.14 -0.100669
3.15 -0.0948681
3.16 -0.089033
3.17 -0.0830744
3.18 -0.0768988
3.19 -0.0704104
3.2 -0.0635161
3.21 -0.056117
3.22 -0.0480845
3.23 -0.039408
3.24 -0.0300438
3.25 -0.0199663
3.26 -0.00916836
3.27 0.00233851
3.28 0.0145717
3.29 0.027456
3.3 0.0408998
3.31 0.05483
3.32 0.0691671
3.33 0.0838282
3.34 0.0987323
3.35 0.113808
3.36 0.128961
3.37 0.144132
3.38 0.159277
3.39 0.174361
3.4 0.189366
3.41 0.204282
3.42 0.219123
3.43 0.233914
3.44 0.248686
3.45 0.263475
3.46 0.278316
3.47 0.293244
3.48 0.308304
3.49 0.323502
3.5 0.33884
3.51 0.354304
3.52 0.369864
3.53 0.385469
3.54 0.40104
3.55 0.416471
3.56 0.431648
3.57 0.446443
3.58 0.460713
3.59 0.474306
3.6 0.487066
3.61 0.498715
3.62 0.509174
3.63 0.518315
3.64 0.526008
3.65 0.532143
3.66 0.53663
3.67 0.539334
3.68 0.540152
3.69 0.539211
3.7 0.536536
3.71 0.532179
3.72 0.526215
3.73 0.518744
3.74 0.509771
3.75 0.499546
3.76 0.488252
3.77 0.47605
3.78 0.463098
3.79 0.449558
3.8 0.435575
3.81 0.421295
3.82 0.406883
3.83 0.392453
3.84 0.378103
3.85 0.363913
3.86 0.349945
3.87 0.336269
3.88 0.322902
3.89 0.309845
3.9 0.297099
3.91 0.284652
3.92 0.272488
3.93 0.260591
3.94 0.248957
3.95 0.237537
3.96 0.226316
3.97 0.21528
3.98 0.204423
3.99 0.193744
4 0.183263
4.01 0.172989
4.02 0.162931
4.03 0.153109
4.04 0.143545
4.05 0.134261
4.06 0.125277
4.07 0.116643
4.08 0.108333
4.09 0.100349
4.1 0.0926821
4.11 0.0853169
4.12 0.0782291
4.13 0.0713982
4.14 0.0647769
4.15 0.058305
4.16 0.0519328
4.17 0.0456094
4.18 0.0392853
4.19 0.0329143
4.2 0.026443
4.21 0.0198478
4.22 0.0131107
4.23 0.00622532
4.24 -0.000801782
4.25 -0.00795043
4.26 -0.015189
4.27 -0.0224636
4.28 -0.0297084
4.29 -0.0368544
4.3 -0.0438264
4.31 -0.0505459
4.32 -0.0569338
4.33 -0.062865
4.34 -0.0682992
4.35 -0.073185
4.36 -0.0774775
4.37 -0.0811468
4.38 -0.08418
4.39 -0.086559
4.4 -0.0882882
4.41 -0.0894638
4.42 -0.0901491
4.43 -0.0904221
4.44 -0.0903732
4.45 -0.0901024
4.46 -0.0897147
4.47 -0.0893384
4.48 -0.0890808
4.49 -0.0890398
4.5 -0.0893026
4.51 -0.0899426
4.52 -0.0910292
4.53 -0.0926318
4.54 -0.0947212
4.55 -0.0972865
4.56 -0.100295
4.57 -0.103695
4.58 -0.107415
4.59 -0.111376
4.6 -0.115455
4.61 -0.119531
4.62 -0.123489
4.63 -0.127214
4.64 -0.130594
4.65 -0.133519
4.66 -0.135846
4.67 -0.137552
4.68 -0.138589
4.69 -0.13893
4.7 -0.138572
4.71 -0.137532
4.72 -0.135812
4.73 -0.1335
4.74 -0.130714
4.75 -0.127556
4.76 -0.124138
4.77 -0.120583
4.78 -0.117017
4.79 -0.113591
4.8 -0.110422
4.81 -0.10762
4.82 -0.105277
4.83 -0.103474
4.84 -0.102269
4.85 -0.10174
4.86 -0.101905
4.87 -0.102717
4.88 -0.104145
4.89 -0.10614
4.9 -0.108636
4.91 -0.111555
4.92 -0.114831
4.93 -0.118322
4.94 -0.121924
4.95 -0.125537
4.96 -0.129065
4.97 -0.132422
4.98 -0.135515
4.99 -0.138265
5 -0.140646
5.01 -0.14263
5.02 -0.144202
5.03 -0.145367
5.04 -0.146141
5.05 -0.146523
5.06 -0.146591
5.07 -0.146405
5.08 -0.14602
5.09 -0.145498
5.1 -0.144899
5.11 -0.144279
5.12 -0.1437
5.13 -0.143203
5.14 -0.142822
5.15 -0.142578
5.16 -0.142484
5.17 -0.142539
5.18 -0.142746
5.19 -0.143074
5.2 -0.143489
5.21 -0.143959
5.22 -0.144444
5.23 -0.144907
5.24 -0.145305
5.25 -0.145592
5.26 -0.145742
5.27 -0.145733
5.28 -0.145545
5.29 -0.145171
5.3 -0.14461
5.31 -0.143854
5.32 -0.142927
5.33 -0.14186
5.34 -0.140679
5.35 -0.139412
5.36 -0.138091
5.37 -0.136745
5.38 -0.135405
5.39 -0.134095
5.4 -0.13283
5.41 -0.131618
5.42 -0.130461
5.43 -0.12935
5.44 -0.12827
5.45 -0.127193
5.46 -0.126087
5.47 -0.124916
5.48 -0.12364
5.49 -0.122219
5.5 -0.120613
5.51 -0.118759
5.52 -0.116648
5.53 -0.114259
5.54 -0.11158
5.55 -0.108607
5.56 -0.105349
5.57 -0.101813
5.58 -0.0980324
5.59 -0.0940673
5.6 -0.0899688
5.61 -0.085795
5.62 -0.0816084
5.63 -0.0774735
5.64 -0.073474
5.65 -0.0696644
5.66 -0.0660969
5.67 -0.0628158
5.68 -0.0598545
5.69 -0.0572338
5.7 -0.0549756
5.71 -0.0530788
5.72 -0.0514917
5.73 -0.0501744
5.74 -0.049074
5.75 -0.0481274
5.76 -0.0472625
5.77 -0.0463942
5.78 -0.0454325
5.79 -0.0442983
5.8 -0.0429169
5.81 -0.0412212
5.82 -0.0391548
5.83 -0.0366595
5.84 -0.0336828
5.85 -0.0302532
5.86 -0.026381
5.87 -0.0220944
5.88 -0.0174379
5.89 -0.0124716
5.9 -0.00725574
5.91 -0.00189935
5.92 0.00349768
5.93 0.00883944
5.94 0.0140307
5.95 0.0189805
5.96 0.0235972
5.97 0.0277729
5.98 0.0314874
5.99 0.0347056
6 0.0374117
6.01 0.0396099
6.02 0.0413248
6.03 0.0425726
6.04 0.0434417
6.05 0.0440333
6.06 0.0444426
6.07 0.0447739
6.08 0.0451366
6.09 0.0456442
6.1 0.0464401
6.11 0.0476042
6.12 0.0492208
6.13 0.0513588
6.14 0.0540676
6.15 0.057376
6.16 0.0613271
6.17 0.0658903
6.18 0.0709862
6.19 0.0765455
6.2 0.0824792
6.21 0.0886813
6.22 0.0950322
6.23 0.101389
6.24 0.107601
6.25 0.113534
6.26 0.119057
6.27 0.124051
6.28 0.128408
6.29 0.131996
6.3 0.13473
6.31 0.136618
6.32 0.137643
6.33 0.137816
6.34 0.13717
6.35 0.135762
6.36 0.13361
6.37 0.130888
6.38 0.127719
6.39 0.12423
6.4 0.12055
6.41 0.116813
6.42 0.113157
6.43 0.109724
6.44 0.106615
6.45 0.10392
6.46 0.10171
6.47 0.100036
6.48 0.0989256
6.49 0.0984386
6.5 0.0985113
6.51 0.0990879
6.52 0.100107
6.53 0.101491
6.54 0.103149
6.55 0.104983
6.56 0.106876
6.57 0.10871
6.58 0.110378
6.59 0.111786
6.6 0.112846
6.61 0.113486
6.62 0.113603
6.63 0.113178
6.64 0.11221
6.65 0.1107
6.66 0.108666
6.67 0.106142
6.68 0.103173
6.69 0.0998005
6.7 0.0961422
6.71 0.0922796
6.72 0.0882977
6.73 0.0842814
6.74 0.0803128
6.75 0.0764825
6.76 0.0728632
6.77 0.0695035
6.78 0.0664459
6.79 0.0637193
6.8 0.0613392
6.81 0.0593101
6.82 0.0576514
6.83 0.0562989
6.84 0.0552163
6.85 0.054359
6.86 0.0536767
6.87 0.0531152
6.88 0.0526197
6.89 0.0521274
6.9 0.0515847
6.91 0.050947
6.92 0.0501766
6.93 0.0492436
6.94 0.0481275
6.95 0.0467942
6.96 0.0452649
6.97 0.0435491
6.98 0.0416636
6.99 0.0396318
7 0.0374822
7.01 0.0352446
7.02 0.0329576
7.03 0.0306609
7.04 0.0283869
7.05 0.026165
7.06 0.02402
7.07 0.0219711
7.08 0.0200434
7.09 0.0182331
7.1 0.0165363
7.11 0.0149446
7.12 0.0134436
7.13 0.012014
7.14 0.0106332
7.15 0.00927235
7.16 0.00790057
7.17 0.00649095
7.18 0.00501841
7.19 0.00346095
7.2 0.00180084
7.21 1.42908e-05
7.22 -0.00189708
7.23 -0.00392859
7.24 -0.00607174
7.25 -0.00831142
7.26 -0.0106263
7.27 -0.0129897
7.28 -0.0153661
7.29 -0.0177153
7.3 -0.0199984
7.31 -0.0221758
7.32 -0.0242082
7.33 -0.0260578
7.34 -0.0276693
7.35 -0.0290184
7.36 -0.0300887
7.37 -0.0308618
7.38 -0.031326
7.39 -0.0314765
7.4 -0.0313107
7.41 -0.0308152
7.42 -0.0300397
7.43 -0.0290088
7.44 -0.027753
7.45 -0.0263076
7.46 -0.0247122
7.47 -0.0230051
7.48 -0.0212401
7.49 -0.019468
7.5 -0.0177345
7.51 -0.0160842
7.52 -0.0145599
7.53 -0.0132025
7.54 -0.0120734
7.55 -0.0111841
7.56 -0.0105603
7.57 -0.0102228
7.58 -0.0101863
7.59 -0.0104602
7.6 -0.0110661
7.61 -0.0119998
7.62 -0.0132331
7.63 -0.0147502
7.64 -0.0165304
7.65 -0.0185478
7.66 -0.0207719
7.67 -0.0231833
7.68 -0.0257215
7.69 -0.0283443
7.7 -0.0310087
7.71 -0.0336706
7.72 -0.0362857
7.73 -0.0388042
7.74 -0.0411756
7.75 -0.0433685
7.76 -0.0453486
7.77 -0.0470865
7.78 -0.0485581
7.79 -0.0497456
7.8 -0.0506084
7.81 -0.0511688
7.82 -0.051438
7.83 -0.0514299
7.84 -0.0511659
7.85 -0.050674
7.86 -0.0499836
7.87 -0.049134
7.88 -0.0481855
7.89 -0.0471857
7.9 -0.0461835
7.91 -0.0452268
7.92 -0.0443619
7.93 -0.043646
7.94 -0.0431109
7.95 -0.0427803
7.96 -0.0426732
7.97 -0.0427992
7.98 -0.0431576
7.99 -0.0437425
8 -0.0445412
8.01 -0.0454992
8.02 -0.0465732
8.03 -0.0477123
8.04 -0.0488596
8.05 -0.049954
8.06 -0.0509181
8.07 -0.0516861
8.08 -0.0522041
8.09 -0.0524195
8.1 -0.0522881
8.11 -0.0517757
8.12 -0.0508547
8.13 -0.0494812
8.14 -0.0477077
8.15 -0.0455599
8.16 -0.0430786
8.17 -0.0403187
8.18 -0.0373483
8.19 -0.0342437
8.2 -0.0311093
8.21 -0.0280463
8.22 -0.0251519
8.23 -0.0225221
8.24 -0.0202486
8.25 -0.0184164
8.26 -0.0171612
8.27 -0.0164845
8.28 -0.0164225
8.29 -0.0169916
8.3 -0.0181878
8.31 -0.0199859
8.32 -0.0223666
8.33 -0.0252515
8.34 -0.0285167
8.35 -0.032056
8.36 -0.03575
8.37 -0.0394704
8.38 -0.0430836
8.39 -0.0464141
8.4 -0.0493433
8.41 -0.051753
8.42 -0.0535358
8.43 -0.0546013
8.44 -0.0548794
8.45 -0.0542835
8.46 -0.0527687
8.47 -0.0504056
8.48 -0.0472307
8.49 -0.043305
8.5 -0.0387133
8.51 -0.033561
8.52 -0.0279418
8.53 -0.0220446
8.54 -0.016025
8.55 -0.0100337
8.56 -0.00421987
8.57 0.00127409
8.58 0.00629732
8.59 0.0106933
8.6 0.0144113
8.61 0.0173843
8.62 0.019571
8.63 0.0209563
8.64 0.0215522
8.65 0.0213368
8.66 0.0204281
8.67 0.018939
8.68 0.016978
8.69 0.0146679
8.7 0.0121406
8.71 0.00953471
8.72 0.00700811
8.73 0.00469513
8.74 0.0027138
8.75 0.00116686
8.76 0.00013824
8.77 -0.00030977
8.78 -9.04222e-05
8.79 0.00078563
8.8 0.00227439
8.81 0.00433337
8.82 0.00689788
8.83 0.00988368
8.84 0.0131927
8.85 0.0167163
8.86 0.0203009
8.87 0.0238227
8.88 0.0271604
8.89 0.0302006
8.9 0.0328411
8.91 0.034959
8.92 0.036486
8.93 0.0374075
8.94 0.0377058
8.95 0.0373871
8.96 0.0364805
8.97 0.0350367
8.98 0.0330832
8.99 0.0307732
9 0.028211
9.01 0.0255095
9.02 0.0227851
9.03 0.020154
9.04 0.0177443
9.05 0.0156745
9.06 0.014015
9.07 0.0128331
9.08 0.0121766
9.09 0.0120714
9.1 0.0125216
9.11 0.0135619
9.12 0.0150926
9.13 0.0170433
9.14 0.0193332
9.15 0.0218678
9.16 0.0245431
9.17 0.0272461
9.18 0.0298478
9.19 0.0322415
9.2 0.0343295
9.21 0.0360265
9.22 0.0372623
9.23 0.0379844
9.24 0.0381069
9.25 0.0376615
9.26 0.0366754
9.27 0.0351844
9.28 0.0332432
9.29 0.0309232
9.3 0.0283032
9.31 0.0254822
9.32 0.022587
9.33 0.019722
9.34 0.0169891
9.35 0.0144836
9.36 0.0122905
9.37 0.0105191
9.38 0.00920898
9.39 0.00837978
9.4 0.00804444
9.41 0.00819609
9.42 0.00880858
9.43 0.00984494
9.44 0.0112621
9.45 0.0129437
9.46 0.0148029
9.47 0.0167473
9.48 0.0186821
9.49 0.020514
9.5 0.0221348
9.51 0.0234621
9.52 0.0244411
9.53 0.0250234
9.54 0.0251774
9.55 0.0248894
9.56 0.0241603
9.57 0.022977
9.58 0.0214306
9.59 0.0195798
9.6 0.0174954
9.61 0.0152572
9.62 0.0129508
9.63 0.0106714
9.64 0.00851776
9.65 0.00656807
9.66 0.00489306
9.67 0.00355161
9.68 0.00258842
9.69 0.00203226
9.7 0.00194251
9.71 0.00226162
9.72 0.00296135
9.73 0.00399841
9.74 0.00531563
9.75 0.00684432
9.76 0.00850951
9.77 0.0102161
9.78 0.0118715
9.79 0.0133933
9.8 0.0147055
9.81 0.0157406
9.82 0.0164433
9.83 0.0167307
9.84 0.0166127
9.85 0.0160907
9.86 0.0151793
9.87 0.0139101
9.88 0.0123304
9.89 0.0104955
9.9 0.00848458
9.91 0.00640088
9.92 0.0043342
9.93 0.00237588
9.94 0.000615262
9.95 -0.000863769
9.96 -0.0019467
9.97 -0.00259004
9.98 -0.00275765
9.99 -0.0024214
10 -0.00157097
10.01 -0.000214416
10.02 0.00163464
10.03 0.0039499
10.04 0.00662607
10.05 0.00958635
10.06 0.0127436
10.07 0.0160031
10.08 0.0192664
10.09 0.0224182
10.1 0.0253551
10.11 0.0279931
10.12 0.0302544
10.13 0.0320741
10.14 0.0334019
10.15 0.034194
10.16 0.0343902
10.17 0.0340488
10.18 0.0331928
10.19 0.031861
10.2 0.0301063
10.21 0.0279939
10.22 0.0255845
10.23 0.0229789
10.24 0.020275
10.25 0.0175581
10.26 0.01491
10.27 0.0124066
10.28 0.010117
10.29 0.00813062
10.3 0.00646325
10.31 0.00514148
10.32 0.00417773
10.33 0.00357029
10.34 0.00330397
10.35 0.00336754
10.36 0.00371411
10.37 0.00427659
10.38 0.00499944
10.39 0.00582349
10.4 0.00668834
10.41 0.00753482
10.42 0.00829311
10.43 0.00891771
10.44 0.00936843
10.45 0.00961381
10.46 0.00963221
10.47 0.00941233
10.48 0.00894185
10.49 0.00822785
10.5 0.00730669
10.51 0.00620582
10.52 0.0049585
10.53 0.00360214
10.54 0.00217643
10.55 0.000722536
10.56 -0.000714587
10.57 -0.00210002
10.58 -0.00340412
10.59 -0.00460319
10.6 -0.00568035
10.61 -0.00662078
10.62 -0.00741722
10.63 -0.00808661
10.64 -0.00864149
10.65 -0.00909952
10.66 -0.00948225
10.67 -0.00981375
10.68 -0.010119
10.69 -0.0104269
10.7 -0.0107596
10.71 -0.011135
10.72 -0.0115662
10.73 -0.0120605
10.74 -0.0126205
10.75 -0.0132426
10.76 -0.0139075
10.77 -0.0145956
10.78 -0.0152825
10.79 -0.0159401
10.8 -0.0165376
10.81 -0.0170334
10.82 -0.0173969
10.83 -0.017604
10.84 -0.0176315
10.85 -0.0174621
10.86 -0.0170854
10.87 -0.016496
10.88 -0.0156847
10.89 -0.0146905
10.9 -0.0135397
10.91 -0.0122668
10.92 -0.0109135
10.93 -0.00952698
10.94 -0.00816403
10.95 -0.00688614
10.96 -0.005746
10.97 -0.00479521
10.98 -0.00408092
10.99 -0.00364385
11 -0.00351806
11.01 -0.00376365
11.02 -0.00435362
11.03 -0.00528447
11.04 -0.00654041
11.05 -0.00809351
11.06 -0.00990424
11.07 -0.0119309
11.08 -0.0141039
11.09 -0.0163432
11.1 -0.0185759
11.11 -0.0207267
11.12 -0.0227207
11.13 -0.0244855
11.14 -0.0259142
11.15 -0.0269735
11.16 -0.0276181
11.17 -0.0278121
11.18 -0.0275324
11.19 -0.0267698
11.2 -0.0255079
11.21 -0.0237595
11.22 -0.0215942
11.23 -0.01906
11.24 -0.0162157
11.25 -0.0131287
11.26 -0.00987282
11.27 -0.00652553
11.28 -0.00318309
11.29 7.43271e-05
11.3 0.0031718
11.31 0.00604038
11.32 0.00861905
11.33 0.0108429
11.34 0.0126497
11.35 0.0140432
11.36 0.0150106
11.37 0.015552
11.38 0.015679
11.39 0.0154148
11.4 0.0147644
11.41 0.0137971
11.42 0.012573
11.43 0.0111464
11.44 0.00957377
11.45 0.00791237
11.46 0.00621841
11.47 0.00455207
11.48 0.00296164
11.49 0.00148695
11.5 0.00016051
11.51 -0.000993009
11.52 -0.00195712
11.53 -0.00270813
11.54 -0.00325408
11.55 -0.0036113
11.56 -0.00379424
11.57 -0.00382221
11.58 -0.00371828
11.59 -0.00350687
11.6 -0.00321068
11.61 -0.00286644
11.62 -0.0024988
11.63 -0.0021298
11.64 -0.00177822
11.65 -0.00145894
11.66 -0.00118591
11.67 -0.00096503
11.68 -0.00079504
11.69 -0.000673178
11.7 -0.000593465
11.71 -0.000547389
11.72 -0.000524686
11.73 -0.000514146
11.74 -0.000502131
11.75 -0.000478366
11.76 -0.000434196
11.77 -0.00036315
11.78 -0.000261361
11.79 -0.000126191
11.8 3.98775e-05
11.81 0.000229359
11.82 0.000434311
11.83 0.000644841
