# xPDFsuite Configuration #
[PDF]
wavelength = 0.1
dataformat = QA
inputfile = BiMsol6_insitu_700 C-00375.xy
backgroundfile = Quartz2mm-dist500-00000.xy
mode = xray
bgscale = 0.0042
composition = Bi2Fe4O9
outputtype = gr
qmaxinst = 24.998449118
qmin = 0.1
qmax = 21.4986662415
rmax = 80.0
rmin = 0.0
rstep = 0.01
rpoly = 0.9

[Misc]
inputdir = C:/Data/Seafile/CPH/Beamtime/Desy Oct 20/In situ data/Processed/BiMsol6/PDF
savedir = C:/Data/Seafile/CPH/Beamtime/Desy Oct 20/In situ data/PDF/BiMsol6
backgroundfilefull = C:/Data/Seafile/CPH/Beamtime/Desy Oct 20/In situ data/Processed/Standard_Empty_Cap/Quartz2mm-dist500-00000.xy

#### start data
#S 1
#L r($\AA$)  G($\AA^{-2}$)
0 0
0.01 0.00658903
0.02 0.0128055
0.03 0.0183308
0.04 0.0228787
0.05 0.0262095
0.06 0.0281402
0.07 0.0284712
0.08 0.0271448
0.09 0.0243089
0.1 0.0200855
0.11 0.0146635
0.12 0.00829045
0.13 0.00126135
0.14 -0.00609166
0.15 -0.013352
0.16 -0.0201681
0.17 -0.0262102
0.18 -0.0311834
0.19 -0.0348413
0.2 -0.0369314
0.21 -0.0372824
0.22 -0.0359974
0.23 -0.033147
0.24 -0.0288825
0.25 -0.023431
0.26 -0.0170867
0.27 -0.0101853
0.28 -0.00320615
0.29 0.00342395
0.3 0.00929083
0.31 0.0140013
0.32 0.0172026
0.33 0.0185377
0.34 0.0176583
0.35 0.0146223
0.36 0.00943025
0.37 0.00219099
0.38 -0.00687735
0.39 -0.0174503
0.4 -0.029151
0.41 -0.0413363
0.42 -0.0533754
0.43 -0.0646271
0.44 -0.0744285
0.45 -0.0821199
0.46 -0.087004
0.47 -0.0881827
0.48 -0.0854642
0.49 -0.0784869
0.5 -0.0670164
0.51 -0.0509603
0.52 -0.0303779
0.53 -0.00520126
0.54 0.0239948
0.55 0.056455
0.56 0.0914779
0.57 0.128245
0.58 0.165841
0.59 0.203272
0.6 0.239268
0.61 0.272839
0.62 0.302988
0.63 0.328782
0.64 0.349384
0.65 0.364078
0.66 0.371867
0.67 0.372356
0.68 0.365734
0.69 0.352021
0.7 0.331424
0.71 0.304337
0.72 0.271328
0.73 0.232629
0.74 0.189789
0.75 0.143818
0.76 0.0957827
0.77 0.0467906
0.78 -0.00204684
0.79 -0.0495284
0.8 -0.0944526
0.81 -0.13601
0.82 -0.173422
0.83 -0.206053
0.84 -0.233428
0.85 -0.255243
0.86 -0.270785
0.87 -0.28065
0.88 -0.285173
0.89 -0.284763
0.9 -0.279961
0.91 -0.271417
0.92 -0.259784
0.93 -0.245886
0.94 -0.230771
0.95 -0.215253
0.96 -0.200112
0.97 -0.186064
0.98 -0.173744
0.99 -0.163934
1 -0.15692
1.01 -0.152902
1.02 -0.152001
1.03 -0.154213
1.04 -0.159409
1.05 -0.167418
1.06 -0.177989
1.07 -0.190448
1.08 -0.204304
1.09 -0.219037
1.1 -0.234113
1.11 -0.249014
1.12 -0.26316
1.13 -0.276098
1.14 -0.287502
1.15 -0.297104
1.16 -0.304722
1.17 -0.310267
1.18 -0.313708
1.19 -0.314995
1.2 -0.314525
1.21 -0.312555
1.22 -0.309393
1.23 -0.305383
1.24 -0.300888
1.25 -0.296288
1.26 -0.291981
1.27 -0.288277
1.28 -0.285434
1.29 -0.28365
1.3 -0.283058
1.31 -0.283724
1.32 -0.285756
1.33 -0.288909
1.34 -0.293016
1.35 -0.297854
1.36 -0.303156
1.37 -0.308624
1.38 -0.313917
1.39 -0.318673
1.4 -0.32261
1.41 -0.325467
1.42 -0.327029
1.43 -0.327138
1.44 -0.325699
1.45 -0.322516
1.46 -0.317826
1.47 -0.311773
1.48 -0.304562
1.49 -0.296455
1.5 -0.28776
1.51 -0.27883
1.52 -0.270086
1.53 -0.26191
1.54 -0.254655
1.55 -0.248646
1.56 -0.244159
1.57 -0.241417
1.58 -0.240774
1.59 -0.24214
1.6 -0.24546
1.61 -0.250627
1.62 -0.257455
1.63 -0.265684
1.64 -0.275015
1.65 -0.285038
1.66 -0.295245
1.67 -0.305188
1.68 -0.314417
1.69 -0.322491
1.7 -0.329004
1.71 -0.33339
1.72 -0.335441
1.73 -0.335
1.74 -0.331935
1.75 -0.326205
1.76 -0.317857
1.77 -0.306969
1.78 -0.29365
1.79 -0.278439
1.8 -0.261712
1.81 -0.243894
1.82 -0.225443
1.83 -0.206834
1.84 -0.188605
1.85 -0.171256
1.86 -0.155186
1.87 -0.140756
1.88 -0.128263
1.89 -0.11793
1.9 -0.109935
1.91 -0.10454
1.92 -0.101454
1.93 -0.100547
1.94 -0.101612
1.95 -0.104376
1.96 -0.108513
1.97 -0.113697
1.98 -0.119458
1.99 -0.125346
2 -0.130971
2.01 -0.135967
2.02 -0.140007
2.03 -0.142815
2.04 -0.144003
2.05 -0.143597
2.06 -0.141552
2.07 -0.137901
2.08 -0.132752
2.09 -0.126284
2.1 -0.118694
2.11 -0.110327
2.12 -0.101591
2.13 -0.0928566
2.14 -0.0845025
2.15 -0.0769041
2.16 -0.0704179
2.17 -0.0655562
2.18 -0.0624699
2.19 -0.0613561
2.2 -0.0623581
2.21 -0.0655498
2.22 -0.0709332
2.23 -0.078529
2.24 -0.0882207
2.25 -0.0996406
2.26 -0.11252
2.27 -0.126546
2.28 -0.141379
2.29 -0.156658
2.3 -0.17199
2.31 -0.186975
2.32 -0.201285
2.33 -0.214626
2.34 -0.226748
2.35 -0.237454
2.36 -0.246548
2.37 -0.25387
2.38 -0.259551
2.39 -0.26365
2.4 -0.266283
2.41 -0.267614
2.42 -0.267849
2.43 -0.267176
2.44 -0.265939
2.45 -0.264435
2.46 -0.262936
2.47 -0.2617
2.48 -0.260963
2.49 -0.26095
2.5 -0.261907
2.51 -0.263877
2.52 -0.266925
2.53 -0.271069
2.54 -0.276281
2.55 -0.282485
2.56 -0.289625
2.57 -0.297497
2.58 -0.305884
2.59 -0.314589
2.6 -0.323403
2.61 -0.332119
2.62 -0.340528
2.63 -0.348379
2.64 -0.355547
2.65 -0.361898
2.66 -0.36733
2.67 -0.371774
2.68 -0.37519
2.69 -0.37751
2.7 -0.378777
2.71 -0.379101
2.72 -0.378557
2.73 -0.377235
2.74 -0.375232
2.75 -0.372646
2.76 -0.369526
2.77 -0.366017
2.78 -0.362184
2.79 -0.358071
2.8 -0.353701
2.81 -0.349071
2.82 -0.344137
2.83 -0.338835
2.84 -0.333109
2.85 -0.326868
2.86 -0.32001
2.87 -0.312427
2.88 -0.304011
2.89 -0.294548
2.9 -0.284034
2.91 -0.272408
2.92 -0.259628
2.93 -0.245674
2.94 -0.23056
2.95 -0.214283
2.96 -0.196901
2.97 -0.178611
2.98 -0.159551
2.99 -0.139887
3 -0.119801
3.01 -0.0994879
3.02 -0.0791676
3.03 -0.0590667
3.04 -0.0393778
3.05 -0.0202791
3.06 -0.00192757
3.07 0.0155453
3.08 0.0320044
3.09 0.0473216
3.1 0.0615587
3.11 0.0747283
3.12 0.0868775
3.13 0.0980855
3.14 0.10846
3.15 0.118088
3.16 0.127176
3.17 0.135914
3.18 0.144471
3.19 0.153013
3.2 0.161698
3.21 0.170679
3.22 0.180123
3.23 0.190087
3.24 0.200634
3.25 0.211792
3.26 0.223557
3.27 0.235893
3.28 0.248763
3.29 0.26204
3.3 0.275576
3.31 0.289228
3.32 0.302838
3.33 0.316242
3.34 0.329268
3.35 0.341683
3.36 0.353381
3.37 0.36423
3.38 0.374119
3.39 0.382961
3.4 0.390693
3.41 0.397213
3.42 0.402528
3.43 0.406735
3.44 0.409889
3.45 0.412073
3.46 0.413388
3.47 0.413951
3.48 0.413836
3.49 0.413266
3.5 0.412381
3.51 0.41132
3.52 0.410212
3.53 0.40918
3.54 0.408345
3.55 0.407815
3.56 0.407648
3.57 0.407898
3.58 0.408599
3.59 0.409772
3.6 0.411418
3.61 0.413576
3.62 0.416176
3.63 0.419182
3.64 0.422557
3.65 0.42626
3.66 0.430251
3.67 0.434501
3.68 0.438976
3.69 0.443629
3.7 0.448436
3.71 0.453377
3.72 0.458438
3.73 0.463609
3.74 0.468892
3.75 0.47427
3.76 0.479735
3.77 0.485273
3.78 0.490866
3.79 0.496491
3.8 0.50211
3.81 0.507671
3.82 0.513113
3.83 0.518368
3.84 0.523353
3.85 0.527976
3.86 0.532136
3.87 0.535666
3.88 0.538464
3.89 0.540432
3.9 0.541454
3.91 0.541415
3.92 0.540207
3.93 0.537707
3.94 0.533709
3.95 0.528271
3.96 0.521339
3.97 0.512876
3.98 0.502865
3.99 0.491304
4 0.478105
4.01 0.46335
4.02 0.447162
4.03 0.429612
4.04 0.410779
4.05 0.390754
4.06 0.369628
4.07 0.347418
4.08 0.324348
4.09 0.300527
4.1 0.276063
4.11 0.251062
4.12 0.225627
4.13 0.199842
4.14 0.173818
4.15 0.147661
4.16 0.121458
4.17 0.095291
4.18 0.0692403
4.19 0.043384
4.2 0.0178387
4.21 -0.00734085
4.22 -0.0320786
4.23 -0.0562967
4.24 -0.0799167
4.25 -0.10286
4.26 -0.125007
4.27 -0.146254
4.28 -0.166578
4.29 -0.185912
4.3 -0.20419
4.31 -0.221358
4.32 -0.237369
4.33 -0.252064
4.34 -0.265525
4.35 -0.277766
4.36 -0.288796
4.37 -0.298643
4.38 -0.307347
4.39 -0.314928
4.4 -0.321427
4.41 -0.327014
4.42 -0.331786
4.43 -0.335847
4.44 -0.339305
4.45 -0.342269
4.46 -0.344825
4.47 -0.347111
4.48 -0.349232
4.49 -0.351272
4.5 -0.353302
4.51 -0.355377
4.52 -0.357541
4.53 -0.359823
4.54 -0.362217
4.55 -0.364708
4.56 -0.367267
4.57 -0.369852
4.58 -0.37241
4.59 -0.374868
4.6 -0.377157
4.61 -0.379213
4.62 -0.380972
4.63 -0.382378
4.64 -0.38338
4.65 -0.383935
4.66 -0.383975
4.67 -0.383542
4.68 -0.382645
4.69 -0.381312
4.7 -0.379585
4.71 -0.37752
4.72 -0.375174
4.73 -0.372643
4.74 -0.37003
4.75 -0.367427
4.76 -0.364925
4.77 -0.362616
4.78 -0.360584
4.79 -0.358952
4.8 -0.357746
4.81 -0.357012
4.82 -0.356782
4.83 -0.357071
4.84 -0.357876
4.85 -0.359207
4.86 -0.361023
4.87 -0.363246
4.88 -0.365816
4.89 -0.368662
4.9 -0.371711
4.91 -0.374885
4.92 -0.378106
4.93 -0.381286
4.94 -0.384361
4.95 -0.387273
4.96 -0.389971
4.97 -0.39242
4.98 -0.394579
4.99 -0.396426
5 -0.397978
5.01 -0.399242
5.02 -0.40023
5.03 -0.400961
5.04 -0.401453
5.05 -0.401705
5.06 -0.40175
5.07 -0.401597
5.08 -0.401244
5.09 -0.400674
5.1 -0.39986
5.11 -0.398746
5.12 -0.397251
5.13 -0.395322
5.14 -0.392873
5.15 -0.389802
5.16 -0.386002
5.17 -0.381357
5.18 -0.375654
5.19 -0.368816
5.2 -0.36076
5.21 -0.35138
5.22 -0.340583
5.23 -0.328289
5.24 -0.314398
5.25 -0.298755
5.26 -0.281491
5.27 -0.262611
5.28 -0.242144
5.29 -0.220141
5.3 -0.196672
5.31 -0.171727
5.32 -0.14548
5.33 -0.118106
5.34 -0.0897381
5.35 -0.0605124
5.36 -0.0305705
5.37 -4.82163e-05
5.38 0.0309377
5.39 0.0621977
5.4 0.0936056
5.41 0.125043
5.42 0.156402
5.43 0.187579
5.44 0.218459
5.45 0.248948
5.46 0.278979
5.47 0.308475
5.48 0.337358
5.49 0.36555
5.5 0.392965
5.51 0.419402
5.52 0.444853
5.53 0.469207
5.54 0.492342
5.55 0.514127
5.56 0.53442
5.57 0.552973
5.58 0.569593
5.59 0.584224
5.6 0.596709
5.61 0.606894
5.62 0.614635
5.63 0.619803
5.64 0.621986
5.65 0.621356
5.66 0.617882
5.67 0.611538
5.68 0.602333
5.69 0.590309
5.7 0.575426
5.71 0.557743
5.72 0.537616
5.73 0.515229
5.74 0.490798
5.75 0.464561
5.76 0.436772
5.77 0.407607
5.78 0.377473
5.79 0.346674
5.8 0.315482
5.81 0.284158
5.82 0.252947
5.83 0.222091
5.84 0.191839
5.85 0.16232
5.86 0.133667
5.87 0.10598
5.88 0.0793309
5.89 0.0537612
5.9 0.0293797
5.91 0.00611403
5.92 -0.016101
5.93 -0.0373096
5.94 -0.0575644
5.95 -0.0769209
5.96 -0.0954154
5.97 -0.113042
5.98 -0.129912
5.99 -0.146044
6 -0.161437
6.01 -0.176071
6.02 -0.189907
6.03 -0.202815
6.04 -0.214732
6.05 -0.225597
6.06 -0.2353
6.07 -0.243724
6.08 -0.25075
6.09 -0.256242
6.1 -0.259921
6.11 -0.261857
6.12 -0.261973
6.13 -0.260218
6.14 -0.256564
6.15 -0.251014
6.16 -0.243487
6.17 -0.234084
6.18 -0.223011
6.19 -0.210403
6.2 -0.196426
6.21 -0.181268
6.22 -0.165137
6.23 -0.148195
6.24 -0.130785
6.25 -0.113142
6.26 -0.095498
6.27 -0.0780738
6.28 -0.0610745
6.29 -0.0447255
6.3 -0.0292145
6.31 -0.0146219
6.32 -0.00103665
6.33 0.0114859
6.34 0.0229246
6.35 0.0332919
6.36 0.0425316
6.37 0.0508275
6.38 0.0582979
6.39 0.0650701
6.4 0.0712875
6.41 0.0771048
6.42 0.0826797
6.43 0.0881941
6.44 0.0938194
6.45 0.0997009
6.46 0.105971
6.47 0.112743
6.48 0.120114
6.49 0.128225
6.5 0.137082
6.51 0.146692
6.52 0.157058
6.53 0.168161
6.54 0.179965
6.55 0.192436
6.56 0.205534
6.57 0.219128
6.58 0.233139
6.59 0.247482
6.6 0.262079
6.61 0.276849
6.62 0.291723
6.63 0.306624
6.64 0.321492
6.65 0.336281
6.66 0.350954
6.67 0.36548
6.68 0.379831
6.69 0.393972
6.7 0.407906
6.71 0.421618
6.72 0.435092
6.73 0.448307
6.74 0.461239
6.75 0.473826
6.76 0.486028
6.77 0.497802
6.78 0.509082
6.79 0.519789
6.8 0.529835
6.81 0.539114
6.82 0.547419
6.83 0.554722
6.84 0.560902
6.85 0.565842
6.86 0.569424
6.87 0.571534
6.88 0.571962
6.89 0.570605
6.9 0.567468
6.91 0.562484
6.92 0.555596
6.93 0.546769
6.94 0.535983
6.95 0.523011
6.96 0.508094
6.97 0.491274
6.98 0.472603
6.99 0.452148
7 0.429991
7.01 0.406147
7.02 0.380709
7.03 0.353897
7.04 0.325826
7.05 0.296617
7.06 0.266395
7.07 0.235284
7.08 0.203342
7.09 0.170775
7.1 0.137714
7.11 0.104279
7.12 0.0705879
7.13 0.0367553
7.14 0.00289768
7.15 -0.0308553
7.16 -0.0643944
7.17 -0.0976128
7.18 -0.130405
7.19 -0.162667
7.2 -0.194297
7.21 -0.225118
7.22 -0.25507
7.23 -0.284077
7.24 -0.31205
7.25 -0.338904
7.26 -0.36456
7.27 -0.388908
7.28 -0.411796
7.29 -0.433287
7.3 -0.453338
7.31 -0.471921
7.32 -0.489017
7.33 -0.50462
7.34 -0.518617
7.35 -0.531101
7.36 -0.542158
7.37 -0.551833
7.38 -0.560182
7.39 -0.567269
7.4 -0.573146
7.41 -0.577808
7.42 -0.581453
7.43 -0.584165
7.44 -0.586026
7.45 -0.587117
7.46 -0.587514
7.47 -0.58725
7.48 -0.58641
7.49 -0.58508
7.5 -0.583305
7.51 -0.581121
7.52 -0.578555
7.53 -0.575625
7.54 -0.572302
7.55 -0.568626
7.56 -0.564588
7.57 -0.560174
7.58 -0.555367
7.59 -0.550143
7.6 -0.544451
7.61 -0.538261
7.62 -0.531575
7.63 -0.52437
7.64 -0.516625
7.65 -0.508324
7.66 -0.499455
7.67 -0.489947
7.68 -0.47986
7.69 -0.469203
7.7 -0.457987
7.71 -0.446231
7.72 -0.433957
7.73 -0.421173
7.74 -0.407907
7.75 -0.394235
7.76 -0.3802
7.77 -0.365852
7.78 -0.351244
7.79 -0.336431
7.8 -0.321466
7.81 -0.306431
7.82 -0.291394
7.83 -0.276424
7.84 -0.261591
7.85 -0.246967
7.86 -0.232638
7.87 -0.218703
7.88 -0.205214
7.89 -0.192241
7.9 -0.179856
7.91 -0.168127
7.92 -0.157119
7.93 -0.146967
7.94 -0.137683
7.95 -0.129292
7.96 -0.121832
7.97 -0.115333
7.98 -0.109816
7.99 -0.105318
8 -0.101903
8.01 -0.0994675
8.02 -0.0979889
8.03 -0.0974337
8.04 -0.0977594
8.05 -0.0989149
8.06 -0.100897
8.07 -0.103599
8.08 -0.106921
8.09 -0.110788
8.1 -0.115125
8.11 -0.119856
8.12 -0.12491
8.13 -0.130231
8.14 -0.13572
8.15 -0.14132
8.16 -0.146975
8.17 -0.15264
8.18 -0.158275
8.19 -0.16384
8.2 -0.169305
8.21 -0.174654
8.22 -0.179869
8.23 -0.184936
8.24 -0.18984
8.25 -0.194566
8.26 -0.199073
8.27 -0.203359
8.28 -0.207395
8.29 -0.211145
8.3 -0.214566
8.31 -0.217605
8.32 -0.220171
8.33 -0.222179
8.34 -0.223575
8.35 -0.224273
8.36 -0.224178
8.37 -0.223193
8.38 -0.221218
8.39 -0.218025
8.4 -0.213621
8.41 -0.207925
8.42 -0.200857
8.43 -0.192349
8.44 -0.182345
8.45 -0.170735
8.46 -0.15745
8.47 -0.1426
8.48 -0.126202
8.49 -0.10829
8.5 -0.088916
8.51 -0.0681488
8.52 -0.0459532
8.53 -0.0225433
8.54 0.00194606
8.55 0.0273965
8.56 0.0536847
8.57 0.0806851
8.58 0.108288
8.59 0.136377
8.6 0.164791
8.61 0.193422
8.62 0.222172
8.63 0.250954
8.64 0.279691
8.65 0.308303
8.66 0.336735
8.67 0.364949
8.68 0.392909
8.69 0.420586
8.7 0.447952
8.71 0.474976
8.72 0.501601
8.73 0.527829
8.74 0.553622
8.75 0.578933
8.76 0.603704
8.77 0.627867
8.78 0.65128
8.79 0.673855
8.8 0.69551
8.81 0.71612
8.82 0.735551
8.83 0.753659
8.84 0.770273
8.85 0.78507
8.86 0.798053
8.87 0.809072
8.88 0.817982
8.89 0.824649
8.9 0.828954
8.91 0.830626
8.92 0.8296
8.93 0.825948
8.94 0.819633
8.95 0.810642
8.96 0.798988
8.97 0.784703
8.98 0.76756
8.99 0.74795
9 0.725978
9.01 0.701768
9.02 0.675459
9.03 0.6472
9.04 0.617066
9.05 0.585233
9.06 0.551982
9.07 0.517486
9.08 0.481912
9.09 0.445427
9.1 0.408188
9.11 0.370301
9.12 0.331983
9.13 0.293376
9.14 0.254609
9.15 0.215804
9.16 0.177075
9.17 0.138549
9.18 0.100357
9.19 0.0625896
9.2 0.025352
9.21 -0.0112492
9.22 -0.0471051
9.23 -0.0821039
9.24 -0.116025
9.25 -0.148806
9.26 -0.180343
9.27 -0.210507
9.28 -0.239168
9.29 -0.266192
9.3 -0.291388
9.31 -0.314504
9.32 -0.33557
9.33 -0.354468
9.34 -0.371087
9.35 -0.385332
9.36 -0.397116
9.37 -0.406153
9.38 -0.412517
9.39 -0.416263
9.4 -0.41738
9.41 -0.415879
9.42 -0.411791
9.43 -0.405114
9.44 -0.395742
9.45 -0.384012
9.46 -0.370033
9.47 -0.353929
9.48 -0.335835
9.49 -0.3159
9.5 -0.294167
9.51 -0.270875
9.52 -0.246263
9.53 -0.220501
9.54 -0.193759
9.55 -0.166204
9.56 -0.137998
9.57 -0.109273
9.58 -0.0802489
9.59 -0.0510741
9.6 -0.0218904
9.61 0.0071667
9.62 0.0359684
9.63 0.0643608
9.64 0.0922134
9.65 0.119439
9.66 0.145932
9.67 0.171595
9.68 0.196332
9.69 0.220053
9.7 0.242537
9.71 0.26382
9.72 0.283829
9.73 0.302495
9.74 0.319752
9.75 0.335543
9.76 0.349736
9.77 0.362259
9.78 0.37318
9.79 0.382474
9.8 0.390126
9.81 0.396133
9.82 0.4005
9.83 0.403078
9.84 0.404047
9.85 0.403467
9.86 0.40139
9.87 0.397873
9.88 0.392984
9.89 0.386749
9.9 0.379215
9.91 0.370569
9.92 0.3609
9.93 0.350299
9.94 0.338859
9.95 0.326669
9.96 0.313767
9.97 0.300295
9.98 0.286348
9.99 0.272003
10 0.257331
10.01 0.242398
10.02 0.22726
10.03 0.211968
10.04 0.196587
10.05 0.181158
10.06 0.165719
10.07 0.150304
10.08 0.134942
10.09 0.119671
10.1 0.104514
10.11 0.0894923
10.12 0.0746277
10.13 0.0599424
10.14 0.0454577
10.15 0.0311997
10.16 0.0172122
10.17 0.00349419
10.18 -0.00993323
10.19 -0.0230495
10.2 -0.0358348
10.21 -0.0482707
10.22 -0.0603129
10.23 -0.0719538
10.24 -0.0831983
10.25 -0.0940371
10.26 -0.104464
10.27 -0.114475
10.28 -0.124068
10.29 -0.133204
10.3 -0.141935
10.31 -0.150273
10.32 -0.158228
10.33 -0.165816
10.34 -0.173054
10.35 -0.17994
10.36 -0.186497
10.37 -0.192765
10.38 -0.198762
10.39 -0.204507
10.4 -0.210021
10.41 -0.21532
10.42 -0.220403
10.43 -0.225308
10.44 -0.23005
10.45 -0.234646
10.46 -0.239107
10.47 -0.243448
10.48 -0.247677
10.49 -0.251806
10.5 -0.255856
10.51 -0.25984
10.52 -0.263771
10.53 -0.267663
10.54 -0.271529
10.55 -0.275386
10.56 -0.279248
10.57 -0.28313
10.58 -0.287043
10.59 -0.291001
10.6 -0.295011
10.61 -0.299085
10.62 -0.303229
10.63 -0.30744
10.64 -0.311714
10.65 -0.316046
10.66 -0.320425
10.67 -0.324836
10.68 -0.329261
10.69 -0.333674
10.7 -0.338049
10.71 -0.342358
10.72 -0.346572
10.73 -0.35066
10.74 -0.354587
10.75 -0.358309
10.76 -0.361814
10.77 -0.365078
10.78 -0.368083
10.79 -0.370813
10.8 -0.373261
10.81 -0.375401
10.82 -0.377251
10.83 -0.378832
10.84 -0.380165
10.85 -0.381271
10.86 -0.382181
10.87 -0.382926
10.88 -0.383537
10.89 -0.38407
10.9 -0.384564
10.91 -0.385058
10.92 -0.38559
10.93 -0.386191
10.94 -0.386896
10.95 -0.387728
10.96 -0.388691
10.97 -0.389789
10.98 -0.391012
10.99 -0.392346
11 -0.393762
11.01 -0.395224
11.02 -0.396675
11.03 -0.398059
11.04 -0.399311
11.05 -0.400364
11.06 -0.401144
11.07 -0.40155
11.08 -0.401493
11.09 -0.400919
11.1 -0.399759
11.11 -0.397945
11.12 -0.395419
11.13 -0.392129
11.14 -0.387944
11.15 -0.382916
11.16 -0.377034
11.17 -0.370296
11.18 -0.362711
11.19 -0.354301
11.2 -0.345065
11.21 -0.335035
11.22 -0.324325
11.23 -0.313
11.24 -0.301129
11.25 -0.288792
11.26 -0.276066
11.27 -0.263013
11.28 -0.249748
11.29 -0.236355
11.3 -0.222908
11.31 -0.209478
11.32 -0.196127
11.33 -0.182917
11.34 -0.169907
11.35 -0.157118
11.36 -0.144575
11.37 -0.13229
11.38 -0.120267
11.39 -0.108499
11.4 -0.0969897
11.41 -0.0856951
11.42 -0.0745746
11.43 -0.0635878
11.44 -0.0526893
11.45 -0.0418296
11.46 -0.030955
11.47 -0.0200004
11.48 -0.0089148
11.49 0.0023536
11.5 0.0138539
11.51 0.0256315
11.52 0.0377275
11.53 0.050207
11.54 0.0630894
11.55 0.0763815
11.56 0.0900976
11.57 0.104245
11.58 0.118824
11.59 0.133832
11.6 0.149291
11.61 0.165135
11.62 0.181336
11.63 0.197861
11.64 0.214672
11.65 0.231727
11.66 0.248989
11.67 0.266399
11.68 0.283897
11.69 0.30143
11.7 0.318943
11.71 0.336382
11.72 0.353693
11.73 0.370794
11.74 0.387649
11.75 0.404204
11.76 0.420409
11.77 0.436212
11.78 0.451564
11.79 0.466385
11.8 0.480614
11.81 0.494236
11.82 0.507203
11.83 0.519464
11.84 0.530973
11.85 0.541679
11.86 0.551436
11.87 0.560271
11.88 0.568142
11.89 0.574996
11.9 0.580783
11.91 0.58545
11.92 0.588894
11.93 0.591024
11.94 0.591878
11.95 0.591415
11.96 0.589596
11.97 0.586388
11.98 0.581763
11.99 0.575561
12 0.56788
12.01 0.55875
12.02 0.548179
12.03 0.53619
12.04 0.522813
12.05 0.50805
12.06 0.491901
12.07 0.474548
12.08 0.456074
12.09 0.436573
12.1 0.416148
12.11 0.394913
12.12 0.372941
12.13 0.350418
12.14 0.327498
12.15 0.304323
12.16 0.281032
12.17 0.257767
12.18 0.234676
12.19 0.211934
12.2 0.189653
12.21 0.167956
12.22 0.146958
12.23 0.126766
12.24 0.107473
12.25 0.0892435
12.26 0.0721241
