# xPDFsuite Configuration #
[PDF]
wavelength = 0.1
dataformat = QA
inputfile = BiMsol6_insitu_700 C-00417.xy
backgroundfile = Quartz2mm-dist500-00000.xy
mode = xray
bgscale = 0.0042
composition = Bi2Fe4O9
outputtype = gr
qmaxinst = 24.998449118
qmin = 0.1
qmax = 21.4986662415
rmax = 80.0
rmin = 0.0
rstep = 0.01
rpoly = 0.9

[Misc]
inputdir = C:/Data/Seafile/CPH/Beamtime/Desy Oct 20/In situ data/Processed/BiMsol6/PDF
savedir = C:/Data/Seafile/CPH/Beamtime/Desy Oct 20/In situ data/PDF/BiMsol6
backgroundfilefull = C:/Data/Seafile/CPH/Beamtime/Desy Oct 20/In situ data/Processed/Standard_Empty_Cap/Quartz2mm-dist500-00000.xy

#### start data
#S 1
#L r($\AA$)  G($\AA^{-2}$)
0 0
0.01 0.00736187
0.02 0.0143157
0.03 0.0205122
0.04 0.0256373
0.05 0.029427
0.06 0.0316792
0.07 0.0321717
0.08 0.0308371
0.09 0.0278337
0.1 0.0232903
0.11 0.0174088
0.12 0.0104555
0.13 0.00274899
0.14 -0.00535501
0.15 -0.0133993
0.16 -0.020999
0.17 -0.027792
0.18 -0.0334519
0.19 -0.0377037
0.2 -0.0402638
0.21 -0.0409334
0.22 -0.0398114
0.23 -0.0369609
0.24 -0.0325327
0.25 -0.0267594
0.26 -0.0199472
0.27 -0.0124401
0.28 -0.0047533
0.29 0.00265515
0.3 0.00933968
0.31 0.014874
0.32 0.0188718
0.33 0.0209406
0.34 0.0206926
0.35 0.0181653
0.36 0.0133378
0.37 0.00630288
0.38 -0.00273125
0.39 -0.0134436
0.4 -0.0254678
0.41 -0.0381401
0.42 -0.0508068
0.43 -0.062804
0.44 -0.0734418
0.45 -0.0820302
0.46 -0.087839
0.47 -0.0899315
0.48 -0.0880806
0.49 -0.0818934
0.5 -0.0711074
0.51 -0.0556056
0.52 -0.0354282
0.53 -0.0104807
0.54 0.0186652
0.55 0.0512465
0.56 0.0865557
0.57 0.123762
0.58 0.161932
0.59 0.200052
0.6 0.23683
0.61 0.271237
0.62 0.302244
0.63 0.328889
0.64 0.350307
0.65 0.365753
0.66 0.374204
0.67 0.375239
0.68 0.369043
0.69 0.355624
0.7 0.335188
0.71 0.308131
0.72 0.275029
0.73 0.236113
0.74 0.192963
0.75 0.146608
0.76 0.098137
0.77 0.0486787
0.78 -0.000633678
0.79 -0.0485766
0.8 -0.0939273
0.81 -0.135863
0.82 -0.173593
0.83 -0.206474
0.84 -0.23403
0.85 -0.255958
0.86 -0.271544
0.87 -0.281402
0.88 -0.285881
0.89 -0.285404
0.9 -0.28053
0.91 -0.271927
0.92 -0.260264
0.93 -0.246385
0.94 -0.231348
0.95 -0.215974
0.96 -0.201049
0.97 -0.187289
0.98 -0.175324
0.99 -0.16593
1 -0.159378
1.01 -0.155844
1.02 -0.155432
1.03 -0.158112
1.04 -0.163733
1.05 -0.172095
1.06 -0.182919
1.07 -0.195516
1.08 -0.209379
1.09 -0.223976
1.1 -0.238769
1.11 -0.253239
1.12 -0.2668
1.13 -0.279024
1.14 -0.289609
1.15 -0.298312
1.16 -0.304984
1.17 -0.309569
1.18 -0.312075
1.19 -0.312499
1.2 -0.311273
1.21 -0.30869
1.22 -0.305089
1.23 -0.300839
1.24 -0.296324
1.25 -0.291954
1.26 -0.288122
1.27 -0.285122
1.28 -0.283194
1.29 -0.282513
1.3 -0.283177
1.31 -0.285215
1.32 -0.288686
1.33 -0.293283
1.34 -0.298787
1.35 -0.304918
1.36 -0.311358
1.37 -0.31776
1.38 -0.323723
1.39 -0.328843
1.4 -0.332829
1.41 -0.335405
1.42 -0.336352
1.43 -0.33552
1.44 -0.332832
1.45 -0.328099
1.46 -0.32163
1.47 -0.313626
1.48 -0.30435
1.49 -0.294126
1.5 -0.283331
1.51 -0.272391
1.52 -0.261807
1.53 -0.252013
1.54 -0.243416
1.55 -0.236383
1.56 -0.231226
1.57 -0.228188
1.58 -0.227668
1.59 -0.229538
1.6 -0.233712
1.61 -0.240049
1.62 -0.248315
1.63 -0.258196
1.64 -0.269326
1.65 -0.281219
1.66 -0.293281
1.67 -0.304986
1.68 -0.31581
1.69 -0.325248
1.7 -0.33283
1.71 -0.337905
1.72 -0.340245
1.73 -0.339682
1.74 -0.336078
1.75 -0.329399
1.76 -0.319715
1.77 -0.307134
1.78 -0.291807
1.79 -0.274368
1.8 -0.255268
1.81 -0.235014
1.82 -0.214147
1.83 -0.193229
1.84 -0.172901
1.85 -0.153745
1.86 -0.136219
1.87 -0.120741
1.88 -0.107651
1.89 -0.097201
1.9 -0.0895893
1.91 -0.0851136
1.92 -0.0834094
1.93 -0.0843041
1.94 -0.0875357
1.95 -0.0927637
1.96 -0.0995832
1.97 -0.107583
1.98 -0.116183
1.99 -0.124835
2 -0.133054
2.01 -0.140386
2.02 -0.146424
2.03 -0.150819
2.04 -0.153069
2.05 -0.153209
2.06 -0.151171
2.07 -0.146981
2.08 -0.14076
2.09 -0.132713
2.1 -0.123057
2.11 -0.112205
2.12 -0.100664
2.13 -0.0888855
2.14 -0.0773369
2.15 -0.0664844
2.16 -0.0567759
2.17 -0.0488358
2.18 -0.0428928
2.19 -0.0392161
2.2 -0.0380112
2.21 -0.0394012
2.22 -0.0434234
2.23 -0.0501396
2.24 -0.0594489
2.25 -0.0709359
2.26 -0.0843028
2.27 -0.0991969
2.28 -0.115224
2.29 -0.131962
2.3 -0.148962
2.31 -0.165728
2.32 -0.181853
2.33 -0.196971
2.34 -0.210763
2.35 -0.222973
2.36 -0.23334
2.37 -0.241645
2.38 -0.24801
2.39 -0.252477
2.4 -0.255159
2.41 -0.256229
2.42 -0.255913
2.43 -0.254408
2.44 -0.252122
2.45 -0.249408
2.46 -0.246588
2.47 -0.243978
2.48 -0.241868
2.49 -0.240542
2.5 -0.24031
2.51 -0.24125
2.52 -0.243463
2.53 -0.246995
2.54 -0.251834
2.55 -0.257914
2.56 -0.265193
2.57 -0.273444
2.58 -0.28242
2.59 -0.291893
2.6 -0.301621
2.61 -0.311359
2.62 -0.320858
2.63 -0.329822
2.64 -0.338083
2.65 -0.345473
2.66 -0.351862
2.67 -0.357157
2.68 -0.361306
2.69 -0.364225
2.7 -0.365966
2.71 -0.366661
2.72 -0.366406
2.73 -0.365323
2.74 -0.363546
2.75 -0.361215
2.76 -0.358439
2.77 -0.355407
2.78 -0.352231
2.79 -0.349001
2.8 -0.345778
2.81 -0.342594
2.82 -0.339452
2.83 -0.336309
2.84 -0.333096
2.85 -0.329715
2.86 -0.326051
2.87 -0.321969
2.88 -0.317326
2.89 -0.311883
2.9 -0.305553
2.91 -0.298215
2.92 -0.28976
2.93 -0.280101
2.94 -0.269182
2.95 -0.256924
2.96 -0.243303
2.97 -0.228469
2.98 -0.212509
2.99 -0.195541
3 -0.177711
3.01 -0.159187
3.02 -0.140123
3.03 -0.120773
3.04 -0.101345
3.05 -0.0820283
3.06 -0.0630019
3.07 -0.0444249
3.08 -0.0264553
3.09 -0.00924748
3.1 0.00718355
3.11 0.0228047
3.12 0.0376165
3.13 0.0516518
3.14 0.0649737
3.15 0.077628
3.16 0.0897753
3.17 0.101565
3.18 0.113135
3.19 0.124623
3.2 0.136163
3.21 0.147883
3.22 0.159918
3.23 0.172324
3.24 0.185147
3.25 0.198402
3.26 0.212073
3.27 0.226113
3.28 0.240453
3.29 0.254957
3.3 0.269473
3.31 0.283841
3.32 0.297887
3.33 0.311431
3.34 0.32428
3.35 0.336152
3.36 0.346963
3.37 0.356569
3.38 0.364853
3.39 0.371722
3.4 0.37712
3.41 0.380926
3.42 0.383172
3.43 0.383993
3.44 0.383478
3.45 0.381743
3.46 0.378934
3.47 0.375218
3.48 0.37072
3.49 0.36574
3.5 0.360483
3.51 0.355155
3.52 0.349953
3.53 0.345065
3.54 0.340698
3.55 0.337033
3.56 0.334163
3.57 0.33219
3.58 0.331188
3.59 0.331209
3.6 0.332279
3.61 0.33451
3.62 0.337779
3.63 0.342033
3.64 0.347215
3.65 0.353258
3.66 0.360084
3.67 0.367635
3.68 0.375838
3.69 0.384555
3.7 0.393703
3.71 0.403204
3.72 0.412986
3.73 0.42298
3.74 0.433133
3.75 0.443369
3.76 0.453634
3.77 0.463877
3.78 0.47405
3.79 0.484103
3.8 0.49398
3.81 0.503606
3.82 0.512938
3.83 0.521913
3.84 0.530462
3.85 0.538511
3.86 0.54598
3.87 0.552724
3.88 0.558677
3.89 0.563774
3.9 0.567927
3.91 0.571051
3.92 0.573064
3.93 0.573867
3.94 0.573286
3.95 0.571382
3.96 0.568111
3.97 0.563442
3.98 0.557353
3.99 0.549839
4 0.540803
4.01 0.530304
4.02 0.51844
4.03 0.50525
4.04 0.490785
4.05 0.475102
4.06 0.458255
4.07 0.440206
4.08 0.42115
4.09 0.401158
4.1 0.380298
4.11 0.358642
4.12 0.336256
4.13 0.313173
4.14 0.289472
4.15 0.265255
4.16 0.240589
4.17 0.215541
4.18 0.19018
4.19 0.16458
4.2 0.138805
4.21 0.112965
4.22 0.0871453
4.23 0.0614383
4.24 0.0359402
4.25 0.010751
4.26 -0.0140006
4.27 -0.0381846
4.28 -0.0617262
4.29 -0.0845243
4.3 -0.106483
4.31 -0.127514
4.32 -0.147537
4.33 -0.166372
4.34 -0.184057
4.35 -0.200575
4.36 -0.215912
4.37 -0.230073
4.38 -0.243081
4.39 -0.254937
4.4 -0.265668
4.41 -0.275441
4.42 -0.284349
4.43 -0.292495
4.44 -0.299992
4.45 -0.306955
4.46 -0.313474
4.47 -0.319704
4.48 -0.32576
4.49 -0.331739
4.5 -0.337721
4.51 -0.343774
4.52 -0.349949
4.53 -0.356287
4.54 -0.36278
4.55 -0.369413
4.56 -0.376153
4.57 -0.382949
4.58 -0.389737
4.59 -0.396427
4.6 -0.402925
4.61 -0.409145
4.62 -0.414997
4.63 -0.420394
4.64 -0.425258
4.65 -0.42951
4.66 -0.433034
4.67 -0.435857
4.68 -0.437963
4.69 -0.439356
4.7 -0.440057
4.71 -0.440108
4.72 -0.43953
4.73 -0.438425
4.74 -0.43691
4.75 -0.435088
4.76 -0.433064
4.77 -0.430949
4.78 -0.428853
4.79 -0.426908
4.8 -0.425204
4.81 -0.423827
4.82 -0.422849
4.83 -0.422326
4.84 -0.422298
4.85 -0.422818
4.86 -0.423893
4.87 -0.425476
4.88 -0.427536
4.89 -0.430031
4.9 -0.432906
4.91 -0.436097
4.92 -0.439553
4.93 -0.443167
4.94 -0.446863
4.95 -0.450568
4.96 -0.454211
4.97 -0.45773
4.98 -0.461054
4.99 -0.464121
5 -0.466903
5.01 -0.469366
5.02 -0.47148
5.03 -0.473222
5.04 -0.474571
5.05 -0.475464
5.06 -0.475912
5.07 -0.475901
5.08 -0.475402
5.09 -0.474382
5.1 -0.472798
5.11 -0.47058
5.12 -0.467628
5.13 -0.463926
5.14 -0.459398
5.15 -0.453962
5.16 -0.447533
5.17 -0.440021
5.18 -0.431228
5.19 -0.421128
5.2 -0.409675
5.21 -0.3968
5.22 -0.382445
5.23 -0.366564
5.24 -0.349091
5.25 -0.329906
5.26 -0.309166
5.27 -0.286901
5.28 -0.26316
5.29 -0.238008
5.3 -0.211529
5.31 -0.183733
5.32 -0.154794
5.33 -0.124884
5.34 -0.0941293
5.35 -0.0626645
5.36 -0.0306231
5.37 0.00186644
5.38 0.0346883
5.39 0.0676778
5.4 0.100721
5.41 0.133712
5.42 0.166553
5.43 0.199155
5.44 0.231409
5.45 0.263233
5.46 0.294574
5.47 0.325362
5.48 0.355526
5.49 0.384994
5.5 0.413685
5.51 0.441409
5.52 0.468158
5.53 0.493826
5.54 0.518297
5.55 0.541443
5.56 0.563128
5.57 0.583107
5.58 0.601194
5.59 0.617334
5.6 0.631371
5.61 0.643157
5.62 0.652547
5.63 0.659414
5.64 0.663347
5.65 0.664512
5.66 0.662872
5.67 0.658393
5.68 0.651072
5.69 0.640938
5.7 0.627934
5.71 0.612098
5.72 0.593761
5.73 0.573085
5.74 0.550257
5.75 0.525487
5.76 0.499001
5.77 0.470919
5.78 0.441632
5.79 0.411417
5.8 0.380521
5.81 0.34918
5.82 0.317617
5.83 0.286045
5.84 0.254682
5.85 0.223682
5.86 0.193179
5.87 0.163282
5.88 0.134075
5.89 0.105623
5.9 0.0780383
5.91 0.0513042
5.92 0.0254052
5.93 0.000342297
5.94 -0.0238881
5.95 -0.04729
5.96 -0.0698456
5.97 -0.0914858
5.98 -0.11227
5.99 -0.132167
6 -0.15113
6.01 -0.169099
6.02 -0.186001
6.03 -0.201654
6.04 -0.215985
6.05 -0.228934
6.06 -0.240392
6.07 -0.25025
6.08 -0.258403
6.09 -0.264736
6.1 -0.268981
6.11 -0.271274
6.12 -0.271579
6.13 -0.269889
6.14 -0.266222
6.15 -0.260626
6.16 -0.253067
6.17 -0.24369
6.18 -0.232735
6.19 -0.220365
6.2 -0.206764
6.21 -0.192133
6.22 -0.176683
6.23 -0.160587
6.24 -0.144152
6.25 -0.127588
6.26 -0.111094
6.27 -0.0948512
6.28 -0.0790208
6.29 -0.0637741
6.3 -0.0492395
6.31 -0.0354521
6.32 -0.022453
6.33 -0.0102541
6.34 0.00116134
6.35 0.0118361
6.36 0.021774
6.37 0.0311364
6.38 0.0400352
6.39 0.0485842
6.4 0.056902
6.41 0.0651073
6.42 0.0733195
6.43 0.0816622
6.44 0.0902243
6.45 0.0990811
6.46 0.108291
6.47 0.117893
6.48 0.127909
6.49 0.13838
6.5 0.149258
6.51 0.160502
6.52 0.172068
6.53 0.183904
6.54 0.195953
6.55 0.208158
6.56 0.22046
6.57 0.232795
6.58 0.245119
6.59 0.257398
6.6 0.269609
6.61 0.281743
6.62 0.293794
6.63 0.305783
6.64 0.317738
6.65 0.329689
6.66 0.341675
6.67 0.353733
6.68 0.365903
6.69 0.378229
6.7 0.390718
6.71 0.403378
6.72 0.416199
6.73 0.429154
6.74 0.442196
6.75 0.455252
6.76 0.468221
6.77 0.480986
6.78 0.49342
6.79 0.505373
6.8 0.516689
6.81 0.527191
6.82 0.536587
6.83 0.544795
6.84 0.551647
6.85 0.556987
6.86 0.560669
6.87 0.562567
6.88 0.562454
6.89 0.56025
6.9 0.55601
6.91 0.549714
6.92 0.541364
6.93 0.530992
6.94 0.518653
6.95 0.504221
6.96 0.488016
6.97 0.470163
6.98 0.450792
6.99 0.430039
7 0.408048
7.01 0.38491
7.02 0.360769
7.03 0.335823
7.04 0.31019
7.05 0.283976
7.06 0.257272
7.07 0.230157
7.08 0.202663
7.09 0.174875
7.1 0.146834
7.11 0.118568
7.12 0.0900967
7.13 0.0614384
7.14 0.0326036
7.15 0.00360914
7.16 -0.0255056
7.17 -0.0547056
7.18 -0.0839454
7.19 -0.113167
7.2 -0.142301
7.21 -0.171238
7.22 -0.199878
7.23 -0.228115
7.24 -0.255829
7.25 -0.28289
7.26 -0.309167
7.27 -0.334496
7.28 -0.358668
7.29 -0.381643
7.3 -0.40331
7.31 -0.423573
7.32 -0.442352
7.33 -0.459585
7.34 -0.475105
7.35 -0.488969
7.36 -0.501246
7.37 -0.511973
7.38 -0.521209
7.39 -0.52903
7.4 -0.535514
7.41 -0.540684
7.42 -0.544796
7.43 -0.547979
7.44 -0.550365
7.45 -0.552086
7.46 -0.553268
7.47 -0.554004
7.48 -0.554421
7.49 -0.554623
7.5 -0.554675
7.51 -0.554626
7.52 -0.554504
7.53 -0.554315
7.54 -0.554037
7.55 -0.553645
7.56 -0.553089
7.57 -0.552308
7.58 -0.551233
7.59 -0.549785
7.6 -0.547853
7.61 -0.545345
7.62 -0.542212
7.63 -0.538388
7.64 -0.533814
7.65 -0.528445
7.66 -0.522247
7.67 -0.515111
7.68 -0.507127
7.69 -0.498318
7.7 -0.48872
7.71 -0.47838
7.72 -0.46736
7.73 -0.455705
7.74 -0.443501
7.75 -0.430876
7.76 -0.417924
7.77 -0.40474
7.78 -0.391418
7.79 -0.37805
7.8 -0.364736
7.81 -0.351563
7.82 -0.338603
7.83 -0.325921
7.84 -0.313576
7.85 -0.301617
7.86 -0.290105
7.87 -0.279099
7.88 -0.268592
7.89 -0.258606
7.9 -0.249159
7.91 -0.240267
7.92 -0.231942
7.93 -0.224247
7.94 -0.217159
7.95 -0.210671
7.96 -0.204793
7.97 -0.199534
7.98 -0.194903
7.99 -0.190926
8 -0.187651
8.01 -0.185025
8.02 -0.18305
8.03 -0.181724
8.04 -0.181039
8.05 -0.180983
8.06 -0.181585
8.07 -0.182793
8.08 -0.18455
8.09 -0.18682
8.1 -0.189558
8.11 -0.192714
8.12 -0.196238
8.13 -0.200091
8.14 -0.204173
8.15 -0.208422
8.16 -0.212771
8.17 -0.217158
8.18 -0.221518
8.19 -0.225781
8.2 -0.229884
8.21 -0.233778
8.22 -0.237414
8.23 -0.240747
8.24 -0.243736
8.25 -0.246343
8.26 -0.248481
8.27 -0.250162
8.28 -0.251354
8.29 -0.252026
8.3 -0.252144
8.31 -0.251672
8.32 -0.250534
8.33 -0.248678
8.34 -0.246096
8.35 -0.242735
8.36 -0.238541
8.37 -0.233453
8.38 -0.227411
8.39 -0.220232
8.4 -0.211949
8.41 -0.202506
8.42 -0.191844
8.43 -0.17991
8.44 -0.166654
8.45 -0.151976
8.46 -0.135807
8.47 -0.118232
8.48 -0.0992507
8.49 -0.0788782
8.5 -0.057143
8.51 -0.0340892
8.52 -0.00965845
8.53 0.0159662
8.54 0.0426728
8.55 0.0703622
8.56 0.0989261
8.57 0.128249
8.58 0.158228
8.59 0.188748
8.6 0.219634
8.61 0.250766
8.62 0.282027
8.63 0.313305
8.64 0.344498
8.65 0.375485
8.66 0.406182
8.67 0.436518
8.68 0.466427
8.69 0.495848
8.7 0.52473
8.71 0.553008
8.72 0.580589
8.73 0.607484
8.74 0.633651
8.75 0.659043
8.76 0.683607
8.77 0.707287
8.78 0.729938
8.79 0.751508
8.8 0.771951
8.81 0.791171
8.82 0.809064
8.83 0.825519
8.84 0.840396
8.85 0.853399
8.86 0.864569
8.87 0.873777
8.88 0.880901
8.89 0.885823
8.9 0.888433
8.91 0.88847
8.92 0.88587
8.93 0.880696
8.94 0.872902
8.95 0.86246
8.96 0.849366
8.97 0.833632
8.98 0.815003
8.99 0.793846
9 0.770245
9.01 0.744299
9.02 0.716127
9.03 0.685858
9.04 0.65354
9.05 0.619334
9.06 0.583523
9.07 0.546275
9.08 0.507758
9.09 0.468143
9.1 0.427596
9.11 0.386221
9.12 0.34427
9.13 0.301908
9.14 0.259287
9.15 0.216557
9.16 0.173862
9.17 0.131359
9.18 0.089217
9.19 0.0475576
9.2 0.00651819
9.21 -0.0337639
9.22 -0.0731504
9.23 -0.111501
9.24 -0.148549
9.25 -0.18422
9.26 -0.218396
9.27 -0.250931
9.28 -0.281682
9.29 -0.310505
9.3 -0.337193
9.31 -0.361477
9.32 -0.383413
9.33 -0.40289
9.34 -0.419808
9.35 -0.434083
9.36 -0.445646
9.37 -0.45421
9.38 -0.45989
9.39 -0.46277
9.4 -0.462867
9.41 -0.460219
9.42 -0.454883
9.43 -0.446888
9.44 -0.436153
9.45 -0.423048
9.46 -0.407704
9.47 -0.390266
9.48 -0.370888
9.49 -0.349731
9.5 -0.326855
9.51 -0.3025
9.52 -0.2769
9.53 -0.250221
9.54 -0.222619
9.55 -0.194248
9.56 -0.165249
9.57 -0.135725
9.58 -0.105866
9.59 -0.0757912
9.6 -0.0456085
9.61 -0.0154205
9.62 0.0146765
9.63 0.0445749
9.64 0.0741762
9.65 0.103407
9.66 0.132185
9.67 0.160427
9.68 0.18805
9.69 0.214968
9.7 0.240992
9.71 0.266115
9.72 0.290246
9.73 0.313293
9.74 0.335163
9.75 0.355765
9.76 0.374934
9.77 0.392553
9.78 0.408633
9.79 0.423103
9.8 0.435903
9.81 0.446981
9.82 0.456299
9.83 0.463643
9.84 0.469167
9.85 0.472901
9.86 0.474865
9.87 0.475095
9.88 0.473641
9.89 0.470502
9.9 0.465706
9.91 0.459463
9.92 0.451867
9.93 0.443016
9.94 0.433014
9.95 0.421967
9.96 0.409901
9.97 0.396997
9.98 0.383376
9.99 0.369133
10 0.354355
10.01 0.339125
10.02 0.323506
10.03 0.307556
10.04 0.291363
10.05 0.274978
10.06 0.258444
10.07 0.2418
10.08 0.225079
10.09 0.20831
10.1 0.191526
10.11 0.174753
10.12 0.158017
10.13 0.141343
10.14 0.124757
10.15 0.108289
10.16 0.0919827
10.17 0.0758577
10.18 0.0599456
10.19 0.0442792
10.2 0.0288915
10.21 0.0138153
10.22 -0.000891196
10.23 -0.0152033
10.24 -0.0291108
10.25 -0.0425913
10.26 -0.0556266
10.27 -0.0682035
10.28 -0.0803106
10.29 -0.091897
10.3 -0.103018
10.31 -0.113684
10.32 -0.123909
10.33 -0.13371
10.34 -0.14311
10.35 -0.152113
10.36 -0.160751
10.37 -0.169073
10.38 -0.177109
10.39 -0.184884
10.4 -0.192425
10.41 -0.199756
10.42 -0.206879
10.43 -0.213835
10.44 -0.220639
10.45 -0.227304
10.46 -0.23384
10.47 -0.240256
10.48 -0.246553
10.49 -0.252736
10.5 -0.258819
10.51 -0.26481
10.52 -0.270717
10.53 -0.276552
10.54 -0.282327
10.55 -0.288057
10.56 -0.293769
10.57 -0.299485
10.58 -0.305232
10.59 -0.311038
10.6 -0.316932
10.61 -0.32295
10.62 -0.32913
10.63 -0.33549
10.64 -0.342055
10.65 -0.348842
10.66 -0.355867
10.67 -0.363138
10.68 -0.370677
10.69 -0.378459
10.7 -0.386462
10.71 -0.394658
10.72 -0.403017
10.73 -0.411496
10.74 -0.420051
10.75 -0.428622
10.76 -0.437147
10.77 -0.445567
10.78 -0.453822
10.79 -0.461855
10.8 -0.469609
10.81 -0.477004
10.82 -0.484004
10.83 -0.490588
10.84 -0.496728
10.85 -0.502407
10.86 -0.507618
10.87 -0.512355
10.88 -0.516593
10.89 -0.5204
10.9 -0.523805
10.91 -0.526841
10.92 -0.529546
10.93 -0.531958
10.94 -0.534102
10.95 -0.536025
10.96 -0.537768
10.97 -0.539358
10.98 -0.540808
10.99 -0.542126
11 -0.543308
11.01 -0.544317
11.02 -0.545141
11.03 -0.545739
11.04 -0.546059
11.05 -0.546042
11.06 -0.545622
11.07 -0.544693
11.08 -0.543167
11.09 -0.540997
11.1 -0.538107
11.11 -0.53443
11.12 -0.529903
11.13 -0.524473
11.14 -0.517993
11.15 -0.510531
11.16 -0.502086
11.17 -0.492664
11.18 -0.482286
11.19 -0.470989
11.2 -0.458789
11.21 -0.445742
11.22 -0.43199
11.23 -0.417621
11.24 -0.402732
11.25 -0.387421
11.26 -0.37179
11.27 -0.355927
11.28 -0.339953
11.29 -0.32396
11.3 -0.308023
11.31 -0.292207
11.32 -0.276562
11.33 -0.261135
11.34 -0.245958
11.35 -0.231016
11.36 -0.216297
11.37 -0.201773
11.38 -0.187408
11.39 -0.173151
11.4 -0.158943
11.41 -0.144708
11.42 -0.130376
11.43 -0.115877
11.44 -0.101144
11.45 -0.0861132
11.46 -0.0707174
11.47 -0.0548744
11.48 -0.0385815
11.49 -0.0218133
11.5 -0.00455581
11.51 0.0131928
11.52 0.0314229
11.53 0.0501466
11.54 0.0693102
11.55 0.0888534
11.56 0.108728
11.57 0.128879
11.58 0.149252
11.59 0.169788
11.6 0.190434
11.61 0.211119
11.62 0.231794
11.63 0.252415
11.64 0.272942
11.65 0.293345
11.66 0.313589
11.67 0.333655
11.68 0.353543
11.69 0.373247
11.7 0.392765
11.71 0.412099
11.72 0.431251
11.73 0.450199
11.74 0.468962
11.75 0.48753
11.76 0.50589
11.77 0.524017
11.78 0.541881
11.79 0.559418
11.8 0.576564
11.81 0.593273
11.82 0.60947
11.83 0.62507
11.84 0.63998
11.85 0.654099
11.86 0.667216
11.87 0.679299
11.88 0.690248
11.89 0.699957
11.9 0.708321
11.91 0.715245
11.92 0.720569
11.93 0.724158
11.94 0.726062
11.95 0.726231
11.96 0.724629
11.97 0.721236
11.98 0.716046
11.99 0.708899
12 0.699962
12.01 0.689312
12.02 0.677004
12.03 0.663105
12.04 0.64769
12.05 0.630801
12.06 0.612474
12.07 0.592925
12.08 0.572257
12.09 0.550572
12.1 0.527975
12.11 0.50457
12.12 0.480407
12.13 0.455639
12.14 0.430387
12.15 0.404744
12.16 0.378806
12.17 0.352664
12.18 0.326406
12.19 0.300132
12.2 0.273937
12.21 0.247909
12.22 0.222134
12.23 0.196699
12.24 0.171694
12.25 0.14725
12.26 0.123453
12.27 0.100369
