# xPDFsuite Configuration #
[PDF]
wavelength = 0.1
dataformat = QA
inputfile = BiMsol6_insitu_700 C-00087.xy
backgroundfile = Quartz2mm-dist500-00000.xy
mode = xray
bgscale = 0.0042
composition = Bi2Fe4O9
outputtype = gr
qmaxinst = 24.998449118
qmin = 0.1
qmax = 21.4986662415
rmax = 80.0
rmin = 0.0
rstep = 0.01
rpoly = 0.9

[Misc]
inputdir = C:/Data/Seafile/CPH/Beamtime/Desy Oct 20/In situ data/Processed/BiMsol6/PDF
savedir = C:/Data/Seafile/CPH/Beamtime/Desy Oct 20/In situ data/PDF/BiMsol6
backgroundfilefull = C:/Data/Seafile/CPH/Beamtime/Desy Oct 20/In situ data/Processed/Standard_Empty_Cap/Quartz2mm-dist500-00000.xy

#### start data
#S 1
#L r($\AA$)  G($\AA^{-2}$)
0 0
0.01 0.00635344
0.02 0.0123513
0.03 0.0176891
0.04 0.0220936
0.05 0.0253355
0.06 0.0272397
0.07 0.0276145
0.08 0.0264035
0.09 0.0237471
0.1 0.0197603
0.11 0.014622
0.12 0.0085672
0.13 0.0018764
0.14 -0.00513547
0.15 -0.0120703
0.16 -0.0185924
0.17 -0.0243864
0.18 -0.0291696
0.19 -0.0327051
0.2 -0.0347497
0.21 -0.0351364
0.22 -0.0339598
0.23 -0.0312832
0.24 -0.0272471
0.25 -0.0220638
0.26 -0.01601
0.27 -0.00940005
0.28 -0.00268937
0.29 0.0037167
0.3 0.00942442
0.31 0.0140592
0.32 0.0172837
0.33 0.0187566
0.34 0.0181434
0.35 0.0154928
0.36 0.0108001
0.37 0.00416319
0.38 -0.00421657
0.39 -0.0140367
0.4 -0.0249468
0.41 -0.0363406
0.42 -0.047623
0.43 -0.0581884
0.44 -0.0674098
0.45 -0.0746624
0.46 -0.0792852
0.47 -0.0804274
0.48 -0.0779019
0.49 -0.0713629
0.5 -0.060585
0.51 -0.0454771
0.52 -0.0260922
0.53 -0.00236351
0.54 0.0251666
0.55 0.0557836
0.56 0.0888222
0.57 0.123504
0.58 0.15896
0.59 0.194241
0.6 0.228135
0.61 0.259695
0.62 0.287968
0.63 0.312059
0.64 0.331162
0.65 0.344588
0.66 0.351375
0.67 0.351136
0.68 0.344049
0.69 0.330122
0.7 0.309551
0.71 0.282706
0.72 0.250129
0.73 0.212031
0.74 0.169905
0.75 0.124723
0.76 0.0775141
0.77 0.0293494
0.78 -0.0186927
0.79 -0.0654439
0.8 -0.10973
0.81 -0.150753
0.82 -0.187742
0.83 -0.220061
0.84 -0.247229
0.85 -0.268928
0.86 -0.28443
0.87 -0.294293
0.88 -0.298821
0.89 -0.298387
0.9 -0.293496
0.91 -0.284761
0.92 -0.272792
0.93 -0.258372
0.94 -0.24253
0.95 -0.22606
0.96 -0.209724
0.97 -0.194233
0.98 -0.180219
0.99 -0.168449
1 -0.159246
1.01 -0.152836
1.02 -0.149373
1.03 -0.148886
1.04 -0.151287
1.05 -0.156447
1.06 -0.164165
1.07 -0.173815
1.08 -0.184951
1.09 -0.197093
1.1 -0.209744
1.11 -0.222419
1.12 -0.234584
1.13 -0.245799
1.14 -0.255742
1.15 -0.264149
1.16 -0.270838
1.17 -0.275713
1.18 -0.278733
1.19 -0.279846
1.2 -0.279402
1.21 -0.27763
1.22 -0.274811
1.23 -0.271259
1.24 -0.267306
1.25 -0.263305
1.26 -0.259622
1.27 -0.256537
1.28 -0.254286
1.29 -0.253048
1.3 -0.252938
1.31 -0.254009
1.32 -0.256347
1.33 -0.259708
1.34 -0.263921
1.35 -0.268759
1.36 -0.273955
1.37 -0.279211
1.38 -0.284179
1.39 -0.2885
1.4 -0.291899
1.41 -0.294117
1.42 -0.294941
1.43 -0.294214
1.44 -0.291844
1.45 -0.287626
1.46 -0.281811
1.47 -0.27455
1.48 -0.266052
1.49 -0.256588
1.5 -0.246476
1.51 -0.236079
1.52 -0.225836
1.53 -0.216148
1.54 -0.20739
1.55 -0.199905
1.56 -0.193997
1.57 -0.18991
1.58 -0.188036
1.59 -0.188302
1.6 -0.190672
1.61 -0.19506
1.62 -0.201295
1.63 -0.209128
1.64 -0.218274
1.65 -0.228333
1.66 -0.238773
1.67 -0.249133
1.68 -0.258943
1.69 -0.267737
1.7 -0.275076
1.71 -0.28036
1.72 -0.283331
1.73 -0.283782
1.74 -0.281537
1.75 -0.276505
1.76 -0.268687
1.77 -0.258108
1.78 -0.244816
1.79 -0.229333
1.8 -0.212008
1.81 -0.193242
1.82 -0.17348
1.83 -0.153189
1.84 -0.132882
1.85 -0.113088
1.86 -0.0942401
1.87 -0.076727
1.88 -0.0608803
1.89 -0.0469632
1.9 -0.0351953
1.91 -0.0258792
1.92 -0.0187936
1.93 -0.0138558
1.94 -0.0109075
1.95 -0.00972241
1.96 -0.0100173
1.97 -0.011517
1.98 -0.0137869
1.99 -0.016399
2 -0.0189851
2.01 -0.0211984
2.02 -0.022727
2.03 -0.0233033
2.04 -0.0225798
2.05 -0.0205534
2.06 -0.0171823
2.07 -0.012501
2.08 -0.00661922
2.09 0.000281893
2.1 0.00798262
2.11 0.0161301
2.12 0.0243263
2.13 0.0321917
2.14 0.0393357
2.15 0.0453714
2.16 0.0499309
2.17 0.0524492
2.18 0.0528055
2.19 0.0508021
2.2 0.046297
2.21 0.039224
2.22 0.0295958
2.23 0.017401
2.24 0.00278554
2.25 -0.0138155
2.26 -0.0320803
2.27 -0.0516365
2.28 -0.0720731
2.29 -0.092954
2.3 -0.113788
2.31 -0.134086
2.32 -0.153433
2.33 -0.17145
2.34 -0.187804
2.35 -0.202219
2.36 -0.214408
2.37 -0.224114
2.38 -0.231472
2.39 -0.236514
2.4 -0.239341
2.41 -0.240119
2.42 -0.239072
2.43 -0.236367
2.44 -0.232445
2.45 -0.227694
2.46 -0.222465
2.47 -0.217103
2.48 -0.211944
2.49 -0.207311
2.5 -0.20356
2.51 -0.200851
2.52 -0.199346
2.53 -0.199147
2.54 -0.200304
2.55 -0.202807
2.56 -0.206681
2.57 -0.211743
2.58 -0.217775
2.59 -0.224575
2.6 -0.231919
2.61 -0.239564
2.62 -0.247263
2.63 -0.254727
2.64 -0.261732
2.65 -0.268075
2.66 -0.273586
2.67 -0.278128
2.68 -0.281603
2.69 -0.283879
2.7 -0.284957
2.71 -0.284928
2.72 -0.283861
2.73 -0.281854
2.74 -0.27903
2.75 -0.275532
2.76 -0.271474
2.77 -0.26709
2.78 -0.262536
2.79 -0.257958
2.8 -0.253485
2.81 -0.249226
2.82 -0.245287
2.83 -0.241732
2.84 -0.238564
2.85 -0.235778
2.86 -0.233343
2.87 -0.231204
2.88 -0.229286
2.89 -0.227504
2.9 -0.225733
2.91 -0.223868
2.92 -0.221803
2.93 -0.219442
2.94 -0.2167
2.95 -0.213482
2.96 -0.209717
2.97 -0.20541
2.98 -0.200558
2.99 -0.195177
3 -0.189302
3.01 -0.182987
3.02 -0.176275
3.03 -0.169285
3.04 -0.162115
3.05 -0.154854
3.06 -0.147593
3.07 -0.14041
3.08 -0.133385
3.09 -0.126586
3.1 -0.120033
3.11 -0.113737
3.12 -0.10769
3.13 -0.10186
3.14 -0.0961983
3.15 -0.0906362
3.16 -0.0850707
3.17 -0.0793989
3.18 -0.0735131
3.19 -0.0673023
3.2 -0.0606564
3.21 -0.0534571
3.22 -0.0455504
3.23 -0.0369123
3.24 -0.0274822
3.25 -0.0172188
3.26 -0.00610229
3.27 0.00586568
3.28 0.0187193
3.29 0.0323795
3.3 0.0467425
3.31 0.0617246
3.32 0.0772292
3.33 0.0931511
3.34 0.109381
3.35 0.125814
3.36 0.14231
3.37 0.15877
3.38 0.175102
3.39 0.191231
3.4 0.207092
3.41 0.222619
3.42 0.237782
3.43 0.252589
3.44 0.267045
3.45 0.281168
3.46 0.294987
3.47 0.308537
3.48 0.321836
3.49 0.334955
3.5 0.347931
3.51 0.360793
3.52 0.373559
3.53 0.386238
3.54 0.398815
3.55 0.411257
3.56 0.423526
3.57 0.43556
3.58 0.447281
3.59 0.458596
3.6 0.469402
3.61 0.479507
3.62 0.488836
3.63 0.497274
3.64 0.504702
3.65 0.511004
3.66 0.516076
3.67 0.519768
3.68 0.521944
3.69 0.522653
3.7 0.521861
3.71 0.519557
3.72 0.51575
3.73 0.510472
3.74 0.50365
3.75 0.495468
3.76 0.486054
3.77 0.475515
3.78 0.463974
3.79 0.45156
3.8 0.438391
3.81 0.424588
3.82 0.410351
3.83 0.395813
3.84 0.381101
3.85 0.366331
3.86 0.351611
3.87 0.337057
3.88 0.322753
3.89 0.30876
3.9 0.295131
3.91 0.281909
3.92 0.269121
3.93 0.256795
3.94 0.244974
3.95 0.233612
3.96 0.222697
3.97 0.212213
3.98 0.20214
3.99 0.192452
4 0.183144
4.01 0.174174
4.02 0.165492
4.03 0.157067
4.04 0.148865
4.05 0.140853
4.06 0.132999
4.07 0.125278
4.08 0.117642
4.09 0.11006
4.1 0.102501
4.11 0.0949367
4.12 0.087341
4.13 0.0796858
4.14 0.0719492
4.15 0.0641204
4.16 0.0561907
4.17 0.0481577
4.18 0.0400255
4.19 0.0318059
4.2 0.0235137
4.21 0.0151883
4.22 0.00686743
4.23 -0.00140397
4.24 -0.00957424
4.25 -0.0175861
4.26 -0.0253639
4.27 -0.0328283
4.28 -0.03993
4.29 -0.0466063
4.3 -0.052798
4.31 -0.0584527
4.32 -0.0635259
4.33 -0.0679185
4.34 -0.0716625
4.35 -0.0747626
4.36 -0.0772294
4.37 -0.0790886
4.38 -0.080381
4.39 -0.0811456
4.4 -0.0814453
4.41 -0.0814038
4.42 -0.0811144
4.43 -0.0806774
4.44 -0.0801963
4.45 -0.0797755
4.46 -0.07954
4.47 -0.0795846
4.48 -0.0799877
4.49 -0.0808189
4.5 -0.0821325
4.51 -0.0839651
4.52 -0.0863483
4.53 -0.0893099
4.54 -0.0927726
4.55 -0.096688
4.56 -0.100989
4.57 -0.105594
4.58 -0.110405
4.59 -0.115312
4.6 -0.120181
4.61 -0.12489
4.62 -0.129321
4.63 -0.133362
4.64 -0.136911
4.65 -0.139866
4.66 -0.142088
4.67 -0.143588
4.68 -0.144335
4.69 -0.144319
4.7 -0.143555
4.71 -0.142075
4.72 -0.139895
4.73 -0.137117
4.74 -0.133866
4.75 -0.130248
4.76 -0.126381
4.77 -0.122384
4.78 -0.118382
4.79 -0.114523
4.8 -0.110916
4.81 -0.107664
4.82 -0.104856
4.83 -0.102567
4.84 -0.100852
4.85 -0.0997876
4.86 -0.0993923
4.87 -0.0996247
4.88 -0.100462
4.89 -0.101865
4.9 -0.103779
4.91 -0.106141
4.92 -0.108906
4.93 -0.111948
4.94 -0.115179
4.95 -0.118515
4.96 -0.121877
4.97 -0.12519
4.98 -0.128379
4.99 -0.131377
5 -0.13415
5.01 -0.136667
5.02 -0.13891
5.03 -0.140869
5.04 -0.142549
5.05 -0.143935
5.06 -0.145074
5.07 -0.145996
5.08 -0.146731
5.09 -0.14731
5.1 -0.147765
5.11 -0.148122
5.12 -0.148406
5.13 -0.148641
5.14 -0.148843
5.15 -0.149016
5.16 -0.149163
5.17 -0.149277
5.18 -0.149344
5.19 -0.14935
5.2 -0.149279
5.21 -0.149114
5.22 -0.148837
5.23 -0.148434
5.24 -0.147888
5.25 -0.147184
5.26 -0.146334
5.27 -0.145343
5.28 -0.144225
5.29 -0.142999
5.3 -0.141687
5.31 -0.140316
5.32 -0.138924
5.33 -0.137547
5.34 -0.136216
5.35 -0.134964
5.36 -0.133815
5.37 -0.132792
5.38 -0.131921
5.39 -0.131192
5.4 -0.130596
5.41 -0.130116
5.42 -0.129726
5.43 -0.129389
5.44 -0.129058
5.45 -0.128672
5.46 -0.128175
5.47 -0.127508
5.48 -0.126611
5.49 -0.125429
5.5 -0.123911
5.51 -0.121967
5.52 -0.119607
5.53 -0.116817
5.54 -0.113592
5.55 -0.109946
5.56 -0.105906
5.57 -0.101499
5.58 -0.0967891
5.59 -0.0918705
5.6 -0.0868252
5.61 -0.0817421
5.62 -0.0767144
5.63 -0.071836
5.64 -0.0672333
5.65 -0.0629743
5.66 -0.0591287
5.67 -0.0557551
5.68 -0.0528957
5.69 -0.0505747
5.7 -0.0488196
5.71 -0.0476243
5.72 -0.0469072
5.73 -0.0466068
5.74 -0.0466442
5.75 -0.0469256
5.76 -0.0473445
5.77 -0.0477768
5.78 -0.0480875
5.79 -0.0481576
5.8 -0.0478736
5.81 -0.0471313
5.82 -0.0458401
5.83 -0.0439041
5.84 -0.0412311
5.85 -0.0378501
5.86 -0.0337611
5.87 -0.0289889
5.88 -0.0235828
5.89 -0.017615
5.9 -0.0111486
5.91 -0.00433734
5.92 0.00267552
5.93 0.00975216
5.94 0.0167506
5.95 0.0235296
5.96 0.0299429
5.97 0.0358161
5.98 0.0410808
5.99 0.0456524
6 0.0494698
6.01 0.052498
6.02 0.0547288
6.03 0.0561278
6.04 0.056779
6.05 0.0567952
6.06 0.0562795
6.07 0.0553544
6.08 0.0541575
6.09 0.0528376
6.1 0.0515704
6.11 0.0505186
6.12 0.0498278
6.13 0.0496316
6.14 0.0500469
6.15 0.0511692
6.16 0.053122
6.17 0.0559424
6.18 0.0595944
6.19 0.0640541
6.2 0.0692681
6.21 0.075155
6.22 0.0816082
6.23 0.0885327
6.24 0.0957142
6.25 0.10299
6.26 0.110191
6.27 0.117148
6.28 0.123694
6.29 0.129638
6.3 0.13481
6.31 0.139136
6.32 0.142523
6.33 0.14491
6.34 0.14626
6.35 0.14657
6.36 0.145764
6.37 0.144002
6.38 0.141383
6.39 0.138019
6.4 0.13404
6.41 0.12959
6.42 0.124817
6.43 0.1199
6.44 0.115017
6.45 0.11032
6.46 0.105949
6.47 0.102026
6.48 0.0986561
6.49 0.0959853
6.5 0.0940261
6.51 0.092787
6.52 0.0922642
6.53 0.0924283
6.54 0.0932258
6.55 0.094595
6.56 0.0964521
6.57 0.0986366
6.58 0.101025
6.59 0.103488
6.6 0.105895
6.61 0.108119
6.62 0.110003
6.63 0.111444
6.64 0.11236
6.65 0.112681
6.66 0.112353
6.67 0.111347
6.68 0.109641
6.69 0.107197
6.7 0.104124
6.71 0.100479
6.72 0.0963353
6.73 0.0917812
6.74 0.0869149
6.75 0.0818349
6.76 0.0766713
6.77 0.0715411
6.78 0.0665481
6.79 0.0617892
6.8 0.0573506
6.81 0.0533103
6.82 0.0497788
6.83 0.046751
6.84 0.0442497
6.85 0.0422811
6.86 0.040835
6.87 0.0398863
6.88 0.0394208
6.89 0.0393754
6.9 0.0396617
6.91 0.0402096
6.92 0.0409448
6.93 0.0417909
6.94 0.0426721
6.95 0.0435031
6.96 0.0442148
6.97 0.0447479
6.98 0.0450515
6.99 0.0450844
7 0.0448151
7.01 0.0442062
7.02 0.0432415
7.03 0.041945
7.04 0.0403276
7.05 0.0384082
7.06 0.0362123
7.07 0.0337709
7.08 0.0311008
7.09 0.0282624
7.1 0.0252967
7.11 0.0222416
7.12 0.0191328
7.13 0.0160038
7.14 0.0128858
7.15 0.00980908
7.16 0.00679307
7.17 0.00385387
7.18 0.00100352
7.19 -0.0017497
7.2 -0.00440073
7.21 -0.00693747
7.22 -0.00936659
7.23 -0.0116915
7.24 -0.0139131
7.25 -0.0160321
7.26 -0.0180477
7.27 -0.0199547
7.28 -0.0217415
7.29 -0.0234107
7.3 -0.0249533
7.31 -0.0263584
7.32 -0.0276134
7.33 -0.0287045
7.34 -0.0296019
7.35 -0.0302977
7.36 -0.0307856
7.37 -0.0310548
7.38 -0.0310972
7.39 -0.0309085
7.4 -0.0304844
7.41 -0.0298119
7.42 -0.0289254
7.43 -0.0278418
7.44 -0.0265836
7.45 -0.0251786
7.46 -0.0236599
7.47 -0.0220627
7.48 -0.0204365
7.49 -0.0188297
7.5 -0.0172888
7.51 -0.0158604
7.52 -0.0145907
7.53 -0.0135249
7.54 -0.0127332
7.55 -0.0122263
7.56 -0.0120325
7.57 -0.0121724
7.58 -0.0126594
7.59 -0.0134979
7.6 -0.0147035
7.61 -0.016259
7.62 -0.01812
7.63 -0.0202538
7.64 -0.0226202
7.65 -0.0251725
7.66 -0.0278586
7.67 -0.0306244
7.68 -0.0333972
7.69 -0.0361174
7.7 -0.0387269
7.71 -0.0411709
7.72 -0.0433993
7.73 -0.0453538
7.74 -0.0469874
7.75 -0.0482938
7.76 -0.0492578
7.77 -0.0498745
7.78 -0.0501501
7.79 -0.050101
7.8 -0.0497274
7.81 -0.0490962
7.82 -0.0482585
7.83 -0.047267
7.84 -0.0461792
7.85 -0.0450557
7.86 -0.043961
7.87 -0.042967
7.88 -0.0421262
7.89 -0.0414882
7.9 -0.0410945
7.91 -0.0409776
7.92 -0.0411587
7.93 -0.0416749
7.94 -0.0425014
7.95 -0.0436103
7.96 -0.0449698
7.97 -0.0465363
7.98 -0.0482556
7.99 -0.0500647
8 -0.0518842
8.01 -0.0536305
8.02 -0.0552255
8.03 -0.0565916
8.04 -0.0576553
8.05 -0.058349
8.06 -0.0585764
8.07 -0.0583032
8.08 -0.0575159
8.09 -0.0561999
8.1 -0.0543567
8.11 -0.0520051
8.12 -0.0491748
8.13 -0.0458901
8.14 -0.0422706
8.15 -0.0384018
8.16 -0.0343805
8.17 -0.0303115
8.18 -0.0263055
8.19 -0.0224945
8.2 -0.0190023
8.21 -0.0159234
8.22 -0.0133529
8.23 -0.0113727
8.24 -0.0100497
8.25 -0.00943522
8.26 -0.00963982
8.27 -0.0105835
8.28 -0.0122454
8.29 -0.0145822
8.3 -0.0175298
8.31 -0.021004
8.32 -0.0249201
8.33 -0.0291428
8.34 -0.0335164
8.35 -0.0379034
8.36 -0.0421636
8.37 -0.0461579
8.38 -0.0497532
8.39 -0.0527561
8.4 -0.0551018
8.41 -0.0567063
8.42 -0.0575022
8.43 -0.0574443
8.44 -0.0565121
8.45 -0.0546712
8.46 -0.051936
8.47 -0.0484277
8.48 -0.0442268
8.49 -0.0394331
8.5 -0.0341621
8.51 -0.028542
8.52 -0.0227028
8.53 -0.016818
8.54 -0.0110312
8.55 -0.0054764
8.56 -0.000277981
8.57 0.00445323
8.58 0.00860119
8.59 0.012053
8.6 0.0148097
8.61 0.0168474
8.62 0.0181659
8.63 0.0187874
8.64 0.0187562
8.65 0.0180923
8.66 0.0169232
8.67 0.0153651
8.68 0.013526
8.69 0.0115197
8.7 0.00946171
8.71 0.00746915
8.72 0.00567366
8.73 0.00416124
8.74 0.00301182
8.75 0.00228907
8.76 0.0020385
8.77 0.00228633
8.78 0.00307632
8.79 0.0043724
8.8 0.00611702
8.81 0.00825688
8.82 0.0107245
8.83 0.013441
8.84 0.01632
8.85 0.0192643
8.86 0.0221658
8.87 0.0249347
8.88 0.0274877
8.89 0.0297507
8.9 0.031662
8.91 0.0331455
8.92 0.034172
8.93 0.0347515
8.94 0.0348898
8.95 0.0346083
8.96 0.0339439
8.97 0.032946
8.98 0.0316524
8.99 0.0301716
9 0.0285792
9.01 0.0269528
9.02 0.025368
9.03 0.0238964
9.04 0.0226149
9.05 0.0215869
9.06 0.0208399
9.07 0.0204
9.08 0.0202786
9.09 0.0204731
9.1 0.0209662
9.11 0.0217517
9.12 0.0227551
9.13 0.0239191
9.14 0.0251824
9.15 0.0264793
9.16 0.0277424
9.17 0.0288987
9.18 0.0298731
9.19 0.0306208
9.2 0.0310982
9.21 0.031273
9.22 0.0311258
9.23 0.0306501
9.24 0.029825
9.25 0.0287
9.26 0.0273187
9.27 0.0257289
9.28 0.023987
9.29 0.0221561
9.3 0.0203052
9.31 0.0185149
9.32 0.0168525
9.33 0.0153797
9.34 0.014151
9.35 0.0132113
9.36 0.0125943
9.37 0.0123508
9.38 0.0124686
9.39 0.0129259
9.4 0.0136986
9.41 0.0147497
9.42 0.0160308
9.43 0.0174859
9.44 0.0190483
9.45 0.0206311
9.46 0.0221611
9.47 0.0235666
9.48 0.0247797
9.49 0.0257392
9.5 0.0263667
9.51 0.0266261
9.52 0.0265056
9.53 0.0259934
9.54 0.0250923
9.55 0.023819
9.56 0.0222011
9.57 0.020259
9.58 0.0180853
9.59 0.0157451
9.6 0.0133092
9.61 0.0108519
9.62 0.00844841
9.63 0.0061841
9.64 0.00413578
9.65 0.00235494
9.66 0.000890791
9.67 -0.00021889
9.68 -0.000949009
9.69 -0.00128791
9.7 -0.00119456
9.71 -0.000732949
9.72 6.46425e-05
9.73 0.00115547
9.74 0.00248745
9.75 0.00400114
9.76 0.00563448
9.77 0.00731095
9.78 0.00895702
9.79 0.0105094
9.8 0.0119103
9.81 0.0131096
9.82 0.0140664
9.83 0.0147204
9.84 0.0150787
9.85 0.0151424
9.86 0.0149212
9.87 0.0144367
9.88 0.0137208
9.89 0.0128098
9.9 0.0117554
9.91 0.0106277
9.92 0.00948538
9.93 0.0083875
9.94 0.00739143
9.95 0.00655044
9.96 0.00593438
9.97 0.00557141
9.98 0.00548367
9.99 0.0056875
10 0.00618791
10.01 0.00697843
10.02 0.00804837
10.03 0.00937851
10.04 0.0109049
10.05 0.0125797
10.06 0.0143488
10.07 0.0161543
10.08 0.0179365
10.09 0.0196238
10.1 0.0211559
10.11 0.0224844
10.12 0.0235641
10.13 0.0243579
10.14 0.0248377
10.15 0.0249796
10.16 0.0247492
10.17 0.0241857
10.18 0.0233057
10.19 0.0221351
10.2 0.0207083
10.21 0.019067
10.22 0.0172506
10.23 0.0153225
10.24 0.0133442
10.25 0.0113696
10.26 0.00945102
10.27 0.0076374
10.28 0.00597413
10.29 0.00452219
10.3 0.00329298
10.31 0.00230721
10.32 0.00157721
10.33 0.00110689
10.34 0.000891923
10.35 0.000933555
10.36 0.00120785
10.37 0.00167414
10.38 0.00230077
10.39 0.00305248
10.4 0.00389168
10.41 0.00477969
10.42 0.00567488
10.43 0.00653567
10.44 0.00732789
10.45 0.0080208
10.46 0.00858771
10.47 0.00900652
10.48 0.00925123
10.49 0.00930509
10.5 0.00917358
10.51 0.0088554
10.52 0.00835355
10.53 0.00767489
10.54 0.00682964
10.55 0.00581673
10.56 0.0046667
10.57 0.0033991
10.58 0.00203219
10.59 0.00058482
10.6 -0.000923982
10.61 -0.0024761
10.62 -0.00405129
10.63 -0.00562835
10.64 -0.00718972
10.65 -0.00871834
10.66 -0.0101977
10.67 -0.0116115
10.68 -0.0129355
10.69 -0.0141576
10.7 -0.0152654
10.71 -0.0162445
10.72 -0.0170812
10.73 -0.0177629
10.74 -0.018273
10.75 -0.0185892
10.76 -0.018719
10.77 -0.0186571
10.78 -0.0184013
10.79 -0.0179522
10.8 -0.0173146
10.81 -0.0164835
10.82 -0.0154818
10.83 -0.0143345
10.84 -0.013064
10.85 -0.0116971
10.86 -0.0102641
10.87 -0.00879869
10.88 -0.00734233
10.89 -0.0059359
10.9 -0.00461831
10.91 -0.00342798
10.92 -0.00240175
10.93 -0.00157381
10.94 -0.000992076
10.95 -0.000680221
10.96 -0.000644894
10.97 -0.000897164
10.98 -0.00144063
10.99 -0.00227102
11 -0.00337714
11.01 -0.00476268
11.02 -0.00636694
11.03 -0.00815279
11.04 -0.010077
11.05 -0.0120912
11.06 -0.0141433
11.07 -0.0161743
11.08 -0.01812
11.09 -0.0199272
11.1 -0.0215443
11.11 -0.0229232
11.12 -0.0240219
11.13 -0.0248046
11.14 -0.0252036
11.15 -0.0252354
11.16 -0.024895
11.17 -0.0241848
11.18 -0.0231165
11.19 -0.0217112
11.2 -0.0199859
11.21 -0.0179777
11.22 -0.0157533
11.23 -0.013363
11.24 -0.0108602
11.25 -0.00830046
11.26 -0.00573941
11.27 -0.00324194
11.28 -0.000860219
11.29 0.0013609
11.3 0.00338129
11.31 0.00516758
11.32 0.0066939
11.33 0.00793217
11.34 0.00885924
11.35 0.00949881
11.36 0.00985945
11.37 0.00995685
11.38 0.00981308
11.39 0.00945558
11.4 0.00890313
11.41 0.00820596
11.42 0.00740592
11.43 0.00653987
11.44 0.00564357
11.45 0.00475055
11.46 0.00389264
11.47 0.00310306
11.48 0.00239828
11.49 0.00179315
11.5 0.00129705
11.51 0.000913909
11.52 0.000642475
11.53 0.000483991
11.54 0.000422147
11.55 0.000438098
11.56 0.000514707
11.57 0.00063327
11.58 0.000774423
11.59 0.000918819
11.6 0.00104505
11.61 0.00113762
11.62 0.00118369
11.63 0.00117359
11.64 0.00110118
11.65 0.000963984
11.66 0.000759368
11.67 0.000494356
11.68 0.000181054
11.69 -0.000168972
11.7 -0.00054204
11.71 -0.000922991
11.72 -0.00129582
11.73 -0.00163995
11.74 -0.00194158
11.75 -0.00218713
11.76 -0.00236502
11.77 -0.00246626
11.78 -0.00248472
11.79 -0.00241275
11.8 -0.0022506
11.81 -0.00200804
11.82 -0.00169246
11.83 -0.00131397
