# xPDFsuite Configuration #
[PDF]
wavelength = 0.1
dataformat = QA
inputfile = BiMsol6_insitu_700 C-00076.xy
backgroundfile = Quartz2mm-dist500-00000.xy
mode = xray
bgscale = 0.0042
composition = Bi2Fe4O9
outputtype = gr
qmaxinst = 24.998449118
qmin = 0.1
qmax = 21.4986662415
rmax = 80.0
rmin = 0.0
rstep = 0.01
rpoly = 0.9

[Misc]
inputdir = C:/Data/Seafile/CPH/Beamtime/Desy Oct 20/In situ data/Processed/BiMsol6/PDF
savedir = C:/Data/Seafile/CPH/Beamtime/Desy Oct 20/In situ data/PDF/BiMsol6
backgroundfilefull = C:/Data/Seafile/CPH/Beamtime/Desy Oct 20/In situ data/Processed/Standard_Empty_Cap/Quartz2mm-dist500-00000.xy

#### start data
#S 1
#L r($\AA$)  G($\AA^{-2}$)
0 0
0.01 0.00661226
0.02 0.012854
0.03 0.018408
0.04 0.0229897
0.05 0.0263604
0.06 0.028338
0.07 0.0287235
0.08 0.0274589
0.09 0.0246909
0.1 0.0205403
0.11 0.0151943
0.12 0.00889846
0.13 0.00194546
0.14 -0.00533558
0.15 -0.0125304
0.16 -0.0192897
0.17 -0.0252856
0.18 -0.0302246
0.19 -0.0338614
0.2 -0.035944
0.21 -0.0363006
0.22 -0.0350316
0.23 -0.032205
0.24 -0.0279683
0.25 -0.0225441
0.26 -0.0162215
0.27 -0.0093286
0.28 -0.00233855
0.29 0.00432807
0.3 0.0102634
0.31 0.01508
0.32 0.0184302
0.33 0.0199626
0.34 0.0193341
0.35 0.016599
0.36 0.0117559
0.37 0.00490983
0.38 -0.00372765
0.39 -0.013841
0.4 -0.0250645
0.41 -0.0367718
0.42 -0.0483496
0.43 -0.0591748
0.44 -0.0686048
0.45 -0.0760008
0.46 -0.0806894
0.47 -0.0818055
0.48 -0.0791676
0.49 -0.0724326
0.5 -0.061382
0.51 -0.0459362
0.52 -0.0261639
0.53 -0.00201655
0.54 0.0259374
0.55 0.0569582
0.56 0.0903565
0.57 0.125331
0.58 0.160989
0.59 0.196363
0.6 0.230213
0.61 0.261597
0.62 0.289557
0.63 0.313204
0.64 0.331743
0.65 0.344499
0.66 0.350533
0.67 0.34949
0.68 0.341585
0.69 0.326865
0.7 0.305562
0.71 0.278084
0.72 0.245009
0.73 0.206605
0.74 0.164374
0.75 0.119309
0.76 0.0724516
0.77 0.0248758
0.78 -0.0223449
0.79 -0.0680472
0.8 -0.111083
0.81 -0.150703
0.82 -0.186178
0.83 -0.216923
0.84 -0.242509
0.85 -0.262675
0.86 -0.276766
0.87 -0.285393
0.88 -0.288909
0.89 -0.287732
0.9 -0.282405
0.91 -0.273568
0.92 -0.261862
0.93 -0.248086
0.94 -0.233234
0.95 -0.218075
0.96 -0.203336
0.97 -0.189681
0.98 -0.177687
0.99 -0.168063
1 -0.161044
1.01 -0.156783
1.02 -0.155358
1.03 -0.156729
1.04 -0.160743
1.05 -0.167202
1.06 -0.175831
1.07 -0.185999
1.08 -0.197241
1.09 -0.209068
1.1 -0.220997
1.11 -0.232564
1.12 -0.243248
1.13 -0.252685
1.14 -0.260629
1.15 -0.266888
1.16 -0.271358
1.17 -0.274024
1.18 -0.274928
1.19 -0.274121
1.2 -0.272011
1.21 -0.268891
1.22 -0.26509
1.23 -0.26096
1.24 -0.256856
1.25 -0.253168
1.26 -0.250238
1.27 -0.2483
1.28 -0.247546
1.29 -0.2481
1.3 -0.250011
1.31 -0.253258
1.32 -0.257845
1.33 -0.263429
1.34 -0.269757
1.35 -0.276524
1.36 -0.283391
1.37 -0.289999
1.38 -0.295926
1.39 -0.300773
1.4 -0.304271
1.41 -0.306159
1.42 -0.306237
1.43 -0.304379
1.44 -0.300536
1.45 -0.294537
1.46 -0.286735
1.47 -0.277361
1.48 -0.266704
1.49 -0.255115
1.5 -0.242996
1.51 -0.230794
1.52 -0.219033
1.53 -0.208155
1.54 -0.198578
1.55 -0.190674
1.56 -0.184759
1.57 -0.181079
1.58 -0.180043
1.59 -0.18151
1.6 -0.185391
1.61 -0.191538
1.62 -0.199715
1.63 -0.209599
1.64 -0.220827
1.65 -0.232909
1.66 -0.245237
1.67 -0.257282
1.68 -0.268514
1.69 -0.278417
1.7 -0.286515
1.71 -0.292149
1.72 -0.295073
1.73 -0.295101
1.74 -0.292076
1.75 -0.285941
1.76 -0.276743
1.77 -0.264556
1.78 -0.249488
1.79 -0.232149
1.8 -0.212954
1.81 -0.192374
1.82 -0.170917
1.83 -0.149109
1.84 -0.127532
1.85 -0.106752
1.86 -0.0872189
1.87 -0.0693349
1.88 -0.053434
1.89 -0.039769
1.9 -0.0285419
1.91 -0.0200403
1.92 -0.0139716
1.93 -0.0102038
1.94 -0.00852481
1.95 -0.00865278
1.96 -0.0102486
1.97 -0.0129757
1.98 -0.0163454
1.99 -0.0198922
2 -0.0232153
2.01 -0.025944
2.02 -0.0277529
2.03 -0.0283701
2.04 -0.0274315
2.05 -0.0249799
2.06 -0.0210008
2.07 -0.0155632
2.08 -0.00881673
2.09 -0.000986277
2.1 0.00766126
2.11 0.0167206
2.12 0.0257504
2.13 0.0343329
2.14 0.0420446
2.15 0.0484733
2.16 0.0532333
2.17 0.0557286
2.18 0.0558606
2.19 0.0534439
2.2 0.0483556
2.21 0.0405556
2.22 0.0300889
2.23 0.0169793
2.24 0.00141798
2.25 -0.0161138
2.26 -0.0352537
2.27 -0.0555911
2.28 -0.0766807
2.29 -0.0980572
2.3 -0.119187
2.31 -0.13958
2.32 -0.158819
2.33 -0.176524
2.34 -0.192374
2.35 -0.206108
2.36 -0.217459
2.37 -0.226193
2.38 -0.232493
2.39 -0.236425
2.4 -0.238126
2.41 -0.237796
2.42 -0.235694
2.43 -0.232024
2.44 -0.227255
2.45 -0.221789
2.46 -0.21599
2.47 -0.210213
2.48 -0.204793
2.49 -0.200055
2.5 -0.196352
2.51 -0.193815
2.52 -0.192586
2.53 -0.19275
2.54 -0.19433
2.55 -0.197297
2.56 -0.201653
2.57 -0.207194
2.58 -0.213684
2.59 -0.220911
2.6 -0.228641
2.61 -0.236629
2.62 -0.244627
2.63 -0.252347
2.64 -0.25958
2.65 -0.266133
2.66 -0.27185
2.67 -0.276607
2.68 -0.280321
2.69 -0.282873
2.7 -0.284278
2.71 -0.28463
2.72 -0.284002
2.73 -0.282489
2.74 -0.280209
2.75 -0.277295
2.76 -0.273847
2.77 -0.270076
2.78 -0.266115
2.79 -0.262086
2.8 -0.258095
2.81 -0.254225
2.82 -0.250551
2.83 -0.247115
2.84 -0.243911
2.85 -0.240923
2.86 -0.238116
2.87 -0.235437
2.88 -0.23282
2.89 -0.23018
2.9 -0.227432
2.91 -0.224499
2.92 -0.221311
2.93 -0.217808
2.94 -0.213942
2.95 -0.209666
2.96 -0.204954
2.97 -0.199845
2.98 -0.194366
2.99 -0.188559
3 -0.182482
3.01 -0.176201
3.02 -0.169785
3.03 -0.163329
3.04 -0.156909
3.05 -0.150594
3.06 -0.14444
3.07 -0.138491
3.08 -0.132783
3.09 -0.127336
3.1 -0.122113
3.11 -0.117079
3.12 -0.112179
3.13 -0.107342
3.14 -0.102481
3.15 -0.0974794
3.16 -0.0922247
3.17 -0.0866126
3.18 -0.0805371
3.19 -0.0738982
3.2 -0.066607
3.21 -0.0585716
3.22 -0.0496703
3.23 -0.0399419
3.24 -0.0293755
3.25 -0.017982
3.26 -0.00579385
3.27 0.00713639
3.28 0.0207812
3.29 0.0350203
3.3 0.0497254
3.31 0.06479
3.32 0.0801054
3.33 0.0955648
3.34 0.111067
3.35 0.126506
3.36 0.141805
3.37 0.156907
3.38 0.171773
3.39 0.18638
3.4 0.200728
3.41 0.214818
3.42 0.228691
3.43 0.242408
3.44 0.256027
3.45 0.269609
3.46 0.283219
3.47 0.296916
3.48 0.310775
3.49 0.324821
3.5 0.339074
3.51 0.353537
3.52 0.368189
3.53 0.382988
3.54 0.397867
3.55 0.412721
3.56 0.427429
3.57 0.441859
3.58 0.455859
3.59 0.469272
3.6 0.481929
3.61 0.493547
3.62 0.50403
3.63 0.513234
3.64 0.521019
3.65 0.527262
3.66 0.531862
3.67 0.534671
3.68 0.535576
3.69 0.534697
3.7 0.532051
3.71 0.527685
3.72 0.521671
3.73 0.514106
3.74 0.504991
3.75 0.49458
3.76 0.483063
3.77 0.470603
3.78 0.457368
3.79 0.443526
3.8 0.429232
3.81 0.414648
3.82 0.39995
3.83 0.385266
3.84 0.370707
3.85 0.356368
3.86 0.342324
3.87 0.328666
3.88 0.315421
3.89 0.302597
3.9 0.2902
3.91 0.278228
3.92 0.266664
3.93 0.255495
3.94 0.24472
3.95 0.234271
3.96 0.224118
3.97 0.214234
3.98 0.204592
3.99 0.195169
4 0.185958
4.01 0.176938
4.02 0.168089
4.03 0.1594
4.04 0.150865
4.05 0.142477
4.06 0.134232
4.07 0.126134
4.08 0.118156
4.09 0.110287
4.1 0.10251
4.11 0.0948065
4.12 0.087154
4.13 0.0795289
4.14 0.0719023
4.15 0.0642481
4.16 0.0565433
4.17 0.0487685
4.18 0.0409091
4.19 0.0329568
4.2 0.0249018
4.21 0.0167655
4.22 0.00856961
4.23 0.000345437
4.24 -0.00786539
4.25 -0.0160117
4.26 -0.0240243
4.27 -0.0318219
4.28 -0.0393409
4.29 -0.0465063
4.3 -0.0532437
4.31 -0.059482
4.32 -0.0651563
4.33 -0.0701425
4.34 -0.074448
4.35 -0.0780556
4.36 -0.0809553
4.37 -0.0831542
4.38 -0.0846777
4.39 -0.0855476
4.4 -0.0858129
4.41 -0.085604
4.42 -0.0850161
4.43 -0.0841552
4.44 -0.0831349
4.45 -0.0820734
4.46 -0.081107
4.47 -0.0803584
4.48 -0.0799302
4.49 -0.0799156
4.5 -0.0803922
4.51 -0.0814196
4.52 -0.0830534
4.53 -0.0853485
4.54 -0.0882391
4.55 -0.0916907
4.56 -0.0956468
4.57 -0.100031
4.58 -0.104749
4.59 -0.109702
4.6 -0.114742
4.61 -0.119735
4.62 -0.124551
4.63 -0.129065
4.64 -0.133158
4.65 -0.136713
4.66 -0.139574
4.67 -0.141728
4.68 -0.143126
4.69 -0.143744
4.7 -0.143579
4.71 -0.142653
4.72 -0.140965
4.73 -0.138609
4.74 -0.135707
4.75 -0.132363
4.76 -0.128695
4.77 -0.124824
4.78 -0.120879
4.79 -0.117007
4.8 -0.113335
4.81 -0.109975
4.82 -0.107027
4.83 -0.104575
4.84 -0.102687
4.85 -0.101448
4.86 -0.100889
4.87 -0.100978
4.88 -0.101697
4.89 -0.103015
4.9 -0.10488
4.91 -0.10723
4.92 -0.110027
4.93 -0.113135
4.94 -0.116464
4.95 -0.119924
4.96 -0.123429
4.97 -0.126894
4.98 -0.130236
4.99 -0.133374
5 -0.136265
5.01 -0.138867
5.02 -0.141152
5.03 -0.143102
5.04 -0.144712
5.05 -0.145956
5.06 -0.146881
5.07 -0.147517
5.08 -0.147895
5.09 -0.148051
5.1 -0.148021
5.11 -0.147838
5.12 -0.14754
5.13 -0.14717
5.14 -0.146757
5.15 -0.146325
5.16 -0.145894
5.17 -0.145477
5.18 -0.145086
5.19 -0.144724
5.2 -0.144388
5.21 -0.144076
5.22 -0.143781
5.23 -0.143495
5.24 -0.143212
5.25 -0.142923
5.26 -0.142622
5.27 -0.142305
5.28 -0.141969
5.29 -0.141614
5.3 -0.14124
5.31 -0.140847
5.32 -0.14044
5.33 -0.140021
5.34 -0.13959
5.35 -0.139147
5.36 -0.138687
5.37 -0.138203
5.38 -0.13768
5.39 -0.137103
5.4 -0.136454
5.41 -0.135708
5.42 -0.13484
5.43 -0.133822
5.44 -0.132609
5.45 -0.131171
5.46 -0.129491
5.47 -0.127545
5.48 -0.125314
5.49 -0.122787
5.5 -0.119958
5.51 -0.116799
5.52 -0.113362
5.53 -0.109672
5.54 -0.105765
5.55 -0.101684
5.56 -0.0974824
5.57 -0.0932194
5.58 -0.0889694
5.59 -0.0848029
5.6 -0.080787
5.61 -0.0769863
5.62 -0.0734603
5.63 -0.0702607
5.64 -0.0674728
5.65 -0.0650903
5.66 -0.0631224
5.67 -0.0615661
5.68 -0.0604031
5.69 -0.0595989
5.7 -0.0591149
5.71 -0.0588834
5.72 -0.0588039
5.73 -0.0587882
5.74 -0.0587421
5.75 -0.0585678
5.76 -0.0581677
5.77 -0.0574083
5.78 -0.0562196
5.79 -0.0545352
5.8 -0.0522969
5.81 -0.0494631
5.82 -0.0460112
5.83 -0.0419186
5.84 -0.0371786
5.85 -0.0318882
5.86 -0.0261116
5.87 -0.019931
5.88 -0.013444
5.89 -0.00676036
5.9 -3.05492e-06
5.91 0.00668434
5.92 0.0131763
5.93 0.019354
5.94 0.0251076
5.95 0.0303403
5.96 0.0349566
5.97 0.0388418
5.98 0.0420213
5.99 0.0444857
6 0.0462498
6.01 0.0473525
6.02 0.0478552
6.03 0.0478097
6.04 0.0473504
6.05 0.0466177
6.06 0.0457406
6.07 0.0448536
6.08 0.0440917
6.09 0.0435908
6.1 0.0435236
6.11 0.0439664
6.12 0.0450074
6.13 0.0467142
6.14 0.0491313
6.15 0.0522784
6.16 0.0561935
6.17 0.0608285
6.18 0.0660822
6.19 0.0718694
6.2 0.0780859
6.21 0.0846112
6.22 0.0913128
6.23 0.0980375
6.24 0.104624
6.25 0.110932
6.26 0.116828
6.27 0.12219
6.28 0.12691
6.29 0.130858
6.3 0.133952
6.31 0.136202
6.32 0.137593
6.33 0.138139
6.34 0.137872
6.35 0.136849
6.36 0.135085
6.37 0.132748
6.38 0.129956
6.39 0.126827
6.4 0.123481
6.41 0.120042
6.42 0.116635
6.43 0.11339
6.44 0.110401
6.45 0.10775
6.46 0.105501
6.47 0.103703
6.48 0.102383
6.49 0.101592
6.5 0.10128
6.51 0.101401
6.52 0.101905
6.53 0.102727
6.54 0.103791
6.55 0.105018
6.56 0.10631
6.57 0.107565
6.58 0.108696
6.59 0.109622
6.6 0.11027
6.61 0.110575
6.62 0.11045
6.63 0.109877
6.64 0.108848
6.65 0.107359
6.66 0.105421
6.67 0.103056
6.68 0.100294
6.69 0.0971623
6.7 0.0937547
6.71 0.0901349
6.72 0.0863701
6.73 0.0825291
6.74 0.07868
6.75 0.0748966
6.76 0.0712456
6.77 0.0677761
6.78 0.0645325
6.79 0.0615501
6.8 0.0588547
6.81 0.0564653
6.82 0.0544192
6.83 0.0526779
6.84 0.0512281
6.85 0.0500492
6.86 0.0491144
6.87 0.0483917
6.88 0.047854
6.89 0.0474565
6.9 0.0471505
6.91 0.0468976
6.92 0.0466607
6.93 0.0464049
6.94 0.0460988
6.95 0.0457026
6.96 0.0451996
6.97 0.0445716
6.98 0.0438043
6.99 0.0428873
7 0.0418145
7.01 0.0405749
7.02 0.0391667
7.03 0.0376041
7.04 0.035893
7.05 0.0340406
7.06 0.0320556
7.07 0.0299478
7.08 0.027717
7.09 0.0253853
7.1 0.0229653
7.11 0.0204684
7.12 0.0179061
7.13 0.01529
7.14 0.0126308
7.15 0.00994124
7.16 0.00723681
7.17 0.00453035
7.18 0.00183503
7.19 -0.0008356
7.2 -0.00346766
7.21 -0.0060408
7.22 -0.00854256
7.23 -0.01096
7.24 -0.013279
7.25 -0.0154858
7.26 -0.0175672
7.27 -0.0195066
7.28 -0.0212817
7.29 -0.0228952
7.3 -0.024338
7.31 -0.0256028
7.32 -0.0266838
7.33 -0.0275764
7.34 -0.0282626
7.35 -0.02875
7.36 -0.0290466
7.37 -0.0291551
7.38 -0.0290801
7.39 -0.0288276
7.4 -0.0284029
7.41 -0.0278038
7.42 -0.0270588
7.43 -0.0261818
7.44 -0.0251885
7.45 -0.0240963
7.46 -0.0229248
7.47 -0.0216933
7.48 -0.02043
7.49 -0.0191635
7.5 -0.0179209
7.51 -0.0167311
7.52 -0.0156238
7.53 -0.0146302
7.54 -0.0137993
7.55 -0.0131475
7.56 -0.0127028
7.57 -0.0124909
7.58 -0.0125346
7.59 -0.0128526
7.6 -0.0134767
7.61 -0.0144157
7.62 -0.0156533
7.63 -0.0171835
7.64 -0.018993
7.65 -0.0210613
7.66 -0.0233607
7.67 -0.0258737
7.68 -0.028533
7.69 -0.0312895
7.7 -0.0340907
7.71 -0.0368813
7.72 -0.0396044
7.73 -0.0421944
7.74 -0.0445847
7.75 -0.0467344
7.76 -0.0485991
7.77 -0.0501417
7.78 -0.0513338
7.79 -0.0521569
7.8 -0.0525659
7.81 -0.0525988
7.82 -0.0522805
7.83 -0.0516407
7.84 -0.0507198
7.85 -0.0495675
7.86 -0.0482378
7.87 -0.0467994
7.88 -0.0453339
7.89 -0.043911
7.9 -0.0425986
7.91 -0.0414608
7.92 -0.0405552
7.93 -0.0399592
7.94 -0.0396955
7.95 -0.0397779
7.96 -0.0402137
7.97 -0.0409954
7.98 -0.0421005
7.99 -0.0434974
8 -0.0451423
8.01 -0.0469432
8.02 -0.0488241
8.03 -0.0507019
8.04 -0.0524892
8.05 -0.0540977
8.06 -0.0554137
8.07 -0.0563578
8.08 -0.0568717
8.09 -0.0568989
8.1 -0.056398
8.11 -0.0553449
8.12 -0.053726
8.13 -0.0515114
8.14 -0.0487976
8.15 -0.0456423
8.16 -0.0421213
8.17 -0.0383253
8.18 -0.0343581
8.19 -0.0303374
8.2 -0.0264015
8.21 -0.0226735
8.22 -0.0192709
8.23 -0.016304
8.24 -0.0138717
8.25 -0.0120604
8.26 -0.0110165
8.27 -0.0107067
8.28 -0.0111465
8.29 -0.0123271
8.3 -0.0142156
8.31 -0.0167552
8.32 -0.0198933
8.33 -0.0235145
8.34 -0.0274649
8.35 -0.031612
8.36 -0.035815
8.37 -0.0399299
8.38 -0.0438131
8.39 -0.0472725
8.4 -0.0502079
8.41 -0.0525136
8.42 -0.0541
8.43 -0.0548993
8.44 -0.0548675
8.45 -0.0539479
8.46 -0.0521303
8.47 -0.0495153
8.48 -0.0461662
8.49 -0.0421673
8.5 -0.0376213
8.51 -0.0326459
8.52 -0.027353
8.53 -0.0219166
8.54 -0.016478
8.55 -0.0111687
8.56 -0.00611175
8.57 -0.00141795
8.58 0.00279933
8.59 0.00643023
8.6 0.00946472
8.61 0.0118759
8.62 0.0136594
8.63 0.0148329
8.64 0.0154349
8.65 0.0154841
8.66 0.0150943
8.67 0.0143692
8.68 0.0134049
8.69 0.0123016
8.7 0.0111593
8.71 0.0100776
8.72 0.00916554
8.73 0.00849002
8.74 0.00811058
8.75 0.00807041
8.76 0.00839517
8.77 0.00909235
8.78 0.0101769
8.79 0.0116022
8.8 0.0133068
8.81 0.0152314
8.82 0.0173073
8.83 0.0194594
8.84 0.0216081
8.85 0.0236587
8.86 0.0255406
8.87 0.0271887
8.88 0.0285489
8.89 0.0295793
8.9 0.0302527
8.91 0.0305332
8.92 0.0304326
8.93 0.0299934
8.94 0.029253
8.95 0.0282609
8.96 0.0270766
8.97 0.0257673
8.98 0.0244068
8.99 0.0230803
9 0.0218575
9.01 0.0208021
9.02 0.0199693
9.03 0.0194032
9.04 0.0191521
9.05 0.0192362
9.06 0.0196342
9.07 0.0203289
9.08 0.0212889
9.09 0.0224697
9.1 0.0238163
9.11 0.0252678
9.12 0.0267369
9.13 0.0281498
9.14 0.0294348
9.15 0.0305249
9.16 0.03136
9.17 0.0318755
9.18 0.0320192
9.19 0.031795
9.2 0.0311985
9.21 0.0302412
9.22 0.0289502
9.23 0.027367
9.24 0.0255297
9.25 0.0235306
9.26 0.0214503
9.27 0.0193688
9.28 0.0173673
9.29 0.0155252
9.3 0.0139264
9.31 0.0126601
9.32 0.0117565
9.33 0.0112528
9.34 0.0111706
9.35 0.0115149
9.36 0.0122737
9.37 0.0134469
9.38 0.0149615
9.39 0.0167429
9.4 0.0187175
9.41 0.0208034
9.42 0.0229129
9.43 0.0249531
9.44 0.026813
9.45 0.0284189
9.46 0.029698
9.47 0.0305889
9.48 0.0310444
9.49 0.0310329
9.5 0.0305045
9.51 0.0294801
9.52 0.0280059
9.53 0.0261233
9.54 0.0238885
9.55 0.02137
9.56 0.0186455
9.57 0.0157999
9.58 0.0129434
9.59 0.010165
9.6 0.00755005
9.61 0.00517659
9.62 0.00311296
9.63 0.00144074
9.64 0.000202604
9.65 -0.000600273
9.66 -0.00096274
9.67 -0.000895975
9.68 -0.000426769
9.69 0.00040379
9.7 0.00157031
9.71 0.00296646
9.72 0.00451921
9.73 0.00615247
9.74 0.00778966
9.75 0.00935677
9.76 0.0107749
9.77 0.0119731
9.78 0.0129149
9.79 0.0135661
9.8 0.0139069
9.81 0.0139318
9.82 0.0136495
9.83 0.0130569
9.84 0.0122215
9.85 0.011196
9.86 0.0100376
9.87 0.00880947
9.88 0.00757776
9.89 0.00641416
9.9 0.00539563
9.91 0.00457328
9.92 0.00399569
9.93 0.00370128
9.94 0.00371683
9.95 0.00405643
9.96 0.00475013
9.97 0.00575926
9.98 0.00704792
9.99 0.00857688
10 0.0102974
10.01 0.0121534
10.02 0.0140836
10.03 0.0160156
10.04 0.01788
10.05 0.0196158
10.06 0.0211672
10.07 0.0224859
10.08 0.0235322
10.09 0.024251
10.1 0.0246383
10.11 0.0247019
10.12 0.0244501
10.13 0.0239022
10.14 0.0230874
10.15 0.0220395
10.16 0.0207936
10.17 0.0194211
10.18 0.0179731
10.19 0.0165006
10.2 0.0150523
10.21 0.0136726
10.22 0.0124103
10.23 0.0112974
10.24 0.01035
10.25 0.00958024
10.26 0.0089918
10.27 0.0085797
10.28 0.00833216
10.29 0.00824145
10.3 0.00826364
10.31 0.00836903
10.32 0.00852611
10.33 0.00870326
10.34 0.00887032
10.35 0.00899648
10.36 0.00905626
10.37 0.00903612
10.38 0.00892634
10.39 0.00872364
10.4 0.00843109
10.41 0.0080577
10.42 0.00761218
10.43 0.00712247
10.44 0.00661046
10.45 0.0060987
10.46 0.00560917
10.47 0.00516169
10.48 0.00477601
10.49 0.00446575
10.5 0.00423056
10.51 0.00406745
10.52 0.00396642
10.53 0.00391053
10.54 0.00387638
10.55 0.00383074
10.56 0.00373656
10.57 0.0035572
10.58 0.00325524
10.59 0.00279458
10.6 0.00214239
10.61 0.00126199
10.62 0.000121266
10.63 -0.00127117
10.64 -0.00291413
10.65 -0.00479532
10.66 -0.00689096
10.67 -0.00916592
10.68 -0.0115812
10.69 -0.0140644
10.7 -0.0165465
10.71 -0.0189564
10.72 -0.02122
10.73 -0.0232626
10.74 -0.0250022
10.75 -0.0263407
10.76 -0.0272494
10.77 -0.027683
10.78 -0.0276099
10.79 -0.0270131
10.8 -0.0258924
10.81 -0.0242267
10.82 -0.0220787
10.83 -0.0195222
10.84 -0.0166269
10.85 -0.0134755
10.86 -0.0101613
10.87 -0.00678612
10.88 -0.00347287
10.89 -0.000331935
10.9 0.00253415
10.91 0.00502996
10.92 0.00707044
10.93 0.00858392
10.94 0.00947199
10.95 0.00970651
10.96 0.00930349
10.97 0.00827067
10.98 0.00663597
10.99 0.00444671
11 0.00176628
11.01 -0.00135707
11.02 -0.00477265
11.03 -0.00837422
11.04 -0.0120501
11.05 -0.0156868
11.06 -0.0191729
11.07 -0.0223818
11.08 -0.0252027
11.09 -0.0275711
11.1 -0.0294217
11.11 -0.0307064
11.12 -0.031396
11.13 -0.0314801
11.14 -0.0309049
11.15 -0.0297656
11.16 -0.0281146
11.17 -0.0260148
11.18 -0.0235403
11.19 -0.0207744
11.2 -0.0178006
11.21 -0.0147202
11.22 -0.0116354
11.23 -0.00862958
11.24 -0.00577834
11.25 -0.00314691
11.26 -0.000788265
11.27 0.00122473
11.28 0.00289279
11.29 0.00421532
11.3 0.00520008
11.31 0.00586767
11.32 0.0062499
11.33 0.0063809
11.34 0.00630667
11.35 0.00609921
11.36 0.00581187
11.37 0.0054961
11.38 0.00519899
11.39 0.00496109
11.4 0.00482472
11.41 0.00480762
11.42 0.00491568
11.43 0.00514647
11.44 0.00548688
11.45 0.00591389
11.46 0.00639628
11.47 0.00689102
11.48 0.00734958
11.49 0.00772623
11.5 0.00797604
11.51 0.0080573
11.52 0.00793386
11.53 0.0075577
11.54 0.00691788
11.55 0.00601898
11.56 0.00486812
11.57 0.00348463
11.58 0.00189969
11.59 0.000154208
11.6 -0.00170208
11.61 -0.00359195
11.62 -0.00544889
11.63 -0.00720407
11.64 -0.00878912
11.65 -0.0101389
11.66 -0.0111712
11.67 -0.0118341
11.68 -0.012107
11.69 -0.0119667
11.7 -0.0114049
11.71 -0.0104284
11.72 -0.00905884
11.73 -0.00729945
11.74 -0.00524966
11.75 -0.00297614
11.76 -0.000555059
11.77 0.0019306
11.78 0.00439392
11.79 0.00673622
11.8 0.00885863
11.81 0.0106915
11.82 0.012167
11.83 0.0132295
11.84 0.0138376
11.85 0.0139658
