# xPDFsuite Configuration #
[PDF]
wavelength = 0.1
dataformat = QA
inputfile = BiMsol6_insitu_700 C-00398.xy
backgroundfile = Quartz2mm-dist500-00000.xy
mode = xray
bgscale = 0.0042
composition = Bi2Fe4O9
outputtype = gr
qmaxinst = 24.998449118
qmin = 0.1
qmax = 21.4986662415
rmax = 80.0
rmin = 0.0
rstep = 0.01
rpoly = 0.9

[Misc]
inputdir = C:/Data/Seafile/CPH/Beamtime/Desy Oct 20/In situ data/Processed/BiMsol6/PDF
savedir = C:/Data/Seafile/CPH/Beamtime/Desy Oct 20/In situ data/PDF/BiMsol6
backgroundfilefull = C:/Data/Seafile/CPH/Beamtime/Desy Oct 20/In situ data/Processed/Standard_Empty_Cap/Quartz2mm-dist500-00000.xy

#### start data
#S 1
#L r($\AA$)  G($\AA^{-2}$)
0 0
0.01 0.00616087
0.02 0.0119729
0.03 0.0171376
0.04 0.0213872
0.05 0.0244967
0.06 0.0262949
0.07 0.0265943
0.08 0.0253406
0.09 0.022672
0.1 0.0187022
0.11 0.0136079
0.12 0.00762037
0.13 0.0010158
0.14 -0.00589518
0.15 -0.0127221
0.16 -0.0191354
0.17 -0.024826
0.18 -0.0295167
0.19 -0.0329764
0.2 -0.0349678
0.21 -0.0353292
0.22 -0.0341567
0.23 -0.0315157
0.24 -0.0275479
0.25 -0.0224659
0.26 -0.0165457
0.27 -0.0101027
0.28 -0.0035878
0.29 0.00259723
0.3 0.00806187
0.31 0.0124349
0.32 0.0153827
0.33 0.0165672
0.34 0.0156573
0.35 0.0127061
0.36 0.0077121
0.37 0.0007762
0.38 -0.00789704
0.39 -0.018002
0.4 -0.0291835
0.41 -0.0408316
0.42 -0.0523472
0.43 -0.0631193
0.44 -0.0725152
0.45 -0.0799031
0.46 -0.0846129
0.47 -0.0857793
0.48 -0.0832098
0.49 -0.0765478
0.5 -0.0655565
0.51 -0.0501331
0.52 -0.030319
0.53 -0.00602663
0.54 0.0222097
0.55 0.0536778
0.56 0.087719
0.57 0.123559
0.58 0.160328
0.59 0.197077
0.6 0.2326
0.61 0.265923
0.62 0.296076
0.63 0.322146
0.64 0.343303
0.65 0.35883
0.66 0.367735
0.67 0.369591
0.68 0.364541
0.69 0.352558
0.7 0.333799
0.71 0.308602
0.72 0.277473
0.73 0.240564
0.74 0.199365
0.75 0.154828
0.76 0.107968
0.77 0.0598448
0.78 0.0115345
0.79 -0.035806
0.8 -0.0809947
0.81 -0.123195
0.82 -0.161611
0.83 -0.195578
0.84 -0.224583
0.85 -0.24827
0.86 -0.265879
0.87 -0.277916
0.88 -0.284641
0.89 -0.286391
0.9 -0.283635
0.91 -0.276958
0.92 -0.266937
0.93 -0.254328
0.94 -0.240159
0.95 -0.225218
0.96 -0.21027
0.97 -0.196034
0.98 -0.183156
0.99 -0.172419
1 -0.164179
1.01 -0.158695
1.02 -0.156153
1.03 -0.156612
1.04 -0.160017
1.05 -0.166269
1.06 -0.175205
1.07 -0.186207
1.08 -0.198844
1.09 -0.21264
1.1 -0.2271
1.11 -0.241727
1.12 -0.25598
1.13 -0.269384
1.14 -0.281581
1.15 -0.292269
1.16 -0.301222
1.17 -0.3083
1.18 -0.313412
1.19 -0.31644
1.2 -0.317701
1.21 -0.317387
1.22 -0.315742
1.23 -0.313054
1.24 -0.309636
1.25 -0.305808
1.26 -0.301945
1.27 -0.298358
1.28 -0.295306
1.29 -0.293001
1.3 -0.291601
1.31 -0.291209
1.32 -0.291961
1.33 -0.293696
1.34 -0.296306
1.35 -0.299629
1.36 -0.30346
1.37 -0.307562
1.38 -0.311657
1.39 -0.315437
1.4 -0.318645
1.41 -0.321045
1.42 -0.322434
1.43 -0.322655
1.44 -0.321602
1.45 -0.31908
1.46 -0.31526
1.47 -0.310243
1.48 -0.304182
1.49 -0.297282
1.5 -0.289796
1.51 -0.282011
1.52 -0.274285
1.53 -0.266956
1.54 -0.260336
1.55 -0.254716
1.56 -0.250353
1.57 -0.24746
1.58 -0.246365
1.59 -0.247018
1.6 -0.249398
1.61 -0.253434
1.62 -0.258986
1.63 -0.265847
1.64 -0.273775
1.65 -0.282431
1.66 -0.291366
1.67 -0.300188
1.68 -0.308496
1.69 -0.315894
1.7 -0.322007
1.71 -0.326322
1.72 -0.328621
1.73 -0.328736
1.74 -0.32652
1.75 -0.321903
1.76 -0.314897
1.77 -0.305534
1.78 -0.293872
1.79 -0.280375
1.8 -0.265356
1.81 -0.249179
1.82 -0.232242
1.83 -0.214966
1.84 -0.19782
1.85 -0.181271
1.86 -0.165701
1.87 -0.151455
1.88 -0.138827
1.89 -0.128049
1.9 -0.119315
1.91 -0.112898
1.92 -0.10858
1.93 -0.106278
1.94 -0.105838
1.95 -0.107043
1.96 -0.109626
1.97 -0.113321
1.98 -0.117715
1.99 -0.122399
2 -0.127018
2.01 -0.131233
2.02 -0.134734
2.03 -0.137249
2.04 -0.138412
2.05 -0.138201
2.06 -0.136545
2.07 -0.133441
2.08 -0.128957
2.09 -0.123225
2.1 -0.116392
2.11 -0.108749
2.12 -0.100656
2.13 -0.0924409
2.14 -0.0844493
2.15 -0.0770281
2.16 -0.0705148
2.17 -0.0653893
2.18 -0.0618266
2.19 -0.0600386
2.2 -0.0601908
2.21 -0.0623878
2.22 -0.0666686
2.23 -0.0730957
2.24 -0.0816049
2.25 -0.09188
2.26 -0.103697
2.27 -0.116788
2.28 -0.130848
2.29 -0.145547
2.3 -0.160536
2.31 -0.175412
2.32 -0.189839
2.33 -0.203515
2.34 -0.216168
2.35 -0.227573
2.36 -0.237498
2.37 -0.245737
2.38 -0.25236
2.39 -0.257376
2.4 -0.260848
2.41 -0.262892
2.42 -0.263668
2.43 -0.263306
2.44 -0.26213
2.45 -0.260426
2.46 -0.25846
2.47 -0.256494
2.48 -0.254782
2.49 -0.253573
2.5 -0.253145
2.51 -0.253609
2.52 -0.255087
2.53 -0.257658
2.54 -0.261355
2.55 -0.266168
2.56 -0.272117
2.57 -0.279055
2.58 -0.286802
2.59 -0.295197
2.6 -0.304056
2.61 -0.313183
2.62 -0.322375
2.63 -0.331391
2.64 -0.34004
2.65 -0.348145
2.66 -0.355549
2.67 -0.362122
2.68 -0.367757
2.69 -0.372307
2.7 -0.375734
2.71 -0.378074
2.72 -0.379339
2.73 -0.379559
2.74 -0.378783
2.75 -0.377072
2.76 -0.374408
2.77 -0.370974
2.78 -0.366844
2.79 -0.362088
2.8 -0.356766
2.81 -0.350929
2.82 -0.344588
2.83 -0.337763
2.84 -0.330485
2.85 -0.322747
2.86 -0.314527
2.87 -0.305794
2.88 -0.29651
2.89 -0.286567
2.9 -0.275979
2.91 -0.264716
2.92 -0.25275
2.93 -0.240065
2.94 -0.226657
2.95 -0.212507
2.96 -0.197627
2.97 -0.182119
2.98 -0.166044
2.99 -0.149481
3 -0.132519
3.01 -0.115259
3.02 -0.0977984
3.03 -0.0802745
3.04 -0.0627993
3.05 -0.0454763
3.06 -0.0284008
3.07 -0.0116565
3.08 0.00467174
3.09 0.0205009
3.1 0.0358346
3.11 0.0506592
3.12 0.0649788
3.13 0.0788145
3.14 0.092202
3.15 0.105161
3.16 0.11778
3.17 0.130138
3.18 0.142303
3.19 0.154342
3.2 0.166316
3.21 0.178282
3.22 0.190286
3.23 0.202355
3.24 0.214499
3.25 0.226709
3.26 0.238962
3.27 0.251217
3.28 0.26341
3.29 0.275462
3.3 0.287292
3.31 0.298811
3.32 0.309923
3.33 0.320536
3.34 0.33055
3.35 0.339804
3.36 0.348291
3.37 0.35595
3.38 0.362737
3.39 0.368625
3.4 0.373604
3.41 0.377627
3.42 0.380736
3.43 0.38303
3.44 0.384572
3.45 0.38544
3.46 0.385724
3.47 0.385521
3.48 0.384902
3.49 0.384028
3.5 0.383003
3.51 0.381929
3.52 0.380902
3.53 0.380009
3.54 0.379344
3.55 0.378987
3.56 0.378977
3.57 0.379358
3.58 0.38016
3.59 0.381406
3.6 0.38311
3.61 0.385325
3.62 0.388009
3.63 0.39115
3.64 0.39474
3.65 0.398769
3.66 0.403228
3.67 0.408124
3.68 0.413464
3.69 0.419207
3.7 0.425349
3.71 0.431881
3.72 0.438798
3.73 0.446089
3.74 0.453771
3.75 0.461797
3.76 0.470131
3.77 0.478734
3.78 0.487559
3.79 0.496547
3.8 0.505627
3.81 0.514704
3.82 0.523673
3.83 0.532424
3.84 0.540837
3.85 0.548784
3.86 0.556132
3.87 0.562667
3.88 0.568269
3.89 0.572825
3.9 0.576203
3.91 0.578278
3.92 0.578936
3.93 0.578047
3.94 0.575388
3.95 0.571048
3.96 0.564981
3.97 0.557164
3.98 0.547592
3.99 0.536278
4 0.523139
4.01 0.50828
4.02 0.491849
4.03 0.473931
4.04 0.454623
4.05 0.434029
4.06 0.412254
4.07 0.389319
4.08 0.365469
4.09 0.340822
4.1 0.315495
4.11 0.289598
4.12 0.263242
4.13 0.236512
4.14 0.209523
4.15 0.182385
4.16 0.155185
4.17 0.128003
4.18 0.100919
4.19 0.0740085
4.2 0.0473812
4.21 0.0210897
4.22 -0.00479482
4.23 -0.0302004
4.24 -0.0550547
4.25 -0.0792857
4.26 -0.102784
4.27 -0.125453
4.28 -0.147275
4.29 -0.168184
4.3 -0.188122
4.31 -0.207037
4.32 -0.224882
4.33 -0.24151
4.34 -0.256991
4.35 -0.271332
4.36 -0.28454
4.37 -0.29663
4.38 -0.307635
4.39 -0.317562
4.4 -0.326437
4.41 -0.334411
4.42 -0.341565
4.43 -0.347984
4.44 -0.353758
4.45 -0.358981
4.46 -0.363711
4.47 -0.368075
4.48 -0.372166
4.49 -0.376056
4.5 -0.379805
4.51 -0.383462
4.52 -0.38706
4.53 -0.39062
4.54 -0.394147
4.55 -0.39763
4.56 -0.401046
4.57 -0.404358
4.58 -0.407524
4.59 -0.41047
4.6 -0.413144
4.61 -0.415496
4.62 -0.417472
4.63 -0.419024
4.64 -0.420111
4.65 -0.420692
4.66 -0.420704
4.67 -0.420195
4.68 -0.419178
4.69 -0.41768
4.7 -0.415743
4.71 -0.41342
4.72 -0.410765
4.73 -0.407873
4.74 -0.404847
4.75 -0.401779
4.76 -0.398765
4.77 -0.395897
4.78 -0.393267
4.79 -0.391002
4.8 -0.389145
4.81 -0.387757
4.82 -0.386884
4.83 -0.38656
4.84 -0.386801
4.85 -0.387641
4.86 -0.389066
4.87 -0.391011
4.88 -0.393433
4.89 -0.396281
4.9 -0.399491
4.91 -0.402996
4.92 -0.40674
4.93 -0.410618
4.94 -0.414555
4.95 -0.418481
4.96 -0.422329
4.97 -0.426037
4.98 -0.42954
4.99 -0.432776
5 -0.435722
5.01 -0.438343
5.02 -0.440611
5.03 -0.442502
5.04 -0.443996
5.05 -0.445027
5.06 -0.445609
5.07 -0.445724
5.08 -0.445345
5.09 -0.444439
5.1 -0.442969
5.11 -0.440864
5.12 -0.438034
5.13 -0.434465
5.14 -0.430092
5.15 -0.42484
5.16 -0.418633
5.17 -0.411391
5.18 -0.402929
5.19 -0.393227
5.2 -0.382245
5.21 -0.369918
5.22 -0.35619
5.23 -0.341015
5.24 -0.324323
5.25 -0.305993
5.26 -0.28616
5.27 -0.26484
5.28 -0.242063
5.29 -0.217872
5.3 -0.192326
5.31 -0.165404
5.32 -0.137248
5.33 -0.108005
5.34 -0.0777746
5.35 -0.0466651
5.36 -0.0147873
5.37 0.0177529
5.38 0.0508763
5.39 0.0844042
5.4 0.118225
5.41 0.152229
5.42 0.186307
5.43 0.220354
5.44 0.254247
5.45 0.287867
5.46 0.321114
5.47 0.353877
5.48 0.386042
5.49 0.41749
5.5 0.448091
5.51 0.477587
5.52 0.505936
5.53 0.532986
5.54 0.558583
5.55 0.582563
5.56 0.604762
5.57 0.624894
5.58 0.642753
5.59 0.658301
5.6 0.671385
5.61 0.681863
5.62 0.68961
5.63 0.694519
5.64 0.696183
5.65 0.694832
5.66 0.690469
5.67 0.683101
5.68 0.672768
5.69 0.65954
5.7 0.643403
5.71 0.624438
5.72 0.603016
5.73 0.579332
5.74 0.553602
5.75 0.526059
5.76 0.496948
5.77 0.466423
5.78 0.43487
5.79 0.402568
5.8 0.369764
5.81 0.336688
5.82 0.303559
5.83 0.270584
5.84 0.237975
5.85 0.20586
5.86 0.174359
5.87 0.143567
5.88 0.113555
5.89 0.0843726
5.9 0.0561269
5.91 0.0287847
5.92 0.00231954
5.93 -0.0232756
5.94 -0.0480105
5.95 -0.0718944
5.96 -0.094913
5.97 -0.116999
5.98 -0.138214
5.99 -0.158529
6 -0.177895
6.01 -0.196254
6.02 -0.213528
6.03 -0.229534
6.04 -0.244194
6.05 -0.257447
6.06 -0.26918
6.07 -0.279277
6.08 -0.287628
6.09 -0.29411
6.1 -0.298442
6.11 -0.300755
6.12 -0.301006
6.13 -0.299177
6.14 -0.295277
6.15 -0.289344
6.16 -0.281327
6.17 -0.271366
6.18 -0.259699
6.19 -0.246486
6.2 -0.231911
6.21 -0.216175
6.22 -0.199497
6.23 -0.182045
6.24 -0.164155
6.25 -0.146055
6.26 -0.127965
6.27 -0.11009
6.28 -0.0926205
6.29 -0.0757585
6.3 -0.0596696
6.31 -0.0444183
6.32 -0.0300764
6.33 -0.0166842
6.34 -0.00425058
6.35 0.00724585
6.36 0.0177692
6.37 0.0274913
6.38 0.0365251
6.39 0.0449911
6.4 0.0530222
6.41 0.0607597
6.42 0.0683482
6.43 0.0759513
6.44 0.0837143
6.45 0.0917627
6.46 0.100209
6.47 0.109148
6.48 0.118659
6.49 0.128862
6.5 0.139751
6.51 0.151325
6.52 0.163578
6.53 0.176486
6.54 0.190012
6.55 0.204119
6.56 0.218766
6.57 0.233834
6.58 0.249248
6.59 0.264934
6.6 0.280818
6.61 0.296829
6.62 0.312903
6.63 0.328972
6.64 0.344985
6.65 0.360899
6.66 0.376682
6.67 0.392306
6.68 0.407744
6.69 0.422961
6.7 0.43796
6.71 0.452725
6.72 0.467238
6.73 0.481476
6.74 0.495411
6.75 0.50898
6.76 0.52214
6.77 0.534847
6.78 0.547033
6.79 0.558619
6.8 0.569514
6.81 0.579613
6.82 0.588703
6.83 0.596757
6.84 0.603652
6.85 0.609267
6.86 0.613479
6.87 0.616166
6.88 0.617108
6.89 0.616189
6.9 0.613407
6.91 0.60868
6.92 0.601939
6.93 0.59313
6.94 0.582217
6.95 0.568937
6.96 0.553531
6.97 0.536026
6.98 0.516459
6.99 0.494888
7 0.471384
7.01 0.445947
7.02 0.418664
7.03 0.389773
7.04 0.359399
7.05 0.327676
7.06 0.294745
7.07 0.26075
7.08 0.225765
7.09 0.190038
7.1 0.153735
7.11 0.11701
7.12 0.0800141
7.13 0.0428962
7.14 0.00580929
7.15 -0.0310785
7.16 -0.0676349
7.17 -0.10373
7.18 -0.139238
7.19 -0.174041
7.2 -0.208029
7.21 -0.241003
7.22 -0.272922
7.23 -0.303721
7.24 -0.333327
7.25 -0.361672
7.26 -0.388699
7.27 -0.414321
7.28 -0.438412
7.29 -0.46107
7.3 -0.482279
7.31 -0.502036
7.32 -0.520344
7.33 -0.537217
7.34 -0.552565
7.35 -0.566485
7.36 -0.579067
7.37 -0.590354
7.38 -0.600395
7.39 -0.609242
7.4 -0.61693
7.41 -0.623435
7.42 -0.628925
7.43 -0.633457
7.44 -0.637085
7.45 -0.639862
7.46 -0.641837
7.47 -0.643006
7.48 -0.643434
7.49 -0.643193
7.5 -0.642315
7.51 -0.64083
7.52 -0.63876
7.53 -0.636123
7.54 -0.632879
7.55 -0.629103
7.56 -0.624803
7.57 -0.619986
7.58 -0.614656
7.59 -0.608815
7.6 -0.602434
7.61 -0.595513
7.62 -0.588079
7.63 -0.580129
7.64 -0.571662
7.65 -0.562674
7.66 -0.553162
7.67 -0.543064
7.68 -0.532437
7.69 -0.521281
7.7 -0.5096
7.71 -0.497397
7.72 -0.48468
7.73 -0.471436
7.74 -0.457672
7.75 -0.443445
7.76 -0.428782
7.77 -0.413716
7.78 -0.398288
7.79 -0.382546
7.8 -0.366525
7.81 -0.35032
7.82 -0.334008
7.83 -0.317671
7.84 -0.301394
7.85 -0.285273
7.86 -0.269418
7.87 -0.253962
7.88 -0.238986
7.89 -0.224593
7.9 -0.210886
7.91 -0.197961
7.92 -0.185907
7.93 -0.1749
7.94 -0.164957
7.95 -0.156108
7.96 -0.148396
7.97 -0.141846
7.98 -0.136471
7.99 -0.132294
8 -0.129366
8.01 -0.127537
8.02 -0.126753
8.03 -0.126946
8.04 -0.128035
8.05 -0.129932
8.06 -0.13259
8.07 -0.135867
8.08 -0.139635
8.09 -0.143794
8.1 -0.148249
8.11 -0.152912
8.12 -0.157703
8.13 -0.162549
8.14 -0.167384
8.15 -0.172164
8.16 -0.176858
8.17 -0.181446
8.18 -0.185919
8.19 -0.190271
8.2 -0.194512
8.21 -0.198663
8.22 -0.20274
8.23 -0.206756
8.24 -0.210724
8.25 -0.214648
8.26 -0.218517
8.27 -0.222319
8.28 -0.226021
8.29 -0.229579
8.3 -0.232929
8.31 -0.235997
8.32 -0.238662
8.33 -0.2408
8.34 -0.242314
8.35 -0.243074
8.36 -0.242946
8.37 -0.241792
8.38 -0.239473
8.39 -0.235702
8.4 -0.230475
8.41 -0.223692
8.42 -0.215258
8.43 -0.205099
8.44 -0.193159
8.45 -0.179325
8.46 -0.163542
8.47 -0.145963
8.48 -0.126636
8.49 -0.105629
8.5 -0.0830324
8.51 -0.0589554
8.52 -0.0334021
8.53 -0.00663366
8.54 0.0211779
8.55 0.0498823
8.56 0.079329
8.57 0.109371
8.58 0.139879
8.59 0.170723
8.6 0.201751
8.61 0.232865
8.62 0.263979
8.63 0.295024
8.64 0.325947
8.65 0.35669
8.66 0.387234
8.67 0.417569
8.68 0.447684
8.69 0.477573
8.7 0.507231
8.71 0.53664
8.72 0.565762
8.73 0.594588
8.74 0.623074
8.75 0.651159
8.76 0.678766
8.77 0.7058
8.78 0.732083
8.79 0.757487
8.8 0.781889
8.81 0.805122
8.82 0.827009
8.83 0.847367
8.84 0.865982
8.85 0.882466
8.86 0.89682
8.87 0.908872
8.88 0.91846
8.89 0.925443
8.9 0.929697
8.91 0.930934
8.92 0.929108
8.93 0.924327
8.94 0.916576
8.95 0.90587
8.96 0.892248
8.97 0.875772
8.98 0.856226
8.99 0.83405
9 0.809377
9.01 0.782348
9.02 0.753119
9.03 0.72185
9.04 0.688615
9.05 0.653592
9.06 0.61706
9.07 0.579182
9.08 0.540115
9.09 0.500008
9.1 0.459006
9.11 0.417181
9.12 0.374752
9.13 0.331854
9.14 0.288611
9.15 0.245149
9.16 0.201591
9.17 0.158073
9.18 0.11475
9.19 0.0717574
9.2 0.0292397
9.21 -0.0126502
9.22 -0.0537523
9.23 -0.0938997
9.24 -0.132794
9.25 -0.170319
9.26 -0.20632
9.27 -0.240613
9.28 -0.273021
9.29 -0.30337
9.3 -0.331421
9.31 -0.356872
9.32 -0.379783
9.33 -0.400038
9.34 -0.417541
9.35 -0.432217
9.36 -0.444017
9.37 -0.452669
9.38 -0.458327
9.39 -0.461114
9.4 -0.461084
9.41 -0.458308
9.42 -0.452881
9.43 -0.444861
9.44 -0.434207
9.45 -0.421297
9.46 -0.406276
9.47 -0.389291
9.48 -0.370491
9.49 -0.350025
9.5 -0.327935
9.51 -0.304425
9.52 -0.279689
9.53 -0.253852
9.54 -0.227029
9.55 -0.199328
9.56 -0.170845
9.57 -0.141623
9.58 -0.111836
9.59 -0.0815755
9.6 -0.0509348
9.61 -0.0200096
9.62 0.0111
9.63 0.0422852
9.64 0.0734131
9.65 0.104356
9.66 0.134982
9.67 0.165149
9.68 0.194709
9.69 0.223508
9.7 0.251262
9.71 0.277901
9.72 0.303265
9.73 0.327201
9.74 0.349561
9.75 0.370208
9.76 0.388921
9.77 0.405551
9.78 0.42014
9.79 0.432628
9.8 0.442978
9.81 0.451179
9.82 0.457243
9.83 0.460992
9.84 0.462687
9.85 0.46244
9.86 0.460353
9.87 0.456543
9.88 0.451139
9.89 0.444226
9.9 0.435918
9.91 0.426467
9.92 0.416011
9.93 0.404682
9.94 0.392602
9.95 0.37988
9.96 0.366571
9.97 0.352801
9.98 0.338645
9.99 0.32415
10 0.30935
10.01 0.294265
10.02 0.278899
10.03 0.263237
10.04 0.247298
10.05 0.231077
10.06 0.214569
10.07 0.197771
10.08 0.180688
10.09 0.163312
10.1 0.145683
10.11 0.127848
10.12 0.109854
10.13 0.0917611
10.14 0.0736406
10.15 0.0555749
10.16 0.0376752
10.17 0.0200289
10.18 0.00273212
10.19 -0.01412
10.2 -0.0304364
10.21 -0.0461327
10.22 -0.0610804
10.23 -0.0752285
10.24 -0.088566
10.25 -0.101066
10.26 -0.112721
10.27 -0.123537
10.28 -0.133539
10.29 -0.142696
10.3 -0.151161
10.31 -0.159009
10.32 -0.166328
10.33 -0.173209
10.34 -0.179752
10.35 -0.186045
10.36 -0.192199
10.37 -0.198315
10.38 -0.204471
10.39 -0.210734
10.4 -0.217155
10.41 -0.223773
10.42 -0.230633
10.43 -0.237713
10.44 -0.244996
10.45 -0.252452
10.46 -0.260038
10.47 -0.267701
10.48 -0.275376
10.49 -0.282986
10.5 -0.290461
10.51 -0.297735
10.52 -0.304746
10.53 -0.31144
10.54 -0.317774
10.55 -0.323674
10.56 -0.329155
10.57 -0.334224
10.58 -0.338894
10.59 -0.343194
10.6 -0.347163
10.61 -0.350847
10.62 -0.354306
10.63 -0.357631
10.64 -0.360893
10.65 -0.364165
10.66 -0.367515
10.67 -0.371006
10.68 -0.374716
10.69 -0.378679
10.7 -0.382917
10.71 -0.387445
10.72 -0.392261
10.73 -0.39735
10.74 -0.402688
10.75 -0.408235
10.76 -0.413915
10.77 -0.419659
10.78 -0.425397
10.79 -0.431052
10.8 -0.436548
10.81 -0.441787
10.82 -0.446702
10.83 -0.451245
10.84 -0.455368
10.85 -0.459035
10.86 -0.462226
10.87 -0.464925
10.88 -0.467101
10.89 -0.468826
10.9 -0.470136
10.91 -0.471077
10.92 -0.471704
10.93 -0.472074
10.94 -0.472241
10.95 -0.472278
10.96 -0.472249
10.97 -0.472203
10.98 -0.472178
10.99 -0.472201
11 -0.472285
11.01 -0.472432
11.02 -0.472612
11.03 -0.472786
11.04 -0.472903
11.05 -0.472894
11.06 -0.472682
11.07 -0.472158
11.08 -0.471212
11.09 -0.469764
11.1 -0.467719
11.11 -0.464985
11.12 -0.461477
11.13 -0.457123
11.14 -0.451756
11.15 -0.445426
11.16 -0.438117
11.17 -0.429824
11.18 -0.420563
11.19 -0.410369
11.2 -0.399257
11.21 -0.387286
11.22 -0.374606
11.23 -0.361312
11.24 -0.34751
11.25 -0.333309
11.26 -0.318819
11.27 -0.304141
11.28 -0.289404
11.29 -0.274701
11.3 -0.260112
11.31 -0.245704
11.32 -0.231527
11.33 -0.217625
11.34 -0.204027
11.35 -0.190708
11.36 -0.177646
11.37 -0.164808
11.38 -0.152145
11.39 -0.139601
11.4 -0.127109
11.41 -0.114585
11.42 -0.101957
11.43 -0.0891519
11.44 -0.0761034
11.45 -0.0627499
11.46 -0.0490287
11.47 -0.0348646
11.48 -0.0202627
11.49 -0.00520549
11.5 0.0103126
11.51 0.0262859
11.52 0.0426982
11.53 0.0595532
11.54 0.0767966
11.55 0.0943716
11.56 0.112234
11.57 0.130339
11.58 0.14864
11.59 0.167096
11.6 0.185674
11.61 0.204326
11.62 0.223025
11.63 0.24175
11.64 0.260488
11.65 0.279229
11.66 0.297972
11.67 0.316717
11.68 0.335467
11.69 0.354227
11.7 0.372999
11.71 0.391781
11.72 0.410566
11.73 0.429336
11.74 0.448064
11.75 0.466714
11.76 0.485238
11.77 0.503577
11.78 0.521658
11.79 0.539375
11.8 0.556617
11.81 0.573299
11.82 0.589312
11.83 0.604538
11.84 0.618859
11.85 0.632156
11.86 0.644178
11.87 0.654916
11.88 0.664281
11.89 0.672181
11.9 0.678539
11.91 0.68329
11.92 0.686311
11.93 0.687515
11.94 0.687012
11.95 0.684803
11.96 0.680906
11.97 0.675353
11.98 0.668186
11.99 0.659318
12 0.648938
12.01 0.637151
12.02 0.624034
12.03 0.609666
12.04 0.594127
12.05 0.577464
12.06 0.559714
12.07 0.541041
12.08 0.521516
12.09 0.501206
12.1 0.480175
12.11 0.458485
12.12 0.436149
12.13 0.413266
12.14 0.389914
12.15 0.366157
12.16 0.342061
12.17 0.317696
12.18 0.29314
12.19 0.26848
12.2 0.243829
12.21 0.21929
12.22 0.194974
12.23 0.170999
12.24 0.147488
12.25 0.124625
12.26 0.102539
12.27 0.0813365
