# xPDFsuite Configuration #
[PDF]
wavelength = 0.1
dataformat = QA
inputfile = BiMsol6_insitu_700 C-00007.xy
backgroundfile = Quartz2mm-dist500-00000.xy
mode = xray
bgscale = 0.0042
composition = Bi2Fe4O9
outputtype = gr
qmaxinst = 24.998449118
qmin = 0.1
qmax = 21.4986662415
rmax = 80.0
rmin = 0.0
rstep = 0.01
rpoly = 0.9

[Misc]
inputdir = C:/Data/Seafile/CPH/Beamtime/Desy Oct 20/In situ data/Processed/BiMsol6/PDF
savedir = C:/Data/Seafile/CPH/Beamtime/Desy Oct 20/In situ data/PDF/BiMsol6
backgroundfilefull = C:/Data/Seafile/CPH/Beamtime/Desy Oct 20/In situ data/Processed/Standard_Empty_Cap/Quartz2mm-dist500-00000.xy

#### start data
#S 1
#L r($\AA$)  G($\AA^{-2}$)
0 0
0.01 0.00680799
0.02 0.0132403
0.03 0.0189751
0.04 0.0237232
0.05 0.0272414
0.06 0.0293432
0.07 0.0298237
0.08 0.0286202
0.09 0.025878
0.1 0.0217152
0.11 0.0163173
0.12 0.00992889
0.13 0.0028432
0.14 -0.00461286
0.15 -0.0120177
0.16 -0.0190167
0.17 -0.0252756
0.18 -0.0304931
0.19 -0.0344147
0.2 -0.0367778
0.21 -0.0373976
0.22 -0.0363636
0.23 -0.0337326
0.24 -0.0296418
0.25 -0.0243043
0.26 -0.0180014
0.27 -0.0110482
0.28 -0.00392013
0.29 0.00296011
0.3 0.00918095
0.31 0.0143481
0.32 0.0181036
0.33 0.0200833
0.34 0.0199268
0.35 0.0176657
0.36 0.0132779
0.37 0.00684663
0.38 -0.00143839
0.39 -0.0112826
0.4 -0.0223499
0.41 -0.034027
0.42 -0.0457089
0.43 -0.0567805
0.44 -0.0666016
0.45 -0.0745304
0.46 -0.0798869
0.47 -0.0817979
0.48 -0.0800472
0.49 -0.0742645
0.5 -0.0641999
0.51 -0.0497388
0.52 -0.0309125
0.53 -0.00762544
0.54 0.0195951
0.55 0.0500415
0.56 0.0830567
0.57 0.117866
0.58 0.1536
0.59 0.189305
0.6 0.223772
0.61 0.256027
0.62 0.285096
0.63 0.310068
0.64 0.330113
0.65 0.34452
0.66 0.352303
0.67 0.353047
0.68 0.346906
0.69 0.33387
0.7 0.314115
0.71 0.287995
0.72 0.256041
0.73 0.218441
0.74 0.176695
0.75 0.131774
0.76 0.0847125
0.77 0.0365855
0.78 -0.011519
0.79 -0.0584251
0.8 -0.102944
0.81 -0.144257
0.82 -0.181576
0.83 -0.214252
0.84 -0.241787
0.85 -0.263849
0.86 -0.279696
0.87 -0.289876
0.88 -0.294686
0.89 -0.294494
0.9 -0.289804
0.91 -0.281229
0.92 -0.269381
0.93 -0.255048
0.94 -0.239272
0.95 -0.222855
0.96 -0.206571
0.97 -0.19114
0.98 -0.177206
0.99 -0.165551
1 -0.156506
1.01 -0.150304
1.02 -0.147104
1.03 -0.14694
1.04 -0.149724
1.05 -0.155327
1.06 -0.163548
1.07 -0.173747
1.08 -0.18547
1.09 -0.198225
1.1 -0.211503
1.11 -0.224805
1.12 -0.237581
1.13 -0.249373
1.14 -0.259847
1.15 -0.268726
1.16 -0.275815
1.17 -0.28101
1.18 -0.284258
1.19 -0.285495
1.2 -0.285077
1.21 -0.283235
1.22 -0.280252
1.23 -0.276447
1.24 -0.272161
1.25 -0.267755
1.26 -0.263608
1.27 -0.26002
1.28 -0.257242
1.29 -0.255468
1.3 -0.254828
1.31 -0.255393
1.32 -0.257267
1.33 -0.26022
1.34 -0.264089
1.35 -0.268661
1.36 -0.273675
1.37 -0.278838
1.38 -0.283815
1.39 -0.288244
1.4 -0.291846
1.41 -0.294358
1.42 -0.295561
1.43 -0.295291
1.44 -0.293447
1.45 -0.289821
1.46 -0.284644
1.47 -0.278054
1.48 -0.27025
1.49 -0.261489
1.5 -0.252077
1.51 -0.242362
1.52 -0.232771
1.53 -0.223696
1.54 -0.2155
1.55 -0.208521
1.56 -0.203051
1.57 -0.199331
1.58 -0.197738
1.59 -0.198204
1.6 -0.200692
1.61 -0.205115
1.62 -0.211305
1.63 -0.219015
1.64 -0.227961
1.65 -0.237749
1.66 -0.247859
1.67 -0.25784
1.68 -0.26723
1.69 -0.275577
1.7 -0.282451
1.71 -0.287267
1.72 -0.289779
1.73 -0.289796
1.74 -0.287153
1.75 -0.281772
1.76 -0.273663
1.77 -0.262864
1.78 -0.249437
1.79 -0.233904
1.8 -0.216615
1.81 -0.197975
1.82 -0.178426
1.83 -0.158432
1.84 -0.138503
1.85 -0.119154
1.86 -0.100803
1.87 -0.0838242
1.88 -0.0685312
1.89 -0.0551693
1.9 -0.0439383
1.91 -0.0351149
1.92 -0.0284603
1.93 -0.023873
1.94 -0.0211771
1.95 -0.0201308
1.96 -0.020438
1.97 -0.0218038
1.98 -0.0237894
1.99 -0.0259717
2 -0.0279851
2.01 -0.029489
2.02 -0.030182
2.03 -0.0298101
2.04 -0.0280356
2.05 -0.0248888
2.06 -0.0203516
2.07 -0.0144833
2.08 -0.00741967
2.09 0.000632318
2.1 0.00942319
2.11 0.0185728
2.12 0.0276663
2.13 0.0363066
2.14 0.0440892
2.15 0.0506178
2.16 0.0555191
2.17 0.0582111
2.18 0.0585935
2.19 0.0564791
2.2 0.0517388
2.21 0.0443231
2.22 0.034264
2.23 0.0215692
2.24 0.00640939
2.25 -0.0107531
2.26 -0.0295746
2.27 -0.0496622
2.28 -0.070587
2.29 -0.0918978
2.3 -0.113084
2.31 -0.133656
2.32 -0.153196
2.33 -0.171328
2.34 -0.187724
2.35 -0.20212
2.36 -0.214239
2.37 -0.223841
2.38 -0.231084
2.39 -0.236016
2.4 -0.238757
2.41 -0.239491
2.42 -0.238456
2.43 -0.235836
2.44 -0.232081
2.45 -0.227577
2.46 -0.222674
2.47 -0.217712
2.48 -0.213012
2.49 -0.208886
2.5 -0.205668
2.51 -0.203489
2.52 -0.202484
2.53 -0.20273
2.54 -0.204247
2.55 -0.206998
2.56 -0.210972
2.57 -0.215968
2.58 -0.221757
2.59 -0.228126
2.6 -0.234847
2.61 -0.241681
2.62 -0.248387
2.63 -0.25468
2.64 -0.260379
2.65 -0.265312
2.66 -0.269344
2.67 -0.272378
2.68 -0.274358
2.69 -0.275201
2.7 -0.274957
2.71 -0.273756
2.72 -0.271701
2.73 -0.268924
2.74 -0.265573
2.75 -0.261809
2.76 -0.257786
2.77 -0.253708
2.78 -0.24972
2.79 -0.245947
2.8 -0.242492
2.81 -0.23943
2.82 -0.236828
2.83 -0.234698
2.84 -0.232985
2.85 -0.231631
2.86 -0.230556
2.87 -0.229656
2.88 -0.228813
2.89 -0.227878
2.9 -0.226716
2.91 -0.225202
2.92 -0.223225
2.93 -0.220688
2.94 -0.217517
2.95 -0.213633
2.96 -0.208994
2.97 -0.203666
2.98 -0.197692
2.99 -0.191144
3 -0.184112
3.01 -0.176711
3.02 -0.169056
3.03 -0.161316
3.04 -0.153632
3.05 -0.146136
3.06 -0.138945
3.07 -0.13216
3.08 -0.125878
3.09 -0.120182
3.1 -0.115045
3.11 -0.11045
3.12 -0.106348
3.13 -0.102662
3.14 -0.0992855
3.15 -0.0960923
3.16 -0.0929028
3.17 -0.0895469
3.18 -0.0858544
3.19 -0.0816557
3.2 -0.0767886
3.21 -0.0710839
3.22 -0.0643268
3.23 -0.0565003
3.24 -0.0475352
3.25 -0.0373939
3.26 -0.0260718
3.27 -0.0135971
3.28 4.38286e-05
3.29 0.0147112
3.3 0.0302369
3.31 0.0464797
3.32 0.0632846
3.33 0.0804881
3.34 0.0979255
3.35 0.115424
3.36 0.132815
3.37 0.149968
3.38 0.166776
3.39 0.183154
3.4 0.199047
3.41 0.214394
3.42 0.229206
3.43 0.243546
3.44 0.257471
3.45 0.271059
3.46 0.284403
3.47 0.297605
3.48 0.310777
3.49 0.324036
3.5 0.337469
3.51 0.351151
3.52 0.365134
3.53 0.379442
3.54 0.394088
3.55 0.409031
3.56 0.424172
3.57 0.439404
3.58 0.454589
3.59 0.469562
3.6 0.484136
3.61 0.498019
3.62 0.511029
3.63 0.522952
3.64 0.533571
3.65 0.542681
3.66 0.550093
3.67 0.555563
3.68 0.558868
3.69 0.560062
3.7 0.559091
3.71 0.555943
3.72 0.550644
3.73 0.543263
3.74 0.533735
3.75 0.522362
3.76 0.509371
3.77 0.494969
3.78 0.47938
3.79 0.462843
3.8 0.445589
3.81 0.427868
3.82 0.409973
3.83 0.392125
3.84 0.374525
3.85 0.357351
3.86 0.340754
3.87 0.324922
3.88 0.309918
3.89 0.295768
3.9 0.282494
3.91 0.270088
3.92 0.258516
3.93 0.247737
3.94 0.237722
3.95 0.228303
3.96 0.219381
3.97 0.210851
3.98 0.20261
3.99 0.194558
4 0.186603
4.01 0.178651
4.02 0.170631
4.03 0.162494
4.04 0.154202
4.05 0.145735
4.06 0.137085
4.07 0.128246
4.08 0.119258
4.09 0.110155
4.1 0.100976
4.11 0.0917645
4.12 0.0825676
4.13 0.073439
4.14 0.0644305
4.15 0.0555792
4.16 0.0469209
4.17 0.0384852
4.18 0.0302958
4.19 0.0223693
4.2 0.0147478
4.21 0.00740576
4.22 0.000341004
4.23 -0.00645105
4.24 -0.0129772
4.25 -0.0192453
4.26 -0.0252514
4.27 -0.0309981
4.28 -0.0365066
4.29 -0.0417782
4.3 -0.0468117
4.31 -0.0516026
4.32 -0.0561441
4.33 -0.0604003
4.34 -0.0643824
4.35 -0.0680847
4.36 -0.0714984
4.37 -0.0746177
4.38 -0.07744
4.39 -0.0799565
4.4 -0.082165
4.41 -0.0841041
4.42 -0.0857957
4.43 -0.087268
4.44 -0.0885551
4.45 -0.0896963
4.46 -0.0907303
4.47 -0.0917158
4.48 -0.0927033
4.49 -0.0937395
4.5 -0.0948685
4.51 -0.0961298
4.52 -0.0975621
4.53 -0.099205
4.54 -0.101057
4.55 -0.103121
4.56 -0.105389
4.57 -0.107844
4.58 -0.110456
4.59 -0.113192
4.6 -0.115992
4.61 -0.118794
4.62 -0.121538
4.63 -0.12416
4.64 -0.126596
4.65 -0.128781
4.66 -0.130624
4.67 -0.132105
4.68 -0.133185
4.69 -0.133836
4.7 -0.134044
4.71 -0.133807
4.72 -0.13311
4.73 -0.131992
4.74 -0.130516
4.75 -0.128734
4.76 -0.126708
4.77 -0.124509
4.78 -0.122213
4.79 -0.119904
4.8 -0.11767
4.81 -0.115587
4.82 -0.113725
4.83 -0.112146
4.84 -0.110903
4.85 -0.11006
4.86 -0.109652
4.87 -0.109667
4.88 -0.110105
4.89 -0.110954
4.9 -0.112188
4.91 -0.113771
4.92 -0.115687
4.93 -0.117845
4.94 -0.120185
4.95 -0.122646
4.96 -0.125168
4.97 -0.127692
4.98 -0.130158
4.99 -0.132509
5 -0.134709
5.01 -0.136727
5.02 -0.13854
5.03 -0.140136
5.04 -0.141509
5.05 -0.142645
5.06 -0.143574
5.07 -0.144321
5.08 -0.144909
5.09 -0.145364
5.1 -0.145715
5.11 -0.145989
5.12 -0.146211
5.13 -0.14641
5.14 -0.146602
5.15 -0.146802
5.16 -0.147014
5.17 -0.14724
5.18 -0.147475
5.19 -0.147708
5.2 -0.147924
5.21 -0.148105
5.22 -0.148231
5.23 -0.148283
5.24 -0.148239
5.25 -0.148074
5.26 -0.147782
5.27 -0.147356
5.28 -0.146793
5.29 -0.146093
5.3 -0.145264
5.31 -0.144311
5.32 -0.143257
5.33 -0.142127
5.34 -0.140945
5.35 -0.139736
5.36 -0.138523
5.37 -0.137328
5.38 -0.136176
5.39 -0.135077
5.4 -0.134037
5.41 -0.133058
5.42 -0.132131
5.43 -0.131243
5.44 -0.130371
5.45 -0.129481
5.46 -0.128538
5.47 -0.127503
5.48 -0.126334
5.49 -0.124989
5.5 -0.123426
5.51 -0.121576
5.52 -0.119434
5.53 -0.116977
5.54 -0.114191
5.55 -0.111071
5.56 -0.107626
5.57 -0.103858
5.58 -0.0998009
5.59 -0.0955182
5.6 -0.0910622
5.61 -0.0864937
5.62 -0.0818793
5.63 -0.0772894
5.64 -0.0728134
5.65 -0.0685182
5.66 -0.064467
5.67 -0.0607162
5.68 -0.0573128
5.69 -0.0542915
5.7 -0.0516917
5.71 -0.0495303
5.72 -0.0477643
5.73 -0.0463651
5.74 -0.0452892
5.75 -0.0444795
5.76 -0.0438673
5.77 -0.0433776
5.78 -0.0429059
5.79 -0.0423607
5.8 -0.0416534
5.81 -0.040699
5.82 -0.0394195
5.83 -0.0377317
5.84 -0.0355517
5.85 -0.0328775
5.86 -0.0296903
5.87 -0.0259892
5.88 -0.0217919
5.89 -0.0171341
5.9 -0.0120394
5.91 -0.00660937
5.92 -0.000940815
5.93 0.00487261
5.94 0.0107311
5.95 0.0165324
5.96 0.0221695
5.97 0.0275159
5.98 0.0325037
5.99 0.0370604
6 0.0411291
6.01 0.0446703
6.02 0.0476636
6.03 0.0500689
6.04 0.0519299
6.05 0.0533138
6.06 0.0542826
6.07 0.0549133
6.08 0.0552958
6.09 0.0555288
6.1 0.0557262
6.11 0.0560081
6.12 0.0564777
6.13 0.0572307
6.14 0.0583523
6.15 0.0599134
6.16 0.0620021
6.17 0.0646503
6.18 0.0678401
6.19 0.071559
6.2 0.0757734
6.21 0.08043
6.22 0.0854568
6.23 0.0907874
6.24 0.0962767
6.25 0.101813
6.26 0.107279
6.27 0.112558
6.28 0.117537
6.29 0.122082
6.3 0.126081
6.31 0.129483
6.32 0.132231
6.33 0.134284
6.34 0.135624
6.35 0.136254
6.36 0.136127
6.37 0.135362
6.38 0.134029
6.39 0.13221
6.4 0.129997
6.41 0.12749
6.42 0.124791
6.43 0.122018
6.44 0.119285
6.45 0.116687
6.46 0.114306
6.47 0.112212
6.48 0.11046
6.49 0.109123
6.5 0.10819
6.51 0.107649
6.52 0.107474
6.53 0.107626
6.54 0.108049
6.55 0.108682
6.56 0.109441
6.57 0.110228
6.58 0.110954
6.59 0.111536
6.6 0.111893
6.61 0.111953
6.62 0.11162
6.63 0.110858
6.64 0.109651
6.65 0.107983
6.66 0.105857
6.67 0.103292
6.68 0.100314
6.69 0.096952
6.7 0.093307
6.71 0.0894514
6.72 0.0854636
6.73 0.0814253
6.74 0.0774186
6.75 0.0735368
6.76 0.06986
6.77 0.066446
6.78 0.0633475
6.79 0.0606042
6.8 0.0582425
6.81 0.0562774
6.82 0.0547434
6.83 0.0535772
6.84 0.0527454
6.85 0.0522038
6.86 0.0518989
6.87 0.05177
6.88 0.0517547
6.89 0.051775
6.9 0.0517595
6.91 0.0516466
6.92 0.0513804
6.93 0.0509132
6.94 0.0502069
6.95 0.0492021
6.96 0.0479136
6.97 0.0463416
6.98 0.0444967
6.99 0.0424004
7 0.0400835
7.01 0.0375777
7.02 0.0349328
7.03 0.0322099
7.04 0.0294593
7.05 0.0267304
7.06 0.0240693
7.07 0.0215174
7.08 0.0191267
7.09 0.0169118
7.1 0.0148853
7.11 0.0130522
7.12 0.0114074
7.13 0.00993664
7.14 0.00862141
7.15 0.00743055
7.16 0.00631466
7.17 0.00523206
7.18 0.0041393
7.19 0.00299321
7.2 0.001753
7.21 0.000367283
7.22 -0.00118759
7.23 -0.00292824
7.24 -0.00486525
7.25 -0.00699888
7.26 -0.0093187
7.27 -0.0118072
7.28 -0.0144353
7.29 -0.0171451
7.3 -0.0198851
7.31 -0.0225974
7.32 -0.0252198
7.33 -0.027688
7.34 -0.0299144
7.35 -0.0318393
7.36 -0.0334153
7.37 -0.0345939
7.38 -0.0353362
7.39 -0.0356141
7.4 -0.0354039
7.41 -0.0346643
7.42 -0.0334589
7.43 -0.0318166
7.44 -0.0297796
7.45 -0.0274024
7.46 -0.0247504
7.47 -0.0218902
7.48 -0.018921
7.49 -0.0159391
7.5 -0.0130342
7.51 -0.0102945
7.52 -0.00780523
7.53 -0.00564801
7.54 -0.00394337
7.55 -0.00271041
7.56 -0.00199409
7.57 -0.00182552
7.58 -0.00222105
7.59 -0.00318184
7.6 -0.00472446
7.61 -0.00681274
7.62 -0.00936822
7.63 -0.0123321
7.64 -0.015635
7.65 -0.0191993
7.66 -0.0229408
7.67 -0.0267719
7.68 -0.0305854
7.69 -0.0342941
7.7 -0.037816
7.71 -0.0410757
7.72 -0.0440069
7.73 -0.0465335
7.74 -0.0485988
7.75 -0.050204
7.76 -0.0513377
7.77 -0.0520024
7.78 -0.052215
7.79 -0.0520059
7.8 -0.0513848
7.81 -0.0504448
7.82 -0.0492567
7.83 -0.0478912
7.84 -0.0464232
7.85 -0.0449292
7.86 -0.0434896
7.87 -0.0421912
7.88 -0.0410935
7.89 -0.0402529
7.9 -0.039715
7.91 -0.039514
7.92 -0.0396709
7.93 -0.0402254
7.94 -0.0411447
7.95 -0.0423942
7.96 -0.0439364
7.97 -0.0457217
7.98 -0.0476898
7.99 -0.0497727
8 -0.0518866
8.01 -0.0539416
8.02 -0.0558564
8.03 -0.0575512
8.04 -0.0589506
8.05 -0.059986
8.06 -0.060561
8.07 -0.0606404
8.08 -0.06021
8.09 -0.0592538
8.1 -0.0577719
8.11 -0.0557804
8.12 -0.0533051
8.13 -0.050364
8.14 -0.047071
8.15 -0.0435044
8.16 -0.0397525
8.17 -0.0359116
8.18 -0.0320829
8.19 -0.0283847
8.2 -0.0249318
8.21 -0.0218143
8.22 -0.019121
8.23 -0.0169296
8.24 -0.0153049
8.25 -0.0142983
8.26 -0.0140149
8.27 -0.014392
8.28 -0.0154186
8.29 -0.0170644
8.3 -0.0192804
8.31 -0.0220004
8.32 -0.0251601
8.33 -0.0286484
8.34 -0.0323312
8.35 -0.0360919
8.36 -0.0398105
8.37 -0.0433663
8.38 -0.0466421
8.39 -0.0494731
8.4 -0.0517902
8.41 -0.0535125
8.42 -0.0545718
8.43 -0.0549181
8.44 -0.0545208
8.45 -0.0533359
8.46 -0.0513586
8.47 -0.048679
8.48 -0.0453521
8.49 -0.0414497
8.5 -0.0370586
8.51 -0.0322777
8.52 -0.0271991
8.53 -0.0219725
8.54 -0.0167193
8.55 -0.011554
8.56 -0.00658549
8.57 -0.00191417
8.58 0.00235505
8.59 0.00611643
8.6 0.00934874
8.61 0.0120151
8.62 0.0140969
8.63 0.0155939
8.64 0.0165237
8.65 0.0168787
8.66 0.0167476
8.67 0.0162123
8.68 0.0153483
8.69 0.0142386
8.7 0.01297
8.71 0.0116308
8.72 0.0103189
8.73 0.00911855
8.74 0.00810065
8.75 0.00732584
8.76 0.00684259
8.77 0.00668597
8.78 0.00690385
8.79 0.00748885
8.8 0.00841512
8.81 0.00965808
8.82 0.0111815
8.83 0.0129394
8.84 0.0148791
8.85 0.0169444
8.86 0.0190546
8.87 0.0211468
8.88 0.0231606
8.89 0.0250402
8.9 0.0267369
8.91 0.0281932
8.92 0.0293781
8.93 0.0302863
8.94 0.0309112
8.95 0.0312571
8.96 0.0313385
8.97 0.031179
8.98 0.0307907
8.99 0.0302403
9 0.0295709
9.01 0.0288278
9.02 0.0280558
9.03 0.0272981
9.04 0.0265984
9.05 0.0259953
9.06 0.0255097
9.07 0.0251582
9.08 0.024949
9.09 0.0248816
9.1 0.024947
9.11 0.0251386
9.12 0.025418
9.13 0.025754
9.14 0.0261131
9.15 0.0264597
9.16 0.0267587
9.17 0.0269715
9.18 0.0270611
9.19 0.0270106
9.2 0.0268033
9.21 0.0264302
9.22 0.0258905
9.23 0.0251915
9.24 0.0243375
9.25 0.0233665
9.26 0.022313
9.27 0.0212138
9.28 0.020109
9.29 0.0190405
9.3 0.0180542
9.31 0.017201
9.32 0.0165083
9.33 0.0160047
9.34 0.0157114
9.35 0.0156409
9.36 0.0157966
9.37 0.0161893
9.38 0.0167874
9.39 0.017556
9.4 0.0184588
9.41 0.019453
9.42 0.02049
9.43 0.021517
9.44 0.0224693
9.45 0.0232969
9.46 0.0239518
9.47 0.0243916
9.48 0.0245811
9.49 0.0244943
9.5 0.0240936
9.51 0.0233847
9.52 0.0223905
9.53 0.0211328
9.54 0.0196439
9.55 0.0179662
9.56 0.0161495
9.57 0.0142503
9.58 0.0123445
9.59 0.0104954
9.6 0.00876541
9.61 0.00721299
9.62 0.0058909
9.63 0.00486327
9.64 0.00416609
9.65 0.00380387
9.66 0.00378379
9.67 0.00409989
9.68 0.00473316
9.69 0.00565206
9.7 0.00683556
9.71 0.0081965
9.72 0.00967194
9.73 0.0111944
9.74 0.0126942
9.75 0.0141018
9.76 0.0153394
9.77 0.0163352
9.78 0.0170506
9.79 0.017447
9.8 0.0174981
9.81 0.0171917
9.82 0.01653
9.83 0.0154979
9.84 0.0141633
9.85 0.0125785
9.86 0.0108026
9.87 0.00890375
9.88 0.00695699
9.89 0.00504601
9.9 0.00326614
9.91 0.00169096
9.92 0.000391676
9.93 -0.000568999
9.94 -0.00113927
9.95 -0.00128034
9.96 -0.0009249
9.97 -9.8052e-05
9.98 0.00117708
9.99 0.00287222
10 0.00494399
10.01 0.00733526
10.02 0.00998195
10.03 0.0128041
10.04 0.0156943
10.05 0.0185634
10.06 0.0213221
10.07 0.0238849
10.08 0.0261725
10.09 0.0280815
10.1 0.0295644
10.11 0.030593
10.12 0.031142
10.13 0.0312026
10.14 0.0307822
10.15 0.029897
10.16 0.0285586
10.17 0.0268674
10.18 0.0248898
10.19 0.0227007
10.2 0.0203803
10.21 0.0180113
10.22 0.0156843
10.23 0.0134871
10.24 0.0114875
10.25 0.00974558
10.26 0.00830967
10.27 0.00721466
10.28 0.00648349
10.29 0.006158
10.3 0.00618419
10.31 0.00653405
10.32 0.00716674
10.33 0.00803041
10.34 0.00906431
10.35 0.010203
10.36 0.0113643
10.37 0.0124717
10.38 0.0134568
10.39 0.0142569
10.4 0.0148169
10.41 0.0150922
10.42 0.0150112
10.43 0.0145893
10.44 0.013825
10.45 0.0127293
10.46 0.0113261
10.47 0.00965157
10.48 0.00774414
10.49 0.00566501
10.5 0.00349166
10.51 0.00128982
10.52 -0.000874433
10.53 -0.00293726
10.54 -0.00483963
10.55 -0.0065035
10.56 -0.00790193
10.57 -0.00900953
10.58 -0.00980983
10.59 -0.0102991
10.6 -0.0104866
10.61 -0.0103846
10.62 -0.0100218
10.63 -0.00946553
10.64 -0.00876865
10.65 -0.00798933
10.66 -0.00718859
10.67 -0.00642779
10.68 -0.00578015
10.69 -0.00529903
10.7 -0.00502668
10.71 -0.00499868
10.72 -0.00523959
10.73 -0.00576192
10.74 -0.00657265
10.75 -0.00767252
10.76 -0.00900765
10.77 -0.0105385
10.78 -0.0122162
10.79 -0.0139839
10.8 -0.0157799
10.81 -0.0175306
10.82 -0.0191641
10.83 -0.02062
10.84 -0.0218418
10.85 -0.0227807
10.86 -0.0233976
10.87 -0.0236592
10.88 -0.0235189
10.89 -0.0230147
10.9 -0.0221622
10.91 -0.0209901
10.92 -0.0195391
10.93 -0.0178606
10.94 -0.0160083
10.95 -0.0140633
10.96 -0.0121051
10.97 -0.0102066
10.98 -0.00843879
10.99 -0.00686826
11 -0.00555604
11.01 -0.00459053
11.02 -0.00397744
11.03 -0.00373977
11.04 -0.00388663
11.05 -0.00441289
11.06 -0.00529924
11.07 -0.0065289
11.08 -0.00804824
11.09 -0.00977923
11.1 -0.0116547
11.11 -0.0136015
11.12 -0.0155431
11.13 -0.0174022
11.14 -0.0190779
11.15 -0.0205101
11.16 -0.0216384
11.17 -0.0224108
11.18 -0.0227871
11.19 -0.0227398
11.2 -0.0222345
11.21 -0.0212629
11.22 -0.0198742
11.23 -0.0180992
11.24 -0.0159811
11.25 -0.0135733
11.26 -0.0109379
11.27 -0.00813492
11.28 -0.0052585
11.29 -0.00238556
11.3 0.00041109
11.31 0.0030624
11.32 0.00550522
11.33 0.00767313
11.34 0.00950085
11.35 0.0109785
11.36 0.0120853
11.37 0.0128127
11.38 0.0131634
11.39 0.0131516
11.4 0.012775
11.41 0.0120928
11.42 0.0111575
11.43 0.0100173
11.44 0.008724
11.45 0.00733069
11.46 0.00589044
11.47 0.00446039
11.48 0.00308947
11.49 0.00181748
11.5 0.000677452
11.51 -0.000305139
11.52 -0.00111287
11.53 -0.00172222
11.54 -0.00214014
11.55 -0.00238245
11.56 -0.00246423
11.57 -0.00240611
11.58 -0.00223314
11.59 -0.00197279
11.6 -0.00165361
11.61 -0.00131415
11.62 -0.0009832
11.63 -0.000687025
11.64 -0.000448371
11.65 -0.000285628
11.66 -0.000218682
11.67 -0.000254506
11.68 -0.000389494
11.69 -0.000619361
11.7 -0.000934898
11.71 -0.00132253
11.72 -0.00176513
11.73 -0.0022441
11.74 -0.00273144
11.75 -0.00320454
11.76 -0.00364124
11.77 -0.00402074
11.78 -0.00432446
11.79 -0.00453097
11.8 -0.00462608
11.81 -0.00460842
11.82 -0.00447492
