# xPDFsuite Configuration #
[PDF]
wavelength = 0.1
dataformat = QA
inputfile = BiMsol6_insitu_700 C-00495.xy
backgroundfile = Quartz2mm-dist500-00000.xy
mode = xray
bgscale = 0.0042
composition = Bi2Fe4O9
outputtype = gr
qmaxinst = 24.998449118
qmin = 0.1
qmax = 21.4986662415
rmax = 80.0
rmin = 0.0
rstep = 0.01
rpoly = 0.9

[Misc]
inputdir = C:/Data/Seafile/CPH/Beamtime/Desy Oct 20/In situ data/Processed/BiMsol6/PDF
savedir = C:/Data/Seafile/CPH/Beamtime/Desy Oct 20/In situ data/PDF/BiMsol6
backgroundfilefull = C:/Data/Seafile/CPH/Beamtime/Desy Oct 20/In situ data/Processed/Standard_Empty_Cap/Quartz2mm-dist500-00000.xy

#### start data
#S 1
#L r($\AA$)  G($\AA^{-2}$)
0 0
0.01 0.00572582
0.02 0.0111196
0.03 0.0158976
0.04 0.0198053
0.05 0.0226301
0.06 0.0242108
0.07 0.024372
0.08 0.0230659
0.09 0.0204276
0.1 0.0165698
0.11 0.0116651
0.12 0.00593795
0.13 -0.000344733
0.14 -0.00688021
0.15 -0.0132981
0.16 -0.0192848
0.17 -0.0245474
0.18 -0.0288257
0.19 -0.0319047
0.2 -0.0335653
0.21 -0.0336641
0.22 -0.0323047
0.23 -0.029562
0.24 -0.0255834
0.25 -0.0205846
0.26 -0.014841
0.27 -0.00867169
0.28 -0.00251179
0.29 0.00325086
0.3 0.00824072
0.31 0.0121042
0.32 0.0145274
0.33 0.0151941
0.34 0.0138
0.35 0.0104191
0.36 0.00507054
0.37 -0.00212569
0.38 -0.0109487
0.39 -0.0210797
0.4 -0.0321428
0.41 -0.0435306
0.42 -0.0546497
0.43 -0.0648964
0.44 -0.0736499
0.45 -0.0802958
0.46 -0.0841852
0.47 -0.0844793
0.48 -0.0810242
0.49 -0.0734972
0.5 -0.0616974
0.51 -0.0455586
0.52 -0.0251584
0.53 -0.000458299
0.54 0.027976
0.55 0.0594128
0.56 0.0931715
0.57 0.128462
0.58 0.164404
0.59 0.200046
0.6 0.234161
0.61 0.265821
0.62 0.294078
0.63 0.31805
0.64 0.336944
0.65 0.350085
0.66 0.356526
0.67 0.3559
0.68 0.348404
0.69 0.334067
0.7 0.313097
0.71 0.285879
0.72 0.252967
0.73 0.214587
0.74 0.172234
0.75 0.126883
0.76 0.0795621
0.77 0.0313407
0.78 -0.0167079
0.79 -0.063421
0.8 -0.107635
0.81 -0.148564
0.82 -0.185449
0.83 -0.217666
0.84 -0.244747
0.85 -0.266383
0.86 -0.281862
0.87 -0.291751
0.88 -0.296358
0.89 -0.296063
0.9 -0.291376
0.91 -0.282913
0.92 -0.271287
0.93 -0.257284
0.94 -0.241929
0.95 -0.226012
0.96 -0.210295
0.97 -0.195484
0.98 -0.182211
0.99 -0.171245
1 -0.162904
1.01 -0.157412
1.02 -0.154922
1.03 -0.155462
1.04 -0.158945
1.05 -0.165241
1.06 -0.174153
1.07 -0.185048
1.08 -0.197476
1.09 -0.210951
1.1 -0.22497
1.11 -0.239038
1.12 -0.252609
1.13 -0.265224
1.14 -0.276543
1.15 -0.286283
1.16 -0.294237
1.17 -0.300285
1.18 -0.304359
1.19 -0.306364
1.2 -0.306638
1.21 -0.305386
1.22 -0.302868
1.23 -0.29938
1.24 -0.295241
1.25 -0.290778
1.26 -0.286361
1.27 -0.28229
1.28 -0.278816
1.29 -0.276138
1.3 -0.2744
1.31 -0.27369
1.32 -0.27413
1.33 -0.275542
1.34 -0.277806
1.35 -0.280752
1.36 -0.284168
1.37 -0.287811
1.38 -0.291404
1.39 -0.294642
1.4 -0.297278
1.41 -0.299086
1.42 -0.299877
1.43 -0.299506
1.44 -0.297882
1.45 -0.294833
1.46 -0.290539
1.47 -0.285113
1.48 -0.278714
1.49 -0.271555
1.5 -0.263888
1.51 -0.256
1.52 -0.24824
1.53 -0.240927
1.54 -0.234354
1.55 -0.22879
1.56 -0.224469
1.57 -0.221575
1.58 -0.220399
1.59 -0.220869
1.6 -0.222937
1.61 -0.226511
1.62 -0.231433
1.63 -0.237484
1.64 -0.244407
1.65 -0.251857
1.66 -0.259408
1.67 -0.266684
1.68 -0.273308
1.69 -0.278912
1.7 -0.283157
1.71 -0.285567
1.72 -0.285977
1.73 -0.28426
1.74 -0.280313
1.75 -0.274108
1.76 -0.265689
1.77 -0.255126
1.78 -0.242517
1.79 -0.228317
1.8 -0.212841
1.81 -0.196445
1.82 -0.179508
1.83 -0.162421
1.84 -0.145621
1.85 -0.129516
1.86 -0.114423
1.87 -0.100629
1.88 -0.0883636
1.89 -0.0777939
1.9 -0.0690478
1.91 -0.0623116
1.92 -0.0573431
1.93 -0.0540212
1.94 -0.0521674
1.95 -0.0515543
1.96 -0.0519162
1.97 -0.0529855
1.98 -0.0543992
1.99 -0.0558236
2 -0.056974
2.01 -0.0575955
2.02 -0.0574743
2.03 -0.0564433
2.04 -0.0542807
2.05 -0.0510683
2.06 -0.0468472
2.07 -0.0417228
2.08 -0.0358614
2.09 -0.0294839
2.1 -0.0228619
2.11 -0.0163508
2.12 -0.0102956
2.13 -0.00503628
2.14 -0.000907485
2.15 0.00177518
2.16 0.00272743
2.17 0.00147106
2.18 -0.00198774
2.19 -0.00774282
2.2 -0.0158348
2.21 -0.0262338
2.22 -0.0388391
2.23 -0.0535632
2.24 -0.0701784
2.25 -0.0882393
2.26 -0.107401
2.27 -0.127285
2.28 -0.147496
2.29 -0.167629
2.3 -0.187203
2.31 -0.205842
2.32 -0.223221
2.33 -0.23905
2.34 -0.253094
2.35 -0.265179
2.36 -0.275122
2.37 -0.282785
2.38 -0.288382
2.39 -0.29202
2.4 -0.293865
2.41 -0.294131
2.42 -0.293076
2.43 -0.290924
2.44 -0.288085
2.45 -0.284905
2.46 -0.281696
2.47 -0.278752
2.48 -0.276341
2.49 -0.274717
2.5 -0.274157
2.51 -0.274711
2.52 -0.276456
2.53 -0.279413
2.54 -0.283554
2.55 -0.288801
2.56 -0.295095
2.57 -0.302213
2.58 -0.309919
2.59 -0.317997
2.6 -0.326218
2.61 -0.334355
2.62 -0.342176
2.63 -0.349404
2.64 -0.355898
2.65 -0.361507
2.66 -0.366118
2.67 -0.369651
2.68 -0.372067
2.69 -0.373292
2.7 -0.373383
2.71 -0.372475
2.72 -0.370667
2.73 -0.368084
2.74 -0.364864
2.75 -0.361155
2.76 -0.357087
2.77 -0.352861
2.78 -0.34861
2.79 -0.344456
2.8 -0.340498
2.81 -0.336815
2.82 -0.33348
2.83 -0.330526
2.84 -0.327929
2.85 -0.325665
2.86 -0.323687
2.87 -0.321936
2.88 -0.320335
2.89 -0.318801
2.9 -0.31723
2.91 -0.315534
2.92 -0.313631
2.93 -0.311447
2.94 -0.308918
2.95 -0.305974
2.96 -0.30256
2.97 -0.298683
2.98 -0.294336
2.99 -0.289517
3 -0.284237
3.01 -0.278509
3.02 -0.272307
3.03 -0.26568
3.04 -0.258641
3.05 -0.25119
3.06 -0.24331
3.07 -0.234974
3.08 -0.22612
3.09 -0.216652
3.1 -0.206535
3.11 -0.19568
3.12 -0.183988
3.13 -0.171351
3.14 -0.157663
3.15 -0.142709
3.16 -0.12644
3.17 -0.108812
3.18 -0.0897586
3.19 -0.0692403
3.2 -0.047243
3.21 -0.0237547
3.22 0.00126917
3.23 0.0275932
3.24 0.0550866
3.25 0.0835846
3.26 0.11289
3.27 0.142778
3.28 0.173002
3.29 0.203243
3.3 0.233202
3.31 0.26259
3.32 0.291119
3.33 0.318507
3.34 0.344474
3.35 0.368589
3.36 0.390797
3.37 0.410924
3.38 0.428829
3.39 0.444408
3.4 0.4576
3.41 0.468231
3.42 0.476343
3.43 0.48213
3.44 0.485683
3.45 0.487124
3.46 0.486596
3.47 0.48426
3.48 0.480123
3.49 0.474571
3.5 0.467787
3.51 0.45995
3.52 0.451229
3.53 0.44178
3.54 0.431724
3.55 0.421195
3.56 0.410334
3.57 0.399225
3.58 0.387937
3.59 0.376525
3.6 0.365029
3.61 0.353477
3.62 0.341902
3.63 0.330322
3.64 0.31876
3.65 0.307239
3.66 0.295791
3.67 0.284459
3.68 0.273308
3.69 0.262391
3.7 0.251782
3.71 0.241564
3.72 0.231833
3.73 0.222689
3.74 0.214315
3.75 0.206784
3.76 0.200188
3.77 0.19463
3.78 0.190207
3.79 0.187004
3.8 0.185133
3.81 0.184734
3.82 0.185726
3.83 0.188123
3.84 0.19192
3.85 0.197092
3.86 0.203594
3.87 0.21146
3.88 0.22054
3.89 0.230693
3.9 0.241811
3.91 0.253778
3.92 0.266474
3.93 0.279781
3.94 0.293598
3.95 0.307746
3.96 0.322108
3.97 0.336572
3.98 0.351035
3.99 0.365399
4 0.379557
4.01 0.393424
4.02 0.406935
4.03 0.420026
4.04 0.432636
4.05 0.444705
4.06 0.456176
4.07 0.466918
4.08 0.476945
4.09 0.4862
4.1 0.494625
4.11 0.50216
4.12 0.508742
4.13 0.514246
4.14 0.5186
4.15 0.521801
4.16 0.523792
4.17 0.524517
4.18 0.523928
4.19 0.521987
4.2 0.518502
4.21 0.513608
4.22 0.507305
4.23 0.499604
4.24 0.490527
4.25 0.480112
4.26 0.468348
4.27 0.455283
4.28 0.441079
4.29 0.425817
4.3 0.409585
4.31 0.392474
4.32 0.374576
4.33 0.35592
4.34 0.336661
4.35 0.316889
4.36 0.296674
4.37 0.276077
4.38 0.255151
4.39 0.233925
4.4 0.212425
4.41 0.19069
4.42 0.168732
4.43 0.146557
4.44 0.124168
4.45 0.101566
4.46 0.0787333
4.47 0.055693
4.48 0.0324654
4.49 0.00907461
4.5 -0.0144439
4.51 -0.0380427
4.52 -0.0616593
4.53 -0.0852047
4.54 -0.108588
4.55 -0.131707
4.56 -0.154452
4.57 -0.176703
4.58 -0.19834
4.59 -0.21917
4.6 -0.239089
4.61 -0.258014
4.62 -0.275844
4.63 -0.292492
4.64 -0.307889
4.65 -0.321964
4.66 -0.334576
4.67 -0.345857
4.68 -0.355834
4.69 -0.364554
4.7 -0.372087
4.71 -0.378523
4.72 -0.383909
4.73 -0.388407
4.74 -0.392195
4.75 -0.395412
4.76 -0.398197
4.77 -0.400684
4.78 -0.403001
4.79 -0.405269
4.8 -0.407601
4.81 -0.410073
4.82 -0.412742
4.83 -0.415643
4.84 -0.41879
4.85 -0.422187
4.86 -0.425796
4.87 -0.429554
4.88 -0.433393
4.89 -0.437235
4.9 -0.440995
4.91 -0.444582
4.92 -0.447867
4.93 -0.450783
4.94 -0.453254
4.95 -0.455214
4.96 -0.456609
4.97 -0.457402
4.98 -0.457542
4.99 -0.45701
5 -0.455866
5.01 -0.45414
5.02 -0.451875
5.03 -0.449124
5.04 -0.445947
5.05 -0.442378
5.06 -0.438518
5.07 -0.434435
5.08 -0.430181
5.09 -0.4258
5.1 -0.421323
5.11 -0.416766
5.12 -0.412124
5.13 -0.407386
5.14 -0.40252
5.15 -0.39748
5.16 -0.392207
5.17 -0.386635
5.18 -0.380649
5.19 -0.374188
5.2 -0.367188
5.21 -0.359582
5.22 -0.351311
5.23 -0.342331
5.24 -0.332593
5.25 -0.322038
5.26 -0.310748
5.27 -0.298762
5.28 -0.286137
5.29 -0.272951
5.3 -0.259302
5.31 -0.245287
5.32 -0.231067
5.33 -0.216793
5.34 -0.202611
5.35 -0.188665
5.36 -0.175095
5.37 -0.162044
5.38 -0.149701
5.39 -0.138111
5.4 -0.127354
5.41 -0.117488
5.42 -0.10855
5.43 -0.10055
5.44 -0.0935361
5.45 -0.0874524
5.46 -0.0821925
5.47 -0.0776804
5.48 -0.0738267
5.49 -0.0705322
5.5 -0.0676925
5.51 -0.0652274
5.52 -0.0629839
5.53 -0.0608661
5.54 -0.0587881
5.55 -0.0566773
5.56 -0.0544763
5.57 -0.0521356
5.58 -0.0496296
5.59 -0.0469645
5.6 -0.0441539
5.61 -0.0412251
5.62 -0.0382167
5.63 -0.0351758
5.64 -0.0321627
5.65 -0.0292345
5.66 -0.0264419
5.67 -0.0238294
5.68 -0.0214321
5.69 -0.0192736
5.7 -0.0173739
5.71 -0.015731
5.72 -0.0143005
5.73 -0.0130405
5.74 -0.0118943
5.75 -0.0107929
5.76 -0.00965652
5.77 -0.00837728
5.78 -0.00686311
5.79 -0.00502606
5.8 -0.00278021
5.81 -4.80297e-05
5.82 0.0032362
5.83 0.00714439
5.84 0.0117441
5.85 0.0169923
5.86 0.0228765
5.87 0.0293633
5.88 0.0363993
5.89 0.0439124
5.9 0.0518387
5.91 0.0600404
5.92 0.068392
5.93 0.0767755
5.94 0.0850721
5.95 0.0931675
5.96 0.100946
5.97 0.108274
5.98 0.115108
5.99 0.121394
6 0.127099
6.01 0.132211
6.02 0.136743
6.03 0.140691
6.04 0.144136
6.05 0.147178
6.06 0.149905
6.07 0.152417
6.08 0.154819
6.09 0.157216
6.1 0.159729
6.11 0.162447
6.12 0.165444
6.13 0.168775
6.14 0.172477
6.15 0.176561
6.16 0.181035
6.17 0.185848
6.18 0.190909
6.19 0.196126
6.2 0.201387
6.21 0.206562
6.22 0.21151
6.23 0.216021
6.24 0.219971
6.25 0.223214
6.26 0.225611
6.27 0.227038
6.28 0.22739
6.29 0.226517
6.3 0.224345
6.31 0.220925
6.32 0.216264
6.33 0.210398
6.34 0.20339
6.35 0.195328
6.36 0.186239
6.37 0.176357
6.38 0.165844
6.39 0.154854
6.4 0.143549
6.41 0.132085
6.42 0.120621
6.43 0.109317
6.44 0.0982901
6.45 0.0876383
6.46 0.0774363
6.47 0.0677346
6.48 0.0585586
6.49 0.0499562
6.5 0.0418597
6.51 0.0342072
6.52 0.0269313
6.53 0.0199509
6.54 0.0131751
6.55 0.0065083
6.56 -0.000157842
6.57 -0.0069213
6.58 -0.0138625
6.59 -0.0210482
6.6 -0.0285288
6.61 -0.0363352
6.62 -0.0445049
6.63 -0.0530042
6.64 -0.0617829
6.65 -0.0707817
6.66 -0.0799231
6.67 -0.0891139
6.68 -0.0982452
6.69 -0.107174
6.7 -0.115788
6.71 -0.123969
6.72 -0.131604
6.73 -0.138587
6.74 -0.144825
6.75 -0.150177
6.76 -0.154601
6.77 -0.158096
6.78 -0.160649
6.79 -0.162262
6.8 -0.162957
6.81 -0.162768
6.82 -0.161674
6.83 -0.159835
6.84 -0.157328
6.85 -0.154229
6.86 -0.150616
6.87 -0.146562
6.88 -0.142114
6.89 -0.137332
6.9 -0.132276
6.91 -0.126964
6.92 -0.121402
6.93 -0.115575
6.94 -0.109454
6.95 -0.102946
6.96 -0.0960232
6.97 -0.0886123
6.98 -0.0806342
6.99 -0.0720062
7 -0.0626461
7.01 -0.0524325
7.02 -0.0412737
7.03 -0.0291725
7.04 -0.0160934
7.05 -0.00202013
7.06 0.0130424
7.07 0.0290666
7.08 0.0460883
7.09 0.0639407
7.1 0.0825104
7.11 0.101677
7.12 0.121305
7.13 0.141243
7.14 0.161331
7.15 0.181379
7.16 0.201212
7.17 0.220666
7.18 0.239589
7.19 0.257836
7.2 0.275279
7.21 0.291715
7.22 0.307106
7.23 0.321411
7.24 0.334586
7.25 0.346608
7.26 0.357473
7.27 0.367164
7.28 0.375649
7.29 0.383074
7.3 0.389492
7.31 0.39496
7.32 0.399536
7.33 0.403277
7.34 0.406172
7.35 0.408301
7.36 0.40972
7.37 0.41044
7.38 0.41046
7.39 0.409764
7.4 0.408307
7.41 0.405972
7.42 0.402773
7.43 0.398643
7.44 0.393506
7.45 0.387285
7.46 0.379905
7.47 0.371201
7.48 0.36113
7.49 0.349703
7.5 0.336887
7.51 0.322668
7.52 0.307052
7.53 0.290061
7.54 0.271617
7.55 0.251954
7.56 0.231177
7.57 0.209415
7.58 0.186814
7.59 0.163538
7.6 0.13975
7.61 0.115671
7.62 0.091527
7.63 0.0675188
7.64 0.0438458
7.65 0.0207017
7.66 -0.00172893
7.67 -0.0231578
7.68 -0.0435116
7.69 -0.0626631
7.7 -0.0805015
7.71 -0.0969381
7.72 -0.111908
7.73 -0.125295
7.74 -0.137051
7.75 -0.147288
7.76 -0.156037
7.77 -0.163348
7.78 -0.169286
7.79 -0.17393
7.8 -0.17726
7.81 -0.179489
7.82 -0.180743
7.83 -0.181132
7.84 -0.180764
7.85 -0.179747
7.86 -0.178165
7.87 -0.176108
7.88 -0.173704
7.89 -0.17103
7.9 -0.168153
7.91 -0.16513
7.92 -0.162006
7.93 -0.158817
7.94 -0.155592
7.95 -0.152351
7.96 -0.149099
7.97 -0.145838
7.98 -0.142563
7.99 -0.139264
8 -0.135924
8.01 -0.132531
8.02 -0.129071
8.03 -0.125528
8.04 -0.121891
8.05 -0.11815
8.06 -0.11429
8.07 -0.110313
8.08 -0.106228
8.09 -0.102043
8.1 -0.0977714
8.11 -0.0934318
8.12 -0.0890473
8.13 -0.0846481
8.14 -0.0802709
8.15 -0.0759512
8.16 -0.0717269
8.17 -0.067637
8.18 -0.0637208
8.19 -0.0600342
8.2 -0.056615
8.21 -0.0534853
8.22 -0.0506736
8.23 -0.048203
8.24 -0.0460902
8.25 -0.0443459
8.26 -0.0430116
8.27 -0.0420361
8.28 -0.0414013
8.29 -0.04108
8.3 -0.0410366
8.31 -0.0412272
8.32 -0.041607
8.33 -0.0421084
8.34 -0.0426562
8.35 -0.0431819
8.36 -0.0436152
8.37 -0.0438856
8.38 -0.0439243
8.39 -0.0436269
8.4 -0.0429595
8.41 -0.0418742
8.42 -0.0403306
8.43 -0.0382992
8.44 -0.0357625
8.45 -0.0326937
8.46 -0.0290922
8.47 -0.0250216
8.48 -0.0205227
8.49 -0.0156486
8.5 -0.0104648
8.51 -0.00504662
8.52 0.000527279
8.53 0.00614319
8.54 0.0117027
8.55 0.0171091
8.56 0.0222668
8.57 0.0270843
8.58 0.031459
8.59 0.035281
8.6 0.0385241
8.61 0.0411386
8.62 0.0430889
8.63 0.0443544
8.64 0.0449297
8.65 0.0447674
8.66 0.0439366
8.67 0.0424991
8.68 0.0405086
8.69 0.0380281
8.7 0.0351287
8.71 0.0318806
8.72 0.0283546
8.73 0.0246603
8.74 0.0208732
8.75 0.0170632
8.76 0.0132926
8.77 0.00961395
8.78 0.00608134
8.79 0.00272104
8.8 -0.000460024
8.81 -0.00346235
8.82 -0.00629919
8.83 -0.00899571
8.84 -0.0115871
8.85 -0.0141195
8.86 -0.0166568
8.87 -0.0192575
8.88 -0.021982
8.89 -0.0248906
8.9 -0.0280411
8.91 -0.031509
8.92 -0.0353428
8.93 -0.0395622
8.94 -0.0441927
8.95 -0.0492487
8.96 -0.0547335
8.97 -0.0606388
8.98 -0.0669874
8.99 -0.0736979
9 -0.0807281
9.01 -0.0880282
9.02 -0.0955427
9.03 -0.103212
9.04 -0.110975
9.05 -0.11876
9.06 -0.126504
9.07 -0.134149
9.08 -0.141644
9.09 -0.148947
9.1 -0.156018
9.11 -0.162801
9.12 -0.169297
9.13 -0.175499
9.14 -0.181403
9.15 -0.187012
9.16 -0.192335
9.17 -0.197372
9.18 -0.202133
9.19 -0.206654
9.2 -0.210952
9.21 -0.215038
9.22 -0.218925
9.23 -0.222618
9.24 -0.226099
9.25 -0.229377
9.26 -0.232444
9.27 -0.235284
9.28 -0.237875
9.29 -0.24019
9.3 -0.242191
9.31 -0.243822
9.32 -0.24508
9.33 -0.245932
9.34 -0.246352
9.35 -0.246315
9.36 -0.245801
9.37 -0.244755
9.38 -0.243196
9.39 -0.241142
9.4 -0.238604
9.41 -0.235597
9.42 -0.232145
9.43 -0.228268
9.44 -0.223976
9.45 -0.219343
9.46 -0.214409
9.47 -0.209211
9.48 -0.203783
9.49 -0.198156
9.5 -0.192347
9.51 -0.18638
9.52 -0.180273
9.53 -0.174028
9.54 -0.167635
9.55 -0.16108
9.56 -0.154336
9.57 -0.147343
9.58 -0.140082
9.59 -0.132508
9.6 -0.124573
9.61 -0.116229
9.62 -0.107426
9.63 -0.0980875
9.64 -0.0881708
9.65 -0.0776733
9.66 -0.0665731
9.67 -0.0548585
9.68 -0.0425293
9.69 -0.029597
9.7 -0.0160226
9.71 -0.00191374
9.72 0.0126783
9.73 0.027693
9.74 0.043061
9.75 0.0587057
9.76 0.0745506
9.77 0.090499
9.78 0.106453
9.79 0.122327
9.8 0.138042
9.81 0.15352
9.82 0.168694
9.83 0.18346
9.84 0.197797
9.85 0.211671
9.86 0.225054
9.87 0.237928
9.88 0.250283
9.89 0.262098
9.9 0.273362
9.91 0.284127
9.92 0.29441
9.93 0.304228
9.94 0.313598
9.95 0.322536
9.96 0.331017
9.97 0.339077
9.98 0.346727
9.99 0.353961
10 0.360767
10.01 0.367125
10.02 0.372998
10.03 0.37832
10.04 0.383099
10.05 0.387298
10.06 0.390881
10.07 0.393812
10.08 0.396059
10.09 0.397534
10.1 0.398251
10.11 0.398226
10.12 0.397458
10.13 0.395962
10.14 0.39376
10.15 0.390877
10.16 0.387317
10.17 0.383207
10.18 0.378616
10.19 0.373623
10.2 0.368312
10.21 0.362772
10.22 0.357089
10.23 0.35137
10.24 0.345705
10.25 0.340176
10.26 0.334855
10.27 0.329805
10.28 0.32508
10.29 0.320759
10.3 0.316829
10.31 0.313297
10.32 0.310158
10.33 0.307393
10.34 0.30497
10.35 0.302861
10.36 0.301002
10.37 0.299313
10.38 0.297726
10.39 0.296168
10.4 0.294563
10.41 0.292837
10.42 0.290886
10.43 0.288658
10.44 0.286088
10.45 0.283122
10.46 0.279709
10.47 0.275807
10.48 0.271355
10.49 0.266314
10.5 0.260702
10.51 0.254508
10.52 0.24773
10.53 0.240366
10.54 0.232423
10.55 0.223849
10.56 0.214707
10.57 0.205017
10.58 0.194792
10.59 0.184044
10.6 0.172788
10.61 0.161018
10.62 0.148729
10.63 0.135974
10.64 0.12277
10.65 0.109133
10.66 0.0950818
10.67 0.0806406
10.68 0.0658056
10.69 0.0506361
10.7 0.0351791
10.71 0.0194774
10.72 0.00357907
10.73 -0.012463
10.74 -0.0285917
10.75 -0.044739
10.76 -0.0608336
10.77 -0.07681
10.78 -0.0926031
10.79 -0.10815
10.8 -0.12339
10.81 -0.138238
10.82 -0.152656
10.83 -0.166621
10.84 -0.180108
10.85 -0.193099
10.86 -0.205591
10.87 -0.217585
10.88 -0.229062
10.89 -0.240106
10.9 -0.250759
10.91 -0.261072
10.92 -0.271102
10.93 -0.280912
10.94 -0.290559
10.95 -0.300119
10.96 -0.309658
10.97 -0.319229
10.98 -0.328878
10.99 -0.338637
11 -0.348529
11.01 -0.358575
11.02 -0.368749
11.03 -0.379022
11.04 -0.389351
11.05 -0.399678
11.06 -0.409931
11.07 -0.420011
11.08 -0.429807
11.09 -0.439225
11.1 -0.448158
11.11 -0.456498
11.12 -0.464137
11.13 -0.470973
11.14 -0.476806
11.15 -0.481639
11.16 -0.485412
11.17 -0.488076
11.18 -0.489597
11.19 -0.489961
11.2 -0.489117
11.21 -0.487064
11.22 -0.483925
11.23 -0.479759
11.24 -0.474635
11.25 -0.468632
11.26 -0.461841
11.27 -0.454293
11.28 -0.446152
11.29 -0.437521
11.3 -0.428489
11.31 -0.419134
11.32 -0.409525
11.33 -0.399716
11.34 -0.389745
11.35 -0.379653
11.36 -0.36945
11.37 -0.359131
11.38 -0.348677
11.39 -0.338058
11.4 -0.327211
11.41 -0.316092
11.42 -0.304652
11.43 -0.292835
11.44 -0.280586
11.45 -0.267853
11.46 -0.254581
11.47 -0.240691
11.48 -0.226217
11.49 -0.211152
11.5 -0.195507
11.51 -0.179308
11.52 -0.162597
11.53 -0.145403
11.54 -0.127824
11.55 -0.109968
11.56 -0.0919311
11.57 -0.0738187
11.58 -0.0557411
11.59 -0.0378136
11.6 -0.0201842
11.61 -0.00294088
11.62 0.0138185
11.63 0.0300061
11.64 0.045546
11.65 0.0603762
11.66 0.0743978
11.67 0.0875891
11.68 0.0999784
11.69 0.11157
11.7 0.122385
11.71 0.132453
11.72 0.141819
11.73 0.150468
11.74 0.158541
11.75 0.166101
11.76 0.173214
11.77 0.179943
11.78 0.186346
11.79 0.192464
11.8 0.198343
11.81 0.204033
11.82 0.209552
11.83 0.214909
11.84 0.2201
11.85 0.225112
11.86 0.229893
11.87 0.234424
11.88 0.238661
11.89 0.242554
11.9 0.24605
11.91 0.249091
11.92 0.251599
11.93 0.253494
11.94 0.254767
11.95 0.255375
11.96 0.255282
11.97 0.254459
11.98 0.252887
11.99 0.250479
12 0.24729
12.01 0.243342
12.02 0.238645
12.03 0.233217
12.04 0.227077
12.05 0.220228
12.06 0.212661
12.07 0.204457
12.08 0.195637
12.09 0.186219
12.1 0.176217
12.11 0.165642
12.12 0.154451
12.13 0.142676
12.14 0.130334
12.15 0.117419
