# xPDFsuite Configuration #
[PDF]
wavelength = 0.1
dataformat = QA
inputfile = BiMsol6_insitu_700 C-00380.xy
backgroundfile = Quartz2mm-dist500-00000.xy
mode = xray
bgscale = 0.0042
composition = Bi2Fe4O9
outputtype = gr
qmaxinst = 24.998449118
qmin = 0.1
qmax = 21.4986662415
rmax = 80.0
rmin = 0.0
rstep = 0.01
rpoly = 0.9

[Misc]
inputdir = C:/Data/Seafile/CPH/Beamtime/Desy Oct 20/In situ data/Processed/BiMsol6/PDF
savedir = C:/Data/Seafile/CPH/Beamtime/Desy Oct 20/In situ data/PDF/BiMsol6
backgroundfilefull = C:/Data/Seafile/CPH/Beamtime/Desy Oct 20/In situ data/Processed/Standard_Empty_Cap/Quartz2mm-dist500-00000.xy

#### start data
#S 1
#L r($\AA$)  G($\AA^{-2}$)
0 0
0.01 0.0071492
0.02 0.0139008
0.03 0.0199145
0.04 0.0248846
0.05 0.0285538
0.06 0.0307255
0.07 0.031184
0.08 0.0298642
0.09 0.0269209
0.1 0.0224805
0.11 0.0167405
0.12 0.0099611
0.13 0.00245363
0.14 -0.00543406
0.15 -0.0132566
0.16 -0.0206389
0.17 -0.0272284
0.18 -0.0327076
0.19 -0.0368094
0.2 -0.0392587
0.21 -0.0398636
0.22 -0.0387231
0.23 -0.0359012
0.24 -0.0315472
0.25 -0.0258908
0.26 -0.0192334
0.27 -0.0119143
0.28 -0.00443757
0.29 0.00274877
0.3 0.00920883
0.31 0.0145263
0.32 0.0183243
0.33 0.0202206
0.34 0.019838
0.35 0.0172176
0.36 0.012343
0.37 0.00530909
0.38 -0.00367542
0.39 -0.0142913
0.4 -0.0261728
0.41 -0.038665
0.42 -0.0511231
0.43 -0.0628923
0.44 -0.0732924
0.45 -0.0816436
0.46 -0.0872266
0.47 -0.0891172
0.48 -0.087096
0.49 -0.0807779
0.5 -0.0699059
0.51 -0.0543674
0.52 -0.0342044
0.53 -0.00932584
0.54 0.019701
0.55 0.0521206
0.56 0.0872321
0.57 0.124213
0.58 0.162141
0.59 0.20001
0.6 0.236545
0.61 0.270725
0.62 0.301534
0.63 0.328019
0.64 0.349322
0.65 0.364706
0.66 0.373155
0.67 0.374252
0.68 0.368175
0.69 0.354932
0.7 0.334724
0.71 0.307939
0.72 0.275146
0.73 0.236567
0.74 0.193768
0.75 0.147767
0.76 0.0996422
0.77 0.0505105
0.78 0.00149619
0.79 -0.0461876
0.8 -0.0913261
0.81 -0.133098
0.82 -0.170715
0.83 -0.203535
0.84 -0.231079
0.85 -0.253039
0.86 -0.268702
0.87 -0.278667
0.88 -0.283277
0.89 -0.282947
0.9 -0.278226
0.91 -0.269774
0.92 -0.258252
0.93 -0.244497
0.94 -0.229564
0.95 -0.214272
0.96 -0.199404
0.97 -0.18568
0.98 -0.173733
0.99 -0.164344
1 -0.15779
1.01 -0.154256
1.02 -0.153855
1.03 -0.156565
1.04 -0.162244
1.05 -0.1707
1.06 -0.18166
1.07 -0.194437
1.08 -0.208526
1.09 -0.223392
1.1 -0.238492
1.11 -0.2533
1.12 -0.267223
1.13 -0.279814
1.14 -0.290759
1.15 -0.299798
1.16 -0.306764
1.17 -0.311585
1.18 -0.31425
1.19 -0.314732
1.2 -0.31346
1.21 -0.310714
1.22 -0.30683
1.23 -0.302175
1.24 -0.297134
1.25 -0.292117
1.26 -0.287537
1.27 -0.283707
1.28 -0.280891
1.29 -0.279288
1.3 -0.279025
1.31 -0.280159
1.32 -0.282793
1.33 -0.286646
1.34 -0.291527
1.35 -0.297184
1.36 -0.303323
1.37 -0.309614
1.38 -0.315683
1.39 -0.321132
1.4 -0.325658
1.41 -0.328976
1.42 -0.330853
1.43 -0.331117
1.44 -0.329664
1.45 -0.326278
1.46 -0.321217
1.47 -0.31464
1.48 -0.306765
1.49 -0.297877
1.5 -0.288308
1.51 -0.278438
1.52 -0.268724
1.53 -0.259584
1.54 -0.251403
1.55 -0.244535
1.56 -0.239288
1.57 -0.235908
1.58 -0.234785
1.59 -0.235836
1.6 -0.23901
1.61 -0.244204
1.62 -0.251228
1.63 -0.259814
1.64 -0.269652
1.65 -0.280315
1.66 -0.29126
1.67 -0.30201
1.68 -0.312084
1.69 -0.321014
1.7 -0.32836
1.71 -0.333523
1.72 -0.336269
1.73 -0.336418
1.74 -0.333825
1.75 -0.328435
1.76 -0.320289
1.77 -0.309461
1.78 -0.296061
1.79 -0.280651
1.8 -0.263628
1.81 -0.245438
1.82 -0.226565
1.83 -0.207513
1.84 -0.188852
1.85 -0.171117
1.86 -0.154735
1.87 -0.140091
1.88 -0.127506
1.89 -0.11722
1.9 -0.109423
1.91 -0.104397
1.92 -0.101834
1.93 -0.10159
1.94 -0.103444
1.95 -0.1071
1.96 -0.112203
1.97 -0.118392
1.98 -0.125155
1.99 -0.131999
2 -0.138492
2.01 -0.14423
2.02 -0.148849
2.03 -0.152034
2.04 -0.153341
2.05 -0.152799
2.06 -0.150348
2.07 -0.146016
2.08 -0.139912
2.09 -0.132227
2.1 -0.123167
2.11 -0.11311
2.12 -0.102516
2.13 -0.0917998
2.14 -0.0813914
2.15 -0.0717192
2.16 -0.0631954
2.17 -0.0564055
2.18 -0.0515511
2.19 -0.0488798
2.2 -0.0485816
2.21 -0.0507702
2.22 -0.05548
2.23 -0.0627716
2.24 -0.0725527
2.25 -0.0844306
2.26 -0.0981266
2.27 -0.113309
2.28 -0.129608
2.29 -0.146623
2.3 -0.163934
2.31 -0.181062
2.32 -0.197615
2.33 -0.213238
2.34 -0.227618
2.35 -0.240497
2.36 -0.251612
2.37 -0.260732
2.38 -0.267953
2.39 -0.273296
2.4 -0.276845
2.41 -0.278744
2.42 -0.279189
2.43 -0.278335
2.44 -0.276562
2.45 -0.274201
2.46 -0.271553
2.47 -0.268917
2.48 -0.266575
2.49 -0.2648
2.5 -0.263895
2.51 -0.263973
2.52 -0.265156
2.53 -0.267515
2.54 -0.271073
2.55 -0.275801
2.56 -0.2817
2.57 -0.288593
2.58 -0.296276
2.59 -0.304563
2.6 -0.313249
2.61 -0.32212
2.62 -0.330958
2.63 -0.339506
2.64 -0.347581
2.65 -0.355014
2.66 -0.36166
2.67 -0.367407
2.68 -0.372171
2.69 -0.375835
2.7 -0.378393
2.71 -0.379918
2.72 -0.380448
2.73 -0.380044
2.74 -0.37878
2.75 -0.376739
2.76 -0.373935
2.77 -0.370538
2.78 -0.366619
2.79 -0.362237
2.8 -0.357433
2.81 -0.352229
2.82 -0.346605
2.83 -0.340533
2.84 -0.333995
2.85 -0.326935
2.86 -0.319283
2.87 -0.310959
2.88 -0.301883
2.89 -0.291877
2.9 -0.280944
2.91 -0.269035
2.92 -0.25611
2.93 -0.242153
2.94 -0.227168
2.95 -0.211148
2.96 -0.194136
2.97 -0.176297
2.98 -0.157749
2.99 -0.13863
3 -0.119098
3.01 -0.0993211
3.02 -0.0794891
3.03 -0.0598066
3.04 -0.0404488
3.05 -0.0215789
3.06 -0.00334368
3.07 0.0141312
3.08 0.0307152
3.09 0.0462808
3.1 0.0608698
3.11 0.0744804
3.12 0.0871419
3.13 0.0989129
3.14 0.109878
3.15 0.120097
3.16 0.129752
3.17 0.139005
3.18 0.148005
3.19 0.156899
3.2 0.165829
3.21 0.174932
3.22 0.184356
3.23 0.19417
3.24 0.204438
3.25 0.215194
3.26 0.226447
3.27 0.238177
3.28 0.250361
3.29 0.262898
3.3 0.27567
3.31 0.288557
3.32 0.301425
3.33 0.314135
3.34 0.326538
3.35 0.338429
3.36 0.349713
3.37 0.360266
3.38 0.369985
3.39 0.378784
3.4 0.386601
3.41 0.393329
3.42 0.398965
3.43 0.403578
3.44 0.407207
3.45 0.409911
3.46 0.411766
3.47 0.412866
3.48 0.413252
3.49 0.413124
3.5 0.412599
3.51 0.411796
3.52 0.410828
3.53 0.409805
3.54 0.408833
3.55 0.408014
3.56 0.407418
3.57 0.407105
3.58 0.407123
3.59 0.407507
3.6 0.408281
3.61 0.409501
3.62 0.411133
3.63 0.413169
3.64 0.4156
3.65 0.418417
3.66 0.421605
3.67 0.425167
3.68 0.429102
3.69 0.433372
3.7 0.437969
3.71 0.442886
3.72 0.448114
3.73 0.453647
3.74 0.4595
3.75 0.465636
3.76 0.472028
3.77 0.478646
3.78 0.485454
3.79 0.492403
3.8 0.499436
3.81 0.506471
3.82 0.513415
3.83 0.520172
3.84 0.526634
3.85 0.532684
3.86 0.538196
3.87 0.542977
3.88 0.546909
3.89 0.549884
3.9 0.551775
3.91 0.552463
3.92 0.551837
3.93 0.549772
3.94 0.546055
3.95 0.540766
3.96 0.533861
3.97 0.525316
3.98 0.515125
3.99 0.503302
4 0.489771
4.01 0.474631
4.02 0.458024
4.03 0.440033
4.04 0.42075
4.05 0.400277
4.06 0.378713
4.07 0.356083
4.08 0.332614
4.09 0.308419
4.1 0.283603
4.11 0.258271
4.12 0.232522
4.13 0.206435
4.14 0.180113
4.15 0.153655
4.16 0.12714
4.17 0.100641
4.18 0.0742323
4.19 0.047985
4.2 0.0220053
4.21 -0.00365225
4.22 -0.0289134
4.23 -0.0537005
4.24 -0.0779338
4.25 -0.101531
4.26 -0.124368
4.27 -0.146333
4.28 -0.167392
4.29 -0.187465
4.3 -0.206478
4.31 -0.22436
4.32 -0.241053
4.33 -0.256379
4.34 -0.27041
4.35 -0.283149
4.36 -0.294597
4.37 -0.304772
4.38 -0.313711
4.39 -0.321425
4.4 -0.32795
4.41 -0.333471
4.42 -0.338088
4.43 -0.341915
4.44 -0.345072
4.45 -0.347685
4.46 -0.349851
4.47 -0.351736
4.48 -0.353463
4.49 -0.355139
4.5 -0.356853
4.51 -0.358682
4.52 -0.360689
4.53 -0.362931
4.54 -0.365405
4.55 -0.368105
4.56 -0.371007
4.57 -0.374072
4.58 -0.377242
4.59 -0.380446
4.6 -0.383592
4.61 -0.386595
4.62 -0.389369
4.63 -0.39183
4.64 -0.393899
4.65 -0.3955
4.66 -0.396526
4.67 -0.396987
4.68 -0.396861
4.69 -0.396146
4.7 -0.394857
4.71 -0.393027
4.72 -0.39068
4.73 -0.387904
4.74 -0.384807
4.75 -0.381483
4.76 -0.378036
4.77 -0.374571
4.78 -0.371197
4.79 -0.368052
4.8 -0.36522
4.81 -0.362789
4.82 -0.360834
4.83 -0.359418
4.84 -0.358586
4.85 -0.358403
4.86 -0.358881
4.87 -0.359976
4.88 -0.361661
4.89 -0.363897
4.9 -0.366631
4.91 -0.369799
4.92 -0.373361
4.93 -0.377193
4.94 -0.381208
4.95 -0.385325
4.96 -0.389462
4.97 -0.393541
4.98 -0.397478
4.99 -0.401194
5 -0.40464
5.01 -0.407766
5.02 -0.410527
5.03 -0.412887
5.04 -0.414814
5.05 -0.416233
5.06 -0.417156
5.07 -0.417569
5.08 -0.41745
5.09 -0.416777
5.1 -0.415524
5.11 -0.413636
5.12 -0.411045
5.13 -0.40776
5.14 -0.403735
5.15 -0.398919
5.16 -0.393256
5.17 -0.386689
5.18 -0.379064
5.19 -0.370373
5.2 -0.360583
5.21 -0.349637
5.22 -0.337483
5.23 -0.324078
5.24 -0.30935
5.25 -0.293181
5.26 -0.275674
5.27 -0.256827
5.28 -0.236649
5.29 -0.215158
5.3 -0.192386
5.31 -0.168284
5.32 -0.14296
5.33 -0.116529
5.34 -0.0890632
5.35 -0.0606432
5.36 -0.0313553
5.37 -0.0012822
5.38 0.0295291
5.39 0.0608995
5.4 0.0927256
5.41 0.124901
5.42 0.157317
5.43 0.189861
5.44 0.222411
5.45 0.254827
5.46 0.286986
5.47 0.318756
5.48 0.350002
5.49 0.38058
5.5 0.410339
5.51 0.438995
5.52 0.466483
5.53 0.492636
5.54 0.517281
5.55 0.540247
5.56 0.561362
5.57 0.580334
5.58 0.596962
5.59 0.611221
5.6 0.622972
5.61 0.632093
5.62 0.638481
5.63 0.642055
5.64 0.642445
5.65 0.639912
5.66 0.63449
5.67 0.626218
5.68 0.615166
5.69 0.601434
5.7 0.585047
5.71 0.566117
5.72 0.545016
5.73 0.52195
5.74 0.497141
5.75 0.470825
5.76 0.443241
5.77 0.414559
5.78 0.385124
5.79 0.355188
5.8 0.324969
5.81 0.294671
5.82 0.264478
5.83 0.234565
5.84 0.205109
5.85 0.176194
5.86 0.147904
5.87 0.120304
5.88 0.0934346
5.89 0.0673211
5.9 0.0420382
5.91 0.01754
5.92 -0.00620795
5.93 -0.0292191
5.94 -0.0515052
5.95 -0.073073
5.96 -0.0939046
5.97 -0.11393
5.98 -0.133188
5.99 -0.151633
6 -0.169203
6.01 -0.185824
6.02 -0.201405
6.03 -0.215752
6.04 -0.228775
6.05 -0.240406
6.06 -0.250528
6.07 -0.259026
6.08 -0.265795
6.09 -0.270722
6.1 -0.27354
6.11 -0.274396
6.12 -0.273264
6.13 -0.270146
6.14 -0.265072
6.15 -0.258101
6.16 -0.249215
6.17 -0.238573
6.18 -0.226422
6.19 -0.212936
6.2 -0.198307
6.21 -0.182743
6.22 -0.166462
6.23 -0.149654
6.24 -0.132618
6.25 -0.115569
6.26 -0.0987056
6.27 -0.082213
6.28 -0.0662534
6.29 -0.0510065
6.3 -0.0366042
6.31 -0.023075
6.32 -0.0104619
6.33 0.00122244
6.34 0.0119941
6.35 0.0218962
6.36 0.0309213
6.37 0.0392469
6.38 0.0469924
6.39 0.0542803
6.4 0.0612407
6.41 0.0680072
6.42 0.0747154
6.43 0.0815124
6.44 0.0885173
6.45 0.0958337
6.46 0.10355
6.47 0.111739
6.48 0.120456
6.49 0.129792
6.5 0.139725
6.51 0.150242
6.52 0.161326
6.53 0.172949
6.54 0.185071
6.55 0.197659
6.56 0.210676
6.57 0.224029
6.58 0.237663
6.59 0.251528
6.6 0.265575
6.61 0.279762
6.62 0.29406
6.63 0.308432
6.64 0.322852
6.65 0.337306
6.66 0.35178
6.67 0.366266
6.68 0.380755
6.69 0.395235
6.7 0.409692
6.71 0.424106
6.72 0.438449
6.73 0.452684
6.74 0.466762
6.75 0.480605
6.76 0.494132
6.77 0.507267
6.78 0.519909
6.79 0.53195
6.8 0.54327
6.81 0.553733
6.82 0.563093
6.83 0.571309
6.84 0.578246
6.85 0.583773
6.86 0.587765
6.87 0.590103
6.88 0.590568
6.89 0.589066
6.9 0.585621
6.91 0.580178
6.92 0.572696
6.93 0.563156
6.94 0.551555
6.95 0.537681
6.96 0.5218
6.97 0.503973
6.98 0.48427
6.99 0.462771
7 0.439572
7.01 0.414701
7.02 0.388263
7.03 0.360481
7.04 0.331478
7.05 0.301379
7.06 0.27031
7.07 0.238396
7.08 0.205701
7.09 0.172425
7.1 0.138699
7.11 0.10464
7.12 0.0703649
7.13 0.0359858
7.14 0.00161852
7.15 -0.0326086
7.16 -0.0665915
7.17 -0.100226
7.18 -0.13341
7.19 -0.166044
7.2 -0.198029
7.21 -0.229192
7.22 -0.259482
7.23 -0.288828
7.24 -0.317148
7.25 -0.344364
7.26 -0.370405
7.27 -0.395169
7.28 -0.418513
7.29 -0.440505
7.3 -0.461107
7.31 -0.480293
7.32 -0.498047
7.33 -0.514364
7.34 -0.529134
7.35 -0.542439
7.36 -0.554358
7.37 -0.564926
7.38 -0.574187
7.39 -0.582192
7.4 -0.588976
7.41 -0.594513
7.42 -0.598987
7.43 -0.602461
7.44 -0.605003
7.45 -0.606676
7.46 -0.607542
7.47 -0.607614
7.48 -0.60697
7.49 -0.605696
7.5 -0.603836
7.51 -0.601429
7.52 -0.598509
7.53 -0.595102
7.54 -0.591184
7.55 -0.586825
7.56 -0.582038
7.57 -0.576829
7.58 -0.571204
7.59 -0.565163
7.6 -0.55868
7.61 -0.55175
7.62 -0.54439
7.63 -0.536594
7.64 -0.528354
7.65 -0.519661
7.66 -0.510507
7.67 -0.500831
7.68 -0.490676
7.69 -0.48004
7.7 -0.46892
7.71 -0.457315
7.72 -0.445229
7.73 -0.432645
7.74 -0.419566
7.75 -0.406043
7.76 -0.392099
7.77 -0.377761
7.78 -0.363067
7.79 -0.348058
7.8 -0.332764
7.81 -0.317273
7.82 -0.301657
7.83 -0.28599
7.84 -0.270354
7.85 -0.254836
7.86 -0.23954
7.87 -0.224589
7.88 -0.210065
7.89 -0.196067
7.9 -0.182692
7.91 -0.170037
7.92 -0.158189
7.93 -0.147319
7.94 -0.137452
7.95 -0.128623
7.96 -0.120879
7.97 -0.114254
7.98 -0.108768
7.99 -0.104454
8 -0.101373
8.01 -0.0993906
8.02 -0.0984631
8.03 -0.0985347
8.04 -0.0995379
8.05 -0.101396
8.06 -0.104077
8.07 -0.107449
8.08 -0.111389
8.09 -0.115804
8.1 -0.120604
8.11 -0.125702
8.12 -0.131021
8.13 -0.136494
8.14 -0.142039
8.15 -0.147605
8.16 -0.153152
8.17 -0.158651
8.18 -0.164078
8.19 -0.169414
8.2 -0.174655
8.21 -0.179802
8.22 -0.184857
8.23 -0.18982
8.24 -0.194688
8.25 -0.199454
8.26 -0.20409
8.27 -0.20858
8.28 -0.21289
8.29 -0.216971
8.3 -0.220762
8.31 -0.224193
8.32 -0.227147
8.33 -0.229512
8.34 -0.231209
8.35 -0.232126
8.36 -0.232146
8.37 -0.231151
8.38 -0.229025
8.39 -0.225511
8.4 -0.220624
8.41 -0.214284
8.42 -0.206418
8.43 -0.196969
8.44 -0.1859
8.45 -0.173117
8.46 -0.158582
8.47 -0.142443
8.48 -0.124747
8.49 -0.105564
8.5 -0.0849761
8.51 -0.0630837
8.52 -0.0398923
8.53 -0.0156315
8.54 0.00955004
8.55 0.0355242
8.56 0.0621646
8.57 0.0893497
8.58 0.116976
8.59 0.144943
8.6 0.173127
8.61 0.20145
8.62 0.229852
8.63 0.25828
8.64 0.286699
8.65 0.315076
8.66 0.343395
8.67 0.371647
8.68 0.399825
8.69 0.427921
8.7 0.455925
8.71 0.483815
8.72 0.511551
8.73 0.539098
8.74 0.5664
8.75 0.593382
8.76 0.619952
8.77 0.646
8.78 0.671338
8.79 0.695823
8.8 0.719321
8.81 0.741658
8.82 0.762655
8.83 0.782125
8.84 0.799857
8.85 0.815471
8.86 0.828976
8.87 0.840211
8.88 0.849031
8.89 0.85531
8.9 0.858943
8.91 0.859672
8.92 0.857473
8.93 0.852472
8.94 0.844675
8.95 0.834118
8.96 0.820861
8.97 0.804983
8.98 0.786314
8.99 0.765281
9 0.742022
9.01 0.716687
9.02 0.689431
9.03 0.660414
9.04 0.629718
9.05 0.597509
9.06 0.564038
9.07 0.529446
9.08 0.493869
9.09 0.457432
9.1 0.420252
9.11 0.38238
9.12 0.343989
9.13 0.305178
9.14 0.266038
9.15 0.226661
9.16 0.187137
9.17 0.147564
9.18 0.10806
9.19 0.0687381
9.2 0.0297185
9.21 -0.00886738
9.22 -0.0468776
9.23 -0.0841591
9.24 -0.120446
9.25 -0.155611
9.26 -0.189492
9.27 -0.221904
9.28 -0.252659
9.29 -0.281571
9.3 -0.30839
9.31 -0.332806
9.32 -0.354836
9.33 -0.374343
9.34 -0.391207
9.35 -0.405328
9.36 -0.416633
9.37 -0.42483
9.38 -0.430049
9.39 -0.432396
9.4 -0.43191
9.41 -0.428656
9.42 -0.422723
9.43 -0.414172
9.44 -0.402965
9.45 -0.389498
9.46 -0.373931
9.47 -0.356434
9.48 -0.33718
9.49 -0.316347
9.5 -0.294019
9.51 -0.270431
9.52 -0.245808
9.53 -0.220302
9.54 -0.194059
9.55 -0.167213
9.56 -0.139884
9.57 -0.112161
9.58 -0.0841965
9.59 -0.0560823
9.6 -0.0279057
9.61 0.000251036
9.62 0.0283087
9.63 0.0561728
9.64 0.0837538
9.65 0.11098
9.66 0.137766
9.67 0.164021
9.68 0.189649
9.69 0.21455
9.7 0.238508
9.71 0.261499
9.72 0.283409
9.73 0.304125
9.74 0.323532
9.75 0.341522
9.76 0.357907
9.77 0.372552
9.78 0.385477
9.79 0.396612
9.8 0.4059
9.81 0.413304
9.82 0.418801
9.83 0.422192
9.84 0.423674
9.85 0.42331
9.86 0.42116
9.87 0.417297
9.88 0.411811
9.89 0.40475
9.9 0.396195
9.91 0.386386
9.92 0.375453
9.93 0.36353
9.94 0.350749
9.95 0.33724
9.96 0.323086
9.97 0.308459
9.98 0.293482
9.99 0.278251
10 0.262853
10.01 0.247363
10.02 0.231844
10.03 0.216355
10.04 0.200932
10.05 0.185604
10.06 0.170389
10.07 0.155297
10.08 0.140333
10.09 0.125508
10.1 0.110811
10.11 0.0962339
10.12 0.0817721
10.13 0.0674224
10.14 0.0531836
10.15 0.03906
10.16 0.0250678
10.17 0.0112059
10.18 -0.00251162
10.19 -0.0160671
10.2 -0.0294399
10.21 -0.0426065
10.22 -0.0555229
10.23 -0.0681642
10.24 -0.080514
10.25 -0.0925453
10.26 -0.104232
10.27 -0.115551
10.28 -0.126477
10.29 -0.136948
10.3 -0.146993
10.31 -0.156599
10.32 -0.165761
10.33 -0.174474
10.34 -0.182737
10.35 -0.190529
10.36 -0.197857
10.37 -0.204758
10.38 -0.211245
10.39 -0.217331
10.4 -0.223036
10.41 -0.228378
10.42 -0.233342
10.43 -0.237992
10.44 -0.242353
10.45 -0.246452
10.46 -0.250318
10.47 -0.253979
10.48 -0.25746
10.49 -0.260795
10.5 -0.264029
10.51 -0.267196
10.52 -0.270332
10.53 -0.273472
10.54 -0.276649
10.55 -0.279907
10.56 -0.283277
10.57 -0.286784
10.58 -0.290454
10.59 -0.294308
10.6 -0.298363
10.61 -0.302636
10.62 -0.307141
10.63 -0.311857
10.64 -0.316772
10.65 -0.321869
10.66 -0.327121
10.67 -0.332497
10.68 -0.337961
10.69 -0.343459
10.7 -0.34894
10.71 -0.35435
10.72 -0.359638
10.73 -0.364749
10.74 -0.369624
10.75 -0.374191
10.76 -0.378429
10.77 -0.3823
10.78 -0.385778
10.79 -0.388843
10.8 -0.391483
10.81 -0.393667
10.82 -0.395426
10.83 -0.3968
10.84 -0.397819
10.85 -0.398527
10.86 -0.39897
10.87 -0.399203
10.88 -0.399277
10.89 -0.399274
10.9 -0.399254
10.91 -0.399276
10.92 -0.399391
10.93 -0.399648
10.94 -0.400097
10.95 -0.400765
10.96 -0.401657
10.97 -0.402771
10.98 -0.404094
10.99 -0.405601
11 -0.40725
11.01 -0.408993
11.02 -0.410748
11.03 -0.412438
11.04 -0.41398
11.05 -0.415286
11.06 -0.416261
11.07 -0.416785
11.08 -0.416751
11.09 -0.416099
11.1 -0.414751
11.11 -0.412638
11.12 -0.409701
11.13 -0.405896
11.14 -0.401088
11.15 -0.395355
11.16 -0.388706
11.17 -0.381157
11.18 -0.372739
11.19 -0.363497
11.2 -0.353454
11.21 -0.342672
11.22 -0.331281
11.23 -0.319366
11.24 -0.307013
11.25 -0.294312
11.26 -0.28135
11.27 -0.268203
11.28 -0.254974
11.29 -0.241737
11.3 -0.228556
11.31 -0.215483
11.32 -0.202563
11.33 -0.189834
11.34 -0.177327
11.35 -0.165035
11.36 -0.152952
11.37 -0.141066
11.38 -0.129353
11.39 -0.117785
11.4 -0.106332
11.41 -0.0949404
11.42 -0.0835631
11.43 -0.0721544
11.44 -0.0606686
11.45 -0.0490613
11.46 -0.0372855
11.47 -0.0252844
11.48 -0.0130408
11.49 -0.000526986
11.5 0.0122798
11.51 0.0253967
11.52 0.0388355
11.53 0.052628
11.54 0.0667629
11.55 0.0812232
11.56 0.0960011
11.57 0.111086
11.58 0.126464
11.59 0.142123
11.6 0.158069
11.61 0.174254
11.62 0.190661
11.63 0.207271
11.64 0.224066
11.65 0.241025
11.66 0.25814
11.67 0.275384
11.68 0.29273
11.69 0.310154
11.7 0.327634
11.71 0.34514
11.72 0.362643
11.73 0.3801
11.74 0.397473
11.75 0.414716
11.76 0.43178
11.77 0.448609
11.78 0.465143
11.79 0.481292
11.8 0.496969
11.81 0.512119
11.82 0.526662
11.83 0.540512
11.84 0.553581
11.85 0.565782
11.86 0.57691
11.87 0.586964
11.88 0.595868
11.89 0.603538
11.9 0.609899
11.91 0.614879
11.92 0.618351
11.93 0.620208
11.94 0.620516
11.95 0.619243
11.96 0.616369
11.97 0.611885
11.98 0.605797
11.99 0.597969
12 0.588557
12.01 0.577636
12.02 0.565263
12.03 0.551503
12.04 0.536431
12.05 0.520095
12.06 0.502543
12.07 0.483977
12.08 0.464504
12.09 0.444233
12.1 0.423277
12.11 0.401748
12.12 0.379732
12.13 0.357381
12.14 0.334818
12.15 0.312152
12.16 0.289486
12.17 0.26692
12.18 0.244555
12.19 0.222513
12.2 0.200857
12.21 0.179667
12.22 0.159015
12.23 0.138969
12.24 0.119595
12.25 0.10101
12.26 0.0832539
12.27 0.0663456
