# xPDFsuite Configuration #
[PDF]
wavelength = 0.1
dataformat = QA
inputfile = BiMsol6_insitu_700 C-00480.xy
backgroundfile = Quartz2mm-dist500-00000.xy
mode = xray
bgscale = 0.0042
composition = Bi2Fe4O9
outputtype = gr
qmaxinst = 24.998449118
qmin = 0.1
qmax = 21.4986662415
rmax = 80.0
rmin = 0.0
rstep = 0.01
rpoly = 0.9

[Misc]
inputdir = C:/Data/Seafile/CPH/Beamtime/Desy Oct 20/In situ data/Processed/BiMsol6/PDF
savedir = C:/Data/Seafile/CPH/Beamtime/Desy Oct 20/In situ data/PDF/BiMsol6
backgroundfilefull = C:/Data/Seafile/CPH/Beamtime/Desy Oct 20/In situ data/Processed/Standard_Empty_Cap/Quartz2mm-dist500-00000.xy

#### start data
#S 1
#L r($\AA$)  G($\AA^{-2}$)
0 0
0.01 0.00674957
0.02 0.0131207
0.03 0.0187894
0.04 0.0234648
0.05 0.0269024
0.06 0.0289156
0.07 0.0292997
0.08 0.0279937
0.09 0.0251461
0.1 0.0208781
0.11 0.0153791
0.12 0.00889773
0.13 0.00173145
0.14 -0.0057868
0.15 -0.0132334
0.16 -0.0202514
0.17 -0.0265055
0.18 -0.0316943
0.19 -0.0355651
0.2 -0.0378576
0.21 -0.038392
0.22 -0.0372654
0.23 -0.0345422
0.24 -0.0303677
0.25 -0.0249639
0.26 -0.0186207
0.27 -0.0116659
0.28 -0.00458064
0.29 0.00220736
0.3 0.00828251
0.31 0.0132487
0.32 0.0167485
0.33 0.0184198
0.34 0.0179069
0.35 0.0152551
0.36 0.0104544
0.37 0.00360181
0.38 -0.00509723
0.39 -0.0153314
0.4 -0.0267422
0.41 -0.0386994
0.42 -0.0505837
0.43 -0.0617657
0.44 -0.0715938
0.45 -0.0794175
0.46 -0.0845495
0.47 -0.0861069
0.48 -0.0838891
0.49 -0.0775344
0.5 -0.0668057
0.51 -0.0516045
0.52 -0.0319819
0.53 -0.00786422
0.54 0.0201925
0.55 0.0514537
0.56 0.085237
0.57 0.120744
0.58 0.157081
0.59 0.193277
0.6 0.228093
0.61 0.260555
0.62 0.289688
0.63 0.31458
0.64 0.334408
0.65 0.348473
0.66 0.355799
0.67 0.355999
0.68 0.349257
0.69 0.335592
0.7 0.315208
0.71 0.288492
0.72 0.256001
0.73 0.217964
0.74 0.175898
0.75 0.130791
0.76 0.0836901
0.77 0.0356783
0.78 -0.0121558
0.79 -0.0586349
0.8 -0.102583
0.81 -0.143211
0.82 -0.179756
0.83 -0.211597
0.84 -0.238272
0.85 -0.259483
0.86 -0.274532
0.87 -0.284004
0.88 -0.288229
0.89 -0.287606
0.9 -0.282664
0.91 -0.274039
0.92 -0.262365
0.93 -0.248448
0.94 -0.233311
0.95 -0.217749
0.96 -0.202521
0.97 -0.188327
0.98 -0.175785
0.99 -0.165654
1 -0.158219
1.01 -0.153673
1.02 -0.152139
1.03 -0.153614
1.04 -0.15798
1.05 -0.165071
1.06 -0.174651
1.07 -0.186072
1.08 -0.198865
1.09 -0.21253
1.1 -0.226559
1.11 -0.240455
1.12 -0.253668
1.13 -0.265765
1.14 -0.276436
1.15 -0.285424
1.16 -0.292558
1.17 -0.297755
1.18 -0.300986
1.19 -0.302205
1.2 -0.301786
1.21 -0.299971
1.22 -0.29705
1.23 -0.293342
1.24 -0.289187
1.25 -0.284938
1.26 -0.280959
1.27 -0.277533
1.28 -0.274893
1.29 -0.273213
1.3 -0.272607
1.31 -0.273124
1.32 -0.274844
1.33 -0.277535
1.34 -0.281029
1.35 -0.285112
1.36 -0.289529
1.37 -0.293999
1.38 -0.298201
1.39 -0.301803
1.4 -0.304556
1.41 -0.306232
1.42 -0.306647
1.43 -0.305672
1.44 -0.303241
1.45 -0.299201
1.46 -0.293794
1.47 -0.287182
1.48 -0.279577
1.49 -0.271241
1.5 -0.262479
1.51 -0.253637
1.52 -0.245118
1.53 -0.237267
1.54 -0.230407
1.55 -0.224827
1.56 -0.220767
1.57 -0.21841
1.58 -0.218059
1.59 -0.219591
1.6 -0.222917
1.61 -0.227903
1.62 -0.234338
1.63 -0.241947
1.64 -0.250413
1.65 -0.259318
1.66 -0.268183
1.67 -0.276579
1.68 -0.284082
1.69 -0.290286
1.7 -0.294824
1.71 -0.297175
1.72 -0.297187
1.73 -0.294755
1.74 -0.289797
1.75 -0.282317
1.76 -0.272405
1.77 -0.260179
1.78 -0.245799
1.79 -0.229797
1.8 -0.212558
1.81 -0.194502
1.82 -0.176071
1.83 -0.157716
1.84 -0.139951
1.85 -0.123215
1.86 -0.107845
1.87 -0.0941418
1.88 -0.0823378
1.89 -0.0725905
1.9 -0.0650089
1.91 -0.0597652
1.92 -0.0565346
1.93 -0.055139
1.94 -0.0553364
1.95 -0.056831
1.96 -0.0592869
1.97 -0.0623561
1.98 -0.065601
1.99 -0.0686323
2 -0.0711127
2.01 -0.0727445
2.02 -0.0732818
2.03 -0.0725361
2.04 -0.070237
2.05 -0.0665175
2.06 -0.0614395
2.07 -0.0551404
2.08 -0.0478285
2.09 -0.039775
2.1 -0.0313026
2.11 -0.0228374
2.12 -0.0147972
2.13 -0.00758482
2.14 -0.0015943
2.15 0.00280438
2.16 0.00527951
2.17 0.00528535
2.18 0.00282183
2.19 -0.00221855
2.2 -0.00988085
2.21 -0.0201285
2.22 -0.032844
2.23 -0.0479224
2.24 -0.0650999
2.25 -0.0838719
2.26 -0.103845
2.27 -0.124594
2.28 -0.145669
2.29 -0.16662
2.3 -0.186905
2.31 -0.206114
2.32 -0.223891
2.33 -0.239924
2.34 -0.253965
2.35 -0.265834
2.36 -0.275348
2.37 -0.282375
2.38 -0.287173
2.39 -0.289881
2.4 -0.290701
2.41 -0.28989
2.42 -0.28775
2.43 -0.284557
2.44 -0.280767
2.45 -0.276765
2.46 -0.272898
2.47 -0.269487
2.48 -0.266822
2.49 -0.265175
2.5 -0.264842
2.51 -0.265847
2.52 -0.26825
2.53 -0.27205
2.54 -0.277189
2.55 -0.283554
2.56 -0.291049
2.57 -0.299401
2.58 -0.30833
2.59 -0.317576
2.6 -0.326873
2.61 -0.335958
2.62 -0.34457
2.63 -0.35239
2.64 -0.35928
2.65 -0.365085
2.66 -0.369694
2.67 -0.373036
2.68 -0.37509
2.69 -0.375797
2.7 -0.375249
2.71 -0.373621
2.72 -0.371049
2.73 -0.36769
2.74 -0.363718
2.75 -0.359313
2.76 -0.354647
2.77 -0.349932
2.78 -0.34532
2.79 -0.340939
2.8 -0.336893
2.81 -0.333253
2.82 -0.330087
2.83 -0.327407
2.84 -0.325155
2.85 -0.323278
2.86 -0.321698
2.87 -0.32032
2.88 -0.319035
2.89 -0.317713
2.9 -0.316225
2.91 -0.31446
2.92 -0.312317
2.93 -0.309708
2.94 -0.306561
2.95 -0.302799
2.96 -0.298371
2.97 -0.293316
2.98 -0.287647
2.99 -0.281393
3 -0.274598
3.01 -0.26731
3.02 -0.259548
3.03 -0.251403
3.04 -0.242931
3.05 -0.234164
3.06 -0.225124
3.07 -0.21581
3.08 -0.206193
3.09 -0.196207
3.1 -0.185811
3.11 -0.174919
3.12 -0.163427
3.13 -0.151221
3.14 -0.138178
3.15 -0.124079
3.16 -0.108838
3.17 -0.0923767
3.18 -0.0746025
3.19 -0.0554463
3.2 -0.0348666
3.21 -0.0128255
3.22 0.0107468
3.23 0.0356362
3.24 0.0617268
3.25 0.0888642
3.26 0.116858
3.27 0.145484
3.28 0.174499
3.29 0.203574
3.3 0.232402
3.31 0.260681
3.32 0.288113
3.33 0.314408
3.34 0.339274
3.35 0.36227
3.36 0.383341
3.37 0.40231
3.38 0.41904
3.39 0.433435
3.4 0.445446
3.41 0.454916
3.42 0.461912
3.43 0.466647
3.44 0.46924
3.45 0.469838
3.46 0.468611
3.47 0.465746
3.48 0.461298
3.49 0.455655
3.5 0.449016
3.51 0.441572
3.52 0.433498
3.53 0.424953
3.54 0.416064
3.55 0.406956
3.56 0.397736
3.57 0.388467
3.58 0.379191
3.59 0.369931
3.6 0.360695
3.61 0.351483
3.62 0.342281
3.63 0.333073
3.64 0.323851
3.65 0.31461
3.66 0.305356
3.67 0.296108
3.68 0.286907
3.69 0.277808
3.7 0.26888
3.71 0.260207
3.72 0.25189
3.73 0.244038
3.74 0.236836
3.75 0.230382
3.76 0.224786
3.77 0.220165
3.78 0.216631
3.79 0.214279
3.8 0.21323
3.81 0.213628
3.82 0.215393
3.83 0.218534
3.84 0.223037
3.85 0.228862
3.86 0.235945
3.87 0.24429
3.88 0.25372
3.89 0.264072
3.9 0.275211
3.91 0.286993
3.92 0.299272
3.93 0.311905
3.94 0.324748
3.95 0.337635
3.96 0.350444
3.97 0.363063
3.98 0.375396
3.99 0.387361
4 0.398854
4.01 0.409829
4.02 0.420268
4.03 0.430143
4.04 0.439437
4.05 0.448135
4.06 0.456224
4.07 0.463628
4.08 0.470403
4.09 0.47653
4.1 0.481986
4.11 0.48674
4.12 0.490754
4.13 0.493929
4.14 0.496204
4.15 0.497564
4.16 0.497941
4.17 0.497269
4.18 0.495481
4.19 0.492514
4.2 0.488167
4.21 0.482523
4.22 0.475555
4.23 0.467244
4.24 0.457588
4.25 0.4466
4.26 0.434249
4.27 0.42057
4.28 0.405718
4.29 0.389775
4.3 0.372837
4.31 0.355005
4.32 0.33639
4.33 0.317048
4.34 0.297161
4.35 0.276848
4.36 0.256209
4.37 0.235336
4.38 0.214308
4.39 0.193188
4.4 0.172033
4.41 0.150881
4.42 0.12975
4.43 0.108646
4.44 0.0875635
4.45 0.0664888
4.46 0.0453987
4.47 0.0242687
4.48 0.00307791
4.49 -0.0181902
4.5 -0.0395445
4.51 -0.0609832
4.52 -0.0824931
4.53 -0.104042
4.54 -0.125574
4.55 -0.147025
4.56 -0.168313
4.57 -0.189346
4.58 -0.210015
4.59 -0.230158
4.6 -0.249655
4.61 -0.2684
4.62 -0.286272
4.63 -0.303155
4.64 -0.318945
4.65 -0.333532
4.66 -0.346729
4.67 -0.358613
4.68 -0.36916
4.69 -0.378375
4.7 -0.386283
4.71 -0.392938
4.72 -0.398341
4.73 -0.40263
4.74 -0.405981
4.75 -0.408527
4.76 -0.410413
4.77 -0.411786
4.78 -0.412796
4.79 -0.413582
4.8 -0.414317
4.81 -0.415121
4.82 -0.416099
4.83 -0.417336
4.84 -0.418895
4.85 -0.420838
4.86 -0.423182
4.87 -0.425891
4.88 -0.42893
4.89 -0.432247
4.9 -0.43577
4.91 -0.439415
4.92 -0.44308
4.93 -0.446652
4.94 -0.450029
4.95 -0.453111
4.96 -0.455807
4.97 -0.458035
4.98 -0.459694
4.99 -0.46071
5 -0.461084
5.01 -0.460796
5.02 -0.459843
5.03 -0.458235
5.04 -0.455996
5.05 -0.453108
5.06 -0.449671
5.07 -0.445745
5.08 -0.441385
5.09 -0.436643
5.1 -0.431568
5.11 -0.426194
5.12 -0.420546
5.13 -0.414669
5.14 -0.408571
5.15 -0.40225
5.16 -0.395692
5.17 -0.38887
5.18 -0.381722
5.19 -0.374216
5.2 -0.366315
5.21 -0.357968
5.22 -0.34913
5.23 -0.339757
5.24 -0.3298
5.25 -0.319192
5.26 -0.307976
5.27 -0.296158
5.28 -0.283759
5.29 -0.270818
5.3 -0.257386
5.31 -0.243507
5.32 -0.229292
5.33 -0.214856
5.34 -0.200303
5.35 -0.185747
5.36 -0.1713
5.37 -0.157083
5.38 -0.143246
5.39 -0.129865
5.4 -0.117029
5.41 -0.104815
5.42 -0.0932822
5.43 -0.0824764
5.44 -0.0724753
5.45 -0.063276
5.46 -0.054829
5.47 -0.0471081
5.48 -0.0400734
5.49 -0.0336744
5.5 -0.0278527
5.51 -0.0225927
5.52 -0.0177616
5.53 -0.0132921
5.54 -0.0091206
5.55 -0.00518964
5.56 -0.00144973
5.57 0.00213228
5.58 0.00558734
5.59 0.00893909
5.6 0.0121911
5.61 0.0153368
5.62 0.0183605
5.63 0.0212394
5.64 0.0239233
5.65 0.0263952
5.66 0.0286258
5.67 0.030587
5.68 0.0322563
5.69 0.0336181
5.7 0.0346527
5.71 0.0353579
5.72 0.0357756
5.73 0.0359367
5.74 0.0358835
5.75 0.0356688
5.76 0.0353545
5.77 0.0350138
5.78 0.034732
5.79 0.0345858
5.8 0.0346502
5.81 0.0349962
5.82 0.0356878
5.83 0.0367946
5.84 0.0383864
5.85 0.0404546
5.86 0.0430101
5.87 0.0460482
5.88 0.0495489
5.89 0.0534772
5.9 0.0578119
5.91 0.0624624
5.92 0.0673451
5.93 0.0723818
5.94 0.0774914
5.95 0.0825928
5.96 0.0876044
5.97 0.0924348
5.98 0.0970338
5.99 0.101354
6 0.105361
6.01 0.109037
6.02 0.11238
6.03 0.115379
6.04 0.11808
6.05 0.120541
6.06 0.122819
6.07 0.12498
6.08 0.127093
6.09 0.129233
6.1 0.131491
6.11 0.133928
6.12 0.136603
6.13 0.13956
6.14 0.142832
6.15 0.146436
6.16 0.15039
6.17 0.154663
6.18 0.159194
6.19 0.163923
6.2 0.168772
6.21 0.173648
6.22 0.178448
6.23 0.183025
6.24 0.187271
6.25 0.191069
6.26 0.194304
6.27 0.196867
6.28 0.198661
6.29 0.199553
6.3 0.199456
6.31 0.198382
6.32 0.196307
6.33 0.193226
6.34 0.189158
6.35 0.184138
6.36 0.178136
6.37 0.171318
6.38 0.163785
6.39 0.155638
6.4 0.146982
6.41 0.13793
6.42 0.128587
6.43 0.11907
6.44 0.109501
6.45 0.0999728
6.46 0.0905643
6.47 0.0813435
6.48 0.0723634
6.49 0.063691
6.5 0.0553298
6.51 0.0472792
6.52 0.0395322
6.53 0.0320711
6.54 0.0248691
6.55 0.0178985
6.56 0.0111269
6.57 0.00449596
6.58 -0.00203186
6.59 -0.00849056
6.6 -0.0149084
6.61 -0.0213062
6.62 -0.0276959
6.63 -0.034079
6.64 -0.0404459
6.65 -0.046777
6.66 -0.0530435
6.67 -0.0592086
6.68 -0.0652248
6.69 -0.0710216
6.7 -0.0765611
6.71 -0.0817897
6.72 -0.0866549
6.73 -0.0911068
6.74 -0.0951001
6.75 -0.0985567
6.76 -0.101455
6.77 -0.103795
6.78 -0.105563
6.79 -0.106753
6.8 -0.107368
6.81 -0.107413
6.82 -0.106851
6.83 -0.105766
6.84 -0.104182
6.85 -0.102129
6.86 -0.0996311
6.87 -0.0967157
6.88 -0.0933823
6.89 -0.0896541
6.9 -0.0855654
6.91 -0.0811227
6.92 -0.0763262
6.93 -0.0711703
6.94 -0.0656435
6.95 -0.0596823
6.96 -0.0533065
6.97 -0.0464925
6.98 -0.0392145
6.99 -0.0314469
7 -0.0231657
7.01 -0.0143225
7.02 -0.00489068
7.03 0.00510209
7.04 0.0156566
7.05 0.0267654
7.06 0.0384125
7.07 0.0505728
7.08 0.0632574
7.09 0.0763748
7.1 0.0898657
7.11 0.103671
7.12 0.117724
7.13 0.131957
7.14 0.146296
7.15 0.160657
7.16 0.174957
7.17 0.18912
7.18 0.203073
7.19 0.216747
7.2 0.230074
7.21 0.242949
7.22 0.255335
7.23 0.26719
7.24 0.278465
7.25 0.289115
7.26 0.299101
7.27 0.308362
7.28 0.316814
7.29 0.324485
7.3 0.331342
7.31 0.337354
7.32 0.342487
7.33 0.346708
7.34 0.349907
7.35 0.352088
7.36 0.353253
7.37 0.353373
7.38 0.352417
7.39 0.350359
7.4 0.347156
7.41 0.342695
7.42 0.337077
7.43 0.330297
7.44 0.322361
7.45 0.313278
7.46 0.303071
7.47 0.291695
7.48 0.279222
7.49 0.265755
7.5 0.251354
7.51 0.236087
7.52 0.22003
7.53 0.203262
7.54 0.185816
7.55 0.167862
7.56 0.149495
7.57 0.130812
7.58 0.11191
7.59 0.0928861
7.6 0.0738375
7.61 0.0548701
7.62 0.0360715
7.63 0.0175251
7.64 -0.000690658
7.65 -0.0185013
7.66 -0.0358369
7.67 -0.0525646
7.68 -0.0686749
7.69 -0.084114
7.7 -0.0988283
7.71 -0.112767
7.72 -0.125884
7.73 -0.138089
7.74 -0.149316
7.75 -0.159588
7.76 -0.16887
7.77 -0.177133
7.78 -0.18435
7.79 -0.190501
7.8 -0.195465
7.81 -0.199325
7.82 -0.202105
7.83 -0.203819
7.84 -0.204489
7.85 -0.204149
7.86 -0.202813
7.87 -0.200505
7.88 -0.197371
7.89 -0.193492
7.9 -0.188954
7.91 -0.183854
7.92 -0.178293
7.93 -0.172357
7.94 -0.166188
7.95 -0.159903
7.96 -0.153608
7.97 -0.147403
7.98 -0.141379
7.99 -0.135627
8 -0.130249
8.01 -0.125274
8.02 -0.120742
8.03 -0.116677
8.04 -0.11309
8.05 -0.109976
8.06 -0.107347
8.07 -0.105148
8.08 -0.103313
8.09 -0.101788
8.1 -0.100509
8.11 -0.0994102
8.12 -0.0984239
8.13 -0.0974785
8.14 -0.0965015
8.15 -0.0954367
8.16 -0.0942365
8.17 -0.092863
8.18 -0.0912895
8.19 -0.0894864
8.2 -0.0874562
8.21 -0.0852219
8.22 -0.082806
8.23 -0.0802407
8.24 -0.0775656
8.25 -0.0748259
8.26 -0.0720742
8.27 -0.0693658
8.28 -0.0667473
8.29 -0.0642607
8.3 -0.0619406
8.31 -0.059813
8.32 -0.0579051
8.33 -0.0562202
8.34 -0.0547332
8.35 -0.0534195
8.36 -0.0522424
8.37 -0.0511543
8.38 -0.0500981
8.39 -0.0489982
8.4 -0.0477804
8.41 -0.0463726
8.42 -0.044703
8.43 -0.0427039
8.44 -0.040314
8.45 -0.0374589
8.46 -0.034081
8.47 -0.030189
8.48 -0.0257746
8.49 -0.0208454
8.5 -0.0154253
8.51 -0.00955403
8.52 -0.00325437
8.53 0.00336361
8.54 0.0102094
8.55 0.0171913
8.56 0.0242114
8.57 0.0311689
8.58 0.0379541
8.59 0.0444438
8.6 0.0505637
8.61 0.0562341
8.62 0.061387
8.63 0.065968
8.64 0.0699377
8.65 0.0732164
8.66 0.0758345
8.67 0.0778234
8.68 0.0792093
8.69 0.0800313
8.7 0.0803392
8.71 0.0801822
8.72 0.0796052
8.73 0.0787171
8.74 0.077584
8.75 0.0762687
8.76 0.0748277
8.77 0.0733093
8.78 0.0717507
8.79 0.0701813
8.8 0.0686125
8.81 0.0670419
8.82 0.0654538
8.83 0.0638213
8.84 0.0621048
8.85 0.0602392
8.86 0.0581793
8.87 0.0558666
8.88 0.0532419
8.89 0.0502474
8.9 0.0468293
8.91 0.0429069
8.92 0.0384435
8.93 0.0334386
8.94 0.0278788
8.95 0.0217633
8.96 0.0151042
8.97 0.00792613
8.98 0.000215772
8.99 -0.00791711
9 -0.0164138
9.01 -0.025209
9.02 -0.0342331
9.03 -0.0434148
9.04 -0.0526836
9.05 -0.0619618
9.06 -0.0711831
9.07 -0.0802934
9.08 -0.0892474
9.09 -0.0980099
9.1 -0.106556
9.11 -0.114846
9.12 -0.122901
9.13 -0.130732
9.14 -0.138353
9.15 -0.145788
9.16 -0.153062
9.17 -0.160201
9.18 -0.167234
9.19 -0.174195
9.2 -0.181103
9.21 -0.187971
9.22 -0.194804
9.23 -0.201595
9.24 -0.208321
9.25 -0.214951
9.26 -0.221446
9.27 -0.227754
9.28 -0.233816
9.29 -0.239563
9.3 -0.244908
9.31 -0.24974
9.32 -0.254019
9.33 -0.25767
9.34 -0.260627
9.35 -0.26283
9.36 -0.264229
9.37 -0.264712
9.38 -0.264297
9.39 -0.263003
9.4 -0.260839
9.41 -0.257825
9.42 -0.253995
9.43 -0.249383
9.44 -0.244001
9.45 -0.237988
9.46 -0.23142
9.47 -0.224371
9.48 -0.216918
9.49 -0.209134
9.5 -0.201071
9.51 -0.192805
9.52 -0.184395
9.53 -0.175875
9.54 -0.167268
9.55 -0.158584
9.56 -0.149817
9.57 -0.140936
9.58 -0.13192
9.59 -0.122726
9.6 -0.113306
9.61 -0.103604
9.62 -0.0935633
9.63 -0.0830998
9.64 -0.0721555
9.65 -0.0607066
9.66 -0.0487168
9.67 -0.0361608
9.68 -0.0230266
9.69 -0.00931643
9.7 0.00501283
9.71 0.0198583
9.72 0.0351669
9.73 0.0508721
9.74 0.0668951
9.75 0.0831465
9.76 0.0995297
9.77 0.115926
9.78 0.132221
9.79 0.148309
9.8 0.16409
9.81 0.179469
9.82 0.194359
9.83 0.208621
9.84 0.222241
9.85 0.235184
9.86 0.247419
9.87 0.258935
9.88 0.269733
9.89 0.279798
9.9 0.28914
9.91 0.297849
9.92 0.305972
9.93 0.313559
9.94 0.320661
9.95 0.327329
9.96 0.33358
9.97 0.339483
9.98 0.345079
9.99 0.350389
10 0.355421
10.01 0.360173
10.02 0.364619
10.03 0.36871
10.04 0.372431
10.05 0.375733
10.06 0.378561
10.07 0.380855
10.08 0.382552
10.09 0.383534
10.1 0.383769
10.11 0.383232
10.12 0.381886
10.13 0.379708
10.14 0.376687
10.15 0.372814
10.16 0.368053
10.17 0.362532
10.18 0.356315
10.19 0.34948
10.2 0.342122
10.21 0.334348
10.22 0.326266
10.23 0.318025
10.24 0.309771
10.25 0.301632
10.26 0.293737
10.27 0.286204
10.28 0.279147
10.29 0.272731
10.3 0.266974
10.31 0.261932
10.32 0.25764
10.33 0.254109
10.34 0.251328
10.35 0.249305
10.36 0.247971
10.37 0.247204
10.38 0.246905
10.39 0.246962
10.4 0.247247
10.41 0.247626
10.42 0.247934
10.43 0.248021
10.44 0.247745
10.45 0.246972
10.46 0.245575
10.47 0.243442
10.48 0.240428
10.49 0.236424
10.5 0.23143
10.51 0.225409
10.52 0.218343
10.53 0.210235
10.54 0.201109
10.55 0.19091
10.56 0.179792
10.57 0.167847
10.58 0.155163
10.59 0.141837
10.6 0.127975
10.61 0.113674
10.62 0.0990433
10.63 0.0842224
10.64 0.0693119
10.65 0.0544052
10.66 0.039586
10.67 0.0249271
10.68 0.0105136
10.69 -0.00361844
10.7 -0.0174449
10.71 -0.0309492
10.72 -0.0441277
10.73 -0.0569888
10.74 -0.0695448
10.75 -0.0818124
10.76 -0.0938563
10.77 -0.10572
10.78 -0.117452
10.79 -0.129099
10.8 -0.14071
10.81 -0.152335
10.82 -0.164018
10.83 -0.175794
10.84 -0.187689
10.85 -0.199721
10.86 -0.2119
10.87 -0.224226
10.88 -0.236701
10.89 -0.249288
10.9 -0.261957
10.91 -0.274671
10.92 -0.287384
10.93 -0.300046
10.94 -0.312591
10.95 -0.324955
10.96 -0.337085
10.97 -0.348921
10.98 -0.360407
10.99 -0.371488
11 -0.382112
11.01 -0.392176
11.02 -0.401694
11.03 -0.410637
11.04 -0.418981
11.05 -0.426709
11.06 -0.433812
11.07 -0.44025
11.08 -0.446026
11.09 -0.451185
11.1 -0.455742
11.11 -0.459711
11.12 -0.46311
11.13 -0.465958
11.14 -0.468215
11.15 -0.469956
11.16 -0.471195
11.17 -0.471945
11.18 -0.47221
11.19 -0.471994
11.2 -0.471269
11.21 -0.470014
11.22 -0.468252
11.23 -0.465963
11.24 -0.463127
11.25 -0.459721
11.26 -0.455718
11.27 -0.451029
11.28 -0.445676
11.29 -0.439644
11.3 -0.432914
11.31 -0.425467
11.32 -0.417289
11.33 -0.408349
11.34 -0.398611
11.35 -0.388142
11.36 -0.376958
11.37 -0.365079
11.38 -0.352536
11.39 -0.339362
11.4 -0.325552
11.41 -0.311194
11.42 -0.296357
11.43 -0.281096
11.44 -0.265469
11.45 -0.249534
11.46 -0.233345
11.47 -0.216953
11.48 -0.200434
11.49 -0.183839
11.5 -0.167213
11.51 -0.150598
11.52 -0.13403
11.53 -0.117548
11.54 -0.101177
11.55 -0.0849322
11.56 -0.0688287
11.57 -0.0528764
11.58 -0.037082
11.59 -0.0214523
11.6 -0.00600516
11.61 0.00927408
11.62 0.0243827
11.63 0.0393167
11.64 0.0540695
11.65 0.0686321
11.66 0.0829772
11.67 0.0970885
11.68 0.110955
11.69 0.124551
11.7 0.137849
11.71 0.150815
11.72 0.163415
11.73 0.175561
11.74 0.187259
11.75 0.198471
11.76 0.209161
11.77 0.219295
11.78 0.22884
11.79 0.237735
11.8 0.24595
11.81 0.253507
11.82 0.260395
11.83 0.266609
11.84 0.272153
11.85 0.277031
11.86 0.281187
11.87 0.284705
11.88 0.287612
11.89 0.289931
11.9 0.291687
11.91 0.292904
11.92 0.293585
11.93 0.293741
11.94 0.293426
11.95 0.292653
11.96 0.291431
11.97 0.289762
11.98 0.287641
11.99 0.285012
12 0.281889
12.01 0.278259
12.02 0.274089
12.03 0.269347
12.04 0.263993
12.05 0.257964
12.06 0.251176
12.07 0.243645
12.08 0.23533
12.09 0.226197
12.1 0.216216
12.11 0.205362
12.12 0.193544
12.13 0.180803
12.14 0.167174
12.15 0.152672
12.16 0.137326
