# xPDFsuite Configuration #
[PDF]
wavelength = 0.1
dataformat = QA
inputfile = BiMsol6_insitu_700 C-00342.xy
backgroundfile = Quartz2mm-dist500-00000.xy
mode = xray
bgscale = 0.0042
composition = Bi2Fe4O9
outputtype = gr
qmaxinst = 24.998449118
qmin = 0.1
qmax = 21.4986662415
rmax = 80.0
rmin = 0.0
rstep = 0.01
rpoly = 0.9

[Misc]
inputdir = C:/Data/Seafile/CPH/Beamtime/Desy Oct 20/In situ data/Processed/BiMsol6/PDF
savedir = C:/Data/Seafile/CPH/Beamtime/Desy Oct 20/In situ data/PDF/BiMsol6
backgroundfilefull = C:/Data/Seafile/CPH/Beamtime/Desy Oct 20/In situ data/Processed/Standard_Empty_Cap/Quartz2mm-dist500-00000.xy

#### start data
#S 1
#L r($\AA$)  G($\AA^{-2}$)
0 0
0.01 0.00636527
0.02 0.0123703
0.03 0.0177069
0.04 0.0220985
0.05 0.025313
0.06 0.0271738
0.07 0.0274879
0.08 0.0261993
0.09 0.0234513
0.1 0.0193619
0.11 0.0141138
0.12 0.00794639
0.13 0.00114507
0.14 -0.00596893
0.15 -0.0129928
0.16 -0.0195868
0.17 -0.025432
0.18 -0.0302433
0.19 -0.0337829
0.2 -0.0358067
0.21 -0.0361495
0.22 -0.0349113
0.23 -0.032161
0.24 -0.0280452
0.25 -0.022784
0.26 -0.0166624
0.27 -0.010006
0.28 -0.00327844
0.29 0.00310728
0.3 0.00875038
0.31 0.0132705
0.32 0.0163266
0.33 0.0175735
0.34 0.0166747
0.35 0.0136872
0.36 0.00861274
0.37 0.00155771
0.38 -0.00726537
0.39 -0.0175409
0.4 -0.0289018
0.41 -0.0407236
0.42 -0.0523941
0.43 -0.0632902
0.44 -0.0727682
0.45 -0.0801872
0.46 -0.0848696
0.47 -0.0859419
0.48 -0.0832183
0.49 -0.076347
0.5 -0.0650996
0.51 -0.0493855
0.52 -0.0292614
0.53 -0.00465935
0.54 0.0238629
0.55 0.0555714
0.56 0.0897855
0.57 0.12571
0.58 0.162455
0.59 0.199054
0.6 0.234273
0.61 0.267146
0.62 0.296701
0.63 0.322027
0.64 0.342307
0.65 0.356838
0.66 0.364647
0.67 0.365339
0.68 0.359093
0.69 0.34592
0.7 0.326015
0.71 0.299753
0.72 0.26768
0.73 0.230006
0.74 0.18824
0.75 0.143358
0.76 0.0963978
0.77 0.0484327
0.78 0.000545118
0.79 -0.0460975
0.8 -0.0903223
0.81 -0.131331
0.82 -0.168356
0.83 -0.200769
0.84 -0.228097
0.85 -0.25003
0.86 -0.26586
0.87 -0.276148
0.88 -0.281207
0.89 -0.281419
0.9 -0.277296
0.91 -0.269459
0.92 -0.258526
0.93 -0.245287
0.94 -0.23076
0.95 -0.215735
0.96 -0.200969
0.97 -0.187161
0.98 -0.174934
0.99 -0.165048
1 -0.157803
1.01 -0.153405
1.02 -0.151992
1.03 -0.153574
1.04 -0.158047
1.05 -0.165261
1.06 -0.174999
1.07 -0.186619
1.08 -0.199664
1.09 -0.213642
1.1 -0.228047
1.11 -0.242386
1.12 -0.256111
1.13 -0.268781
1.14 -0.280077
1.15 -0.289732
1.16 -0.297563
1.17 -0.303475
1.18 -0.307425
1.19 -0.309351
1.2 -0.309615
1.21 -0.308446
1.22 -0.306123
1.23 -0.302961
1.24 -0.29929
1.25 -0.295457
1.26 -0.291828
1.27 -0.288693
1.28 -0.286288
1.29 -0.284796
1.3 -0.28434
1.31 -0.284979
1.32 -0.286803
1.33 -0.289595
1.34 -0.293197
1.35 -0.297404
1.36 -0.30197
1.37 -0.30662
1.38 -0.311037
1.39 -0.31489
1.4 -0.317929
1.41 -0.319919
1.42 -0.32067
1.43 -0.320046
1.44 -0.317972
1.45 -0.314282
1.46 -0.309211
1.47 -0.302909
1.48 -0.295582
1.49 -0.287487
1.5 -0.278926
1.51 -0.270242
1.52 -0.261842
1.53 -0.254082
1.54 -0.247296
1.55 -0.241783
1.56 -0.237803
1.57 -0.235556
1.58 -0.23537
1.59 -0.237138
1.6 -0.240792
1.61 -0.246213
1.62 -0.253204
1.63 -0.261502
1.64 -0.270799
1.65 -0.280686
1.66 -0.290665
1.67 -0.300296
1.68 -0.309137
1.69 -0.316763
1.7 -0.322775
1.71 -0.326621
1.72 -0.328111
1.73 -0.327099
1.74 -0.323468
1.75 -0.317188
1.76 -0.308315
1.77 -0.296934
1.78 -0.283168
1.79 -0.267555
1.8 -0.250475
1.81 -0.232353
1.82 -0.213647
1.83 -0.194833
1.84 -0.176449
1.85 -0.158992
1.86 -0.142858
1.87 -0.128404
1.88 -0.115925
1.89 -0.105645
1.9 -0.0977392
1.91 -0.092472
1.92 -0.0895507
1.93 -0.0888435
1.94 -0.0901438
1.95 -0.0931794
1.96 -0.0976239
1.97 -0.103152
1.98 -0.109291
1.99 -0.115586
2 -0.121644
2.01 -0.127092
2.02 -0.1316
2.03 -0.134881
2.04 -0.136539
2.05 -0.136591
2.06 -0.134983
2.07 -0.131739
2.08 -0.126959
2.09 -0.120814
2.1 -0.113494
2.11 -0.10534
2.12 -0.0967624
2.13 -0.0881347
2.14 -0.079842
2.15 -0.0722681
2.16 -0.0657816
2.17 -0.0609108
2.18 -0.057827
2.19 -0.0567476
2.2 -0.0578376
2.21 -0.0611929
2.22 -0.0668376
2.23 -0.0748195
2.24 -0.0850471
2.25 -0.097159
2.26 -0.110897
2.27 -0.125957
2.28 -0.141997
2.29 -0.158652
2.3 -0.175533
2.31 -0.192207
2.32 -0.208315
2.33 -0.223533
2.34 -0.237575
2.35 -0.250203
2.36 -0.261175
2.37 -0.270272
2.38 -0.277584
2.39 -0.283125
2.4 -0.286966
2.41 -0.289234
2.42 -0.290102
2.43 -0.289698
2.44 -0.288367
2.45 -0.28641
2.46 -0.284099
2.47 -0.281704
2.48 -0.279483
2.49 -0.277687
2.5 -0.27659
2.51 -0.276312
2.52 -0.276974
2.53 -0.278653
2.54 -0.281386
2.55 -0.285163
2.56 -0.290003
2.57 -0.295768
2.58 -0.302292
2.59 -0.309423
2.6 -0.316995
2.61 -0.324829
2.62 -0.332742
2.63 -0.340524
2.64 -0.348004
2.65 -0.35503
2.66 -0.361472
2.67 -0.367219
2.68 -0.372187
2.69 -0.376257
2.7 -0.379403
2.71 -0.381661
2.72 -0.383039
2.73 -0.383564
2.74 -0.383273
2.75 -0.382209
2.76 -0.38034
2.77 -0.3778
2.78 -0.374626
2.79 -0.370849
2.8 -0.366487
2.81 -0.361545
2.82 -0.355983
2.83 -0.349772
2.84 -0.342915
2.85 -0.335369
2.86 -0.327086
2.87 -0.318017
2.88 -0.308113
2.89 -0.297233
2.9 -0.285429
2.91 -0.272691
2.92 -0.259021
2.93 -0.244437
2.94 -0.228979
2.95 -0.212676
2.96 -0.195603
2.97 -0.177925
2.98 -0.159768
2.99 -0.141268
3 -0.122574
3.01 -0.10384
3.02 -0.0852493
3.03 -0.066961
3.04 -0.0491135
3.05 -0.0318338
3.06 -0.0152308
3.07 0.000608199
3.08 0.0155925
3.09 0.0296383
3.1 0.0428151
3.11 0.055148
3.12 0.0666881
3.13 0.07751
3.14 0.087709
3.15 0.0973653
3.16 0.106648
3.17 0.115709
3.18 0.124683
3.19 0.133705
3.2 0.142899
3.21 0.152387
3.22 0.162306
3.23 0.172698
3.24 0.183613
3.25 0.195078
3.26 0.207096
3.27 0.219643
3.28 0.232707
3.29 0.246196
3.3 0.260002
3.31 0.274021
3.32 0.288142
3.33 0.302246
3.34 0.316209
3.35 0.329869
3.36 0.343131
3.37 0.355889
3.38 0.368049
3.39 0.379532
3.4 0.390271
3.41 0.400167
3.42 0.409191
3.43 0.417375
3.44 0.424721
3.45 0.431248
3.46 0.436983
3.47 0.441964
3.48 0.446165
3.49 0.449722
3.5 0.452696
3.51 0.455143
3.52 0.457123
3.53 0.458693
3.54 0.459891
3.55 0.460774
3.56 0.46141
3.57 0.461846
3.58 0.462122
3.59 0.462278
3.6 0.462352
3.61 0.462381
3.62 0.46241
3.63 0.462475
3.64 0.462614
3.65 0.462865
3.66 0.463267
3.67 0.463865
3.68 0.46471
3.69 0.465818
3.7 0.467218
3.71 0.468933
3.72 0.470975
3.73 0.473351
3.74 0.476083
3.75 0.479124
3.76 0.48243
3.77 0.485951
3.78 0.489621
3.79 0.49336
3.8 0.497071
3.81 0.500626
3.82 0.503909
3.83 0.506796
3.84 0.509158
3.85 0.510864
3.86 0.511787
3.87 0.511719
3.88 0.510579
3.89 0.508302
3.9 0.504806
3.91 0.500029
3.92 0.493929
3.93 0.486459
3.94 0.477515
3.95 0.467256
3.96 0.455731
3.97 0.443005
3.98 0.429159
3.99 0.414289
4 0.398442
4.01 0.381767
4.02 0.36442
4.03 0.346511
4.04 0.328147
4.05 0.309424
4.06 0.290427
4.07 0.271214
4.08 0.251869
4.09 0.23243
4.1 0.212921
4.11 0.193353
4.12 0.173724
4.13 0.154017
4.14 0.134212
4.15 0.114289
4.16 0.0942278
4.17 0.0740115
4.18 0.053631
4.19 0.033088
4.2 0.0123844
4.21 -0.00842631
4.22 -0.0292908
4.23 -0.0501384
4.24 -0.0708813
4.25 -0.0914154
4.26 -0.1116
4.27 -0.131276
4.28 -0.150328
4.29 -0.168616
4.3 -0.185998
4.31 -0.202343
4.32 -0.217529
4.33 -0.231309
4.34 -0.243702
4.35 -0.25467
4.36 -0.264183
4.37 -0.272239
4.38 -0.278863
4.39 -0.284064
4.4 -0.287889
4.41 -0.290561
4.42 -0.29222
4.43 -0.293021
4.44 -0.293134
4.45 -0.292735
4.46 -0.291992
4.47 -0.291121
4.48 -0.290296
4.49 -0.289666
4.5 -0.28936
4.51 -0.289484
4.52 -0.290134
4.53 -0.291398
4.54 -0.293242
4.55 -0.29565
4.56 -0.298577
4.57 -0.301952
4.58 -0.305683
4.59 -0.309669
4.6 -0.313757
4.61 -0.317802
4.62 -0.321668
4.63 -0.325224
4.64 -0.328346
4.65 -0.330913
4.66 -0.33277
4.67 -0.333912
4.68 -0.334298
4.69 -0.333917
4.7 -0.332782
4.71 -0.330935
4.72 -0.328401
4.73 -0.325299
4.74 -0.32177
4.75 -0.317941
4.76 -0.313947
4.77 -0.30993
4.78 -0.306032
4.79 -0.302432
4.8 -0.299239
4.81 -0.296562
4.82 -0.294494
4.83 -0.293107
4.84 -0.292452
4.85 -0.2926
4.86 -0.293552
4.87 -0.295238
4.88 -0.297613
4.89 -0.300613
4.9 -0.304157
4.91 -0.308154
4.92 -0.31253
4.93 -0.317133
4.94 -0.321853
4.95 -0.326588
4.96 -0.331239
4.97 -0.335719
4.98 -0.339936
4.99 -0.343808
5 -0.347307
5.01 -0.350396
5.02 -0.353054
5.03 -0.355267
5.04 -0.357034
5.05 -0.358317
5.06 -0.359163
5.07 -0.359592
5.08 -0.359616
5.09 -0.35924
5.1 -0.358469
5.11 -0.357279
5.12 -0.355636
5.13 -0.353543
5.14 -0.350964
5.15 -0.347853
5.16 -0.344152
5.17 -0.339801
5.18 -0.33466
5.19 -0.328692
5.2 -0.321846
5.21 -0.314055
5.22 -0.305253
5.23 -0.295386
5.24 -0.284379
5.25 -0.272119
5.26 -0.258693
5.27 -0.2441
5.28 -0.228354
5.29 -0.211484
5.3 -0.193533
5.31 -0.174484
5.32 -0.154456
5.33 -0.133569
5.34 -0.111914
5.35 -0.0895817
5.36 -0.0666698
5.37 -0.0432698
5.38 -0.0194545
5.39 0.00463598
5.4 0.0289138
5.41 0.053296
5.42 0.0777049
5.43 0.102068
5.44 0.126303
5.45 0.150339
5.46 0.174118
5.47 0.197575
5.48 0.220645
5.49 0.243257
5.5 0.265333
5.51 0.286711
5.52 0.307358
5.53 0.327171
5.54 0.346038
5.55 0.363837
5.56 0.38044
5.57 0.395631
5.58 0.40924
5.59 0.421212
5.6 0.431412
5.61 0.439714
5.62 0.446
5.63 0.45017
5.64 0.451893
5.65 0.451328
5.66 0.448463
5.67 0.443297
5.68 0.435859
5.69 0.426206
5.7 0.414337
5.71 0.400333
5.72 0.384498
5.73 0.367008
5.74 0.348055
5.75 0.32785
5.76 0.306614
5.77 0.284519
5.78 0.261879
5.79 0.23893
5.8 0.215884
5.81 0.192934
5.82 0.170256
5.83 0.148024
5.84 0.126409
5.85 0.105468
5.86 0.0852708
5.87 0.065861
5.88 0.0472584
5.89 0.0294613
5.9 0.0125141
5.91 -0.003667
5.92 -0.0191525
5.93 -0.033993
5.94 -0.0482383
5.95 -0.0619336
5.96 -0.0751041
5.97 -0.0877384
5.98 -0.0998878
5.99 -0.111537
6 -0.122653
6.01 -0.13318
6.02 -0.143049
6.03 -0.152108
6.04 -0.160264
6.05 -0.167435
6.06 -0.173504
6.07 -0.178353
6.08 -0.181869
6.09 -0.183933
6.1 -0.184305
6.11 -0.183075
6.12 -0.180206
6.13 -0.175688
6.14 -0.16954
6.15 -0.161811
6.16 -0.152494
6.17 -0.141736
6.18 -0.129761
6.19 -0.11674
6.2 -0.102862
6.21 -0.0883303
6.22 -0.0733603
6.23 -0.05817
6.24 -0.0430205
6.25 -0.0281178
6.26 -0.0136529
6.27 0.000203045
6.28 0.0133028
6.29 0.0254757
6.3 0.0366133
6.31 0.046725
6.32 0.0557959
6.33 0.0638426
6.34 0.070912
6.35 0.0770784
6.36 0.0823679
6.37 0.0869902
6.38 0.0910907
6.39 0.0948148
6.4 0.0983109
6.41 0.101726
6.42 0.105209
6.43 0.108913
6.44 0.112942
6.45 0.117389
6.46 0.122323
6.47 0.127798
6.48 0.133839
6.49 0.140508
6.5 0.147746
6.51 0.155504
6.52 0.163734
6.53 0.172376
6.54 0.181363
6.55 0.190629
6.56 0.200105
6.57 0.209703
6.58 0.219363
6.59 0.229035
6.6 0.238681
6.61 0.248274
6.62 0.257795
6.63 0.267248
6.64 0.276648
6.65 0.286016
6.66 0.295382
6.67 0.304776
6.68 0.314234
6.69 0.323797
6.7 0.333481
6.71 0.343297
6.72 0.353247
6.73 0.363316
6.74 0.373473
6.75 0.383668
6.76 0.393822
6.77 0.403845
6.78 0.413633
6.79 0.423067
6.8 0.432019
6.81 0.440342
6.82 0.447799
6.83 0.454316
6.84 0.45975
6.85 0.463968
6.86 0.466846
6.87 0.468273
6.88 0.468057
6.89 0.466124
6.9 0.462513
6.91 0.457197
6.92 0.450173
6.93 0.441457
6.94 0.431085
6.95 0.418938
6.96 0.405274
6.97 0.390185
6.98 0.373767
6.99 0.356123
7 0.337359
7.01 0.317535
7.02 0.296754
7.03 0.275181
7.04 0.252906
7.05 0.230011
7.06 0.206568
7.07 0.182642
7.08 0.15825
7.09 0.133483
7.1 0.108387
7.11 0.0830008
7.12 0.0573599
7.13 0.0315018
7.14 0.00546139
7.15 -0.0207135
7.16 -0.0469549
7.17 -0.0731992
7.18 -0.0993728
7.19 -0.125391
7.2 -0.151161
7.21 -0.176534
7.22 -0.201406
7.23 -0.225666
7.24 -0.24919
7.25 -0.27185
7.26 -0.293523
7.27 -0.314056
7.28 -0.33325
7.29 -0.351108
7.3 -0.367551
7.31 -0.382515
7.32 -0.395955
7.33 -0.40785
7.34 -0.418073
7.35 -0.426723
7.36 -0.433904
7.37 -0.439684
7.38 -0.444151
7.39 -0.447407
7.4 -0.449553
7.41 -0.450649
7.42 -0.450938
7.43 -0.450551
7.44 -0.449622
7.45 -0.448275
7.46 -0.446628
7.47 -0.444779
7.48 -0.44283
7.49 -0.440861
7.5 -0.43892
7.51 -0.437039
7.52 -0.435232
7.53 -0.433493
7.54 -0.431801
7.55 -0.430108
7.56 -0.42836
7.57 -0.426495
7.58 -0.424445
7.59 -0.422136
7.6 -0.419469
7.61 -0.416363
7.62 -0.41277
7.63 -0.408634
7.64 -0.403904
7.65 -0.398542
7.66 -0.392522
7.67 -0.385753
7.68 -0.378308
7.69 -0.370205
7.7 -0.361469
7.71 -0.352136
7.72 -0.34225
7.73 -0.331844
7.74 -0.320976
7.75 -0.309744
7.76 -0.298216
7.77 -0.286458
7.78 -0.274539
7.79 -0.262524
7.8 -0.250483
7.81 -0.238486
7.82 -0.226591
7.83 -0.214853
7.84 -0.203326
7.85 -0.192057
7.86 -0.181108
7.87 -0.170545
7.88 -0.160386
7.89 -0.150672
7.9 -0.141444
7.91 -0.132742
7.92 -0.124606
7.93 -0.117128
7.94 -0.110313
7.95 -0.104177
7.96 -0.0987483
7.97 -0.0940537
7.98 -0.0901137
7.99 -0.0869629
8 -0.0846609
8.01 -0.0831354
8.02 -0.0823765
8.03 -0.0823656
8.04 -0.0830753
8.05 -0.0844696
8.06 -0.08655
8.07 -0.0892308
8.08 -0.0924274
8.09 -0.0960743
8.1 -0.100103
8.11 -0.104441
8.12 -0.109022
8.13 -0.11378
8.14 -0.118628
8.15 -0.123503
8.16 -0.128352
8.17 -0.133127
8.18 -0.137788
8.19 -0.142291
8.2 -0.146613
8.21 -0.150749
8.22 -0.15469
8.23 -0.158434
8.24 -0.161982
8.25 -0.165338
8.26 -0.168484
8.27 -0.171443
8.28 -0.174212
8.29 -0.176781
8.3 -0.179132
8.31 -0.18124
8.32 -0.183049
8.33 -0.184504
8.34 -0.185561
8.35 -0.186152
8.36 -0.186199
8.37 -0.185617
8.38 -0.184318
8.39 -0.18211
8.4 -0.178974
8.41 -0.17483
8.42 -0.169595
8.43 -0.163198
8.44 -0.155577
8.45 -0.146628
8.46 -0.136285
8.47 -0.124632
8.48 -0.11168
8.49 -0.0974604
8.5 -0.0820225
8.51 -0.0654329
8.52 -0.0476795
8.53 -0.0289573
8.54 -0.0093973
8.55 0.0108819
8.56 0.0317572
8.57 0.0531045
8.58 0.0748097
8.59 0.0967526
8.6 0.118801
8.61 0.14086
8.62 0.16285
8.63 0.184705
8.64 0.206374
8.65 0.2278
8.66 0.248975
8.67 0.2699
8.68 0.290581
8.69 0.311031
8.7 0.331269
8.71 0.35131
8.72 0.371162
8.73 0.390852
8.74 0.41038
8.75 0.429736
8.76 0.448893
8.77 0.467806
8.78 0.486385
8.79 0.504545
8.8 0.522196
8.81 0.539217
8.82 0.55547
8.83 0.570809
8.84 0.585058
8.85 0.59792
8.86 0.609344
8.87 0.619168
8.88 0.627241
8.89 0.633421
8.9 0.637584
8.91 0.639481
8.92 0.639052
8.93 0.636358
8.94 0.631377
8.95 0.624117
8.96 0.614609
8.97 0.602912
8.98 0.588882
8.99 0.572883
9 0.555046
9.01 0.535515
9.02 0.514447
9.03 0.492003
9.04 0.468291
9.05 0.443487
9.06 0.417823
9.07 0.391442
9.08 0.36448
9.09 0.337056
9.1 0.309277
9.11 0.281213
9.12 0.252973
9.13 0.224619
9.14 0.1962
9.15 0.167759
9.16 0.139331
9.17 0.110954
9.18 0.082671
9.19 0.0545206
9.2 0.0265524
9.21 -0.00117281
9.22 -0.028581
9.23 -0.0555837
9.24 -0.0820169
9.25 -0.107783
9.26 -0.132756
9.27 -0.156786
9.28 -0.179713
9.29 -0.201372
9.3 -0.22154
9.31 -0.239941
9.32 -0.25654
9.33 -0.271186
9.34 -0.283744
9.35 -0.2941
9.36 -0.302162
9.37 -0.307659
9.38 -0.310678
9.39 -0.311298
9.4 -0.309549
9.41 -0.305494
9.42 -0.299224
9.43 -0.290818
9.44 -0.280289
9.45 -0.268006
9.46 -0.25415
9.47 -0.238913
9.48 -0.222493
9.49 -0.205086
9.5 -0.186843
9.51 -0.167995
9.52 -0.148741
9.53 -0.129233
9.54 -0.1096
9.55 -0.0899532
9.56 -0.0703807
9.57 -0.0509682
9.58 -0.0317463
9.59 -0.0127374
9.6 0.00605154
9.61 0.0246254
9.62 0.0429974
9.63 0.0611746
9.64 0.0791781
9.65 0.0970296
9.66 0.114732
9.67 0.132277
9.68 0.149641
9.69 0.166785
9.7 0.18361
9.71 0.200063
9.72 0.216046
9.73 0.231447
9.74 0.246142
9.75 0.259995
9.76 0.272807
9.77 0.284399
9.78 0.294698
9.79 0.303574
9.8 0.310911
9.81 0.31661
9.82 0.320594
9.83 0.32262
9.84 0.322829
9.85 0.321252
9.86 0.317928
9.87 0.312927
9.88 0.306345
9.89 0.298251
9.9 0.288765
9.91 0.278164
9.92 0.266628
9.93 0.254345
9.94 0.241508
9.95 0.228305
9.96 0.214917
9.97 0.201543
9.98 0.188338
9.99 0.175428
10 0.162918
10.01 0.150887
10.02 0.139404
10.03 0.128529
10.04 0.118208
10.05 0.108413
10.06 0.0990921
10.07 0.0901802
10.08 0.0815964
10.09 0.0732628
10.1 0.0650613
10.11 0.0568903
10.12 0.0486609
10.13 0.0402937
10.14 0.0317218
10.15 0.0228884
10.16 0.0137343
10.17 0.00427681
10.18 -0.00547341
10.19 -0.0154861
10.2 -0.0257127
10.21 -0.0360883
10.22 -0.046532
10.23 -0.0569379
10.24 -0.0672045
10.25 -0.0772301
10.26 -0.0869141
10.27 -0.0961611
10.28 -0.104879
10.29 -0.112924
10.3 -0.120299
10.31 -0.126963
10.32 -0.132897
10.33 -0.138098
10.34 -0.142585
10.35 -0.146355
10.36 -0.149475
10.37 -0.152057
10.38 -0.154183
10.39 -0.155949
10.4 -0.157453
10.41 -0.158797
10.42 -0.160085
10.43 -0.161428
10.44 -0.162912
10.45 -0.164613
10.46 -0.166591
10.47 -0.168896
10.48 -0.171576
10.49 -0.174653
10.5 -0.178098
10.51 -0.181891
10.52 -0.185996
10.53 -0.190369
10.54 -0.194953
10.55 -0.199692
10.56 -0.2045
10.57 -0.209302
10.58 -0.214032
10.59 -0.218625
10.6 -0.223024
10.61 -0.227167
10.62 -0.230998
10.63 -0.234512
10.64 -0.237693
10.65 -0.240538
10.66 -0.243055
10.67 -0.245261
10.68 -0.247161
10.69 -0.248812
10.7 -0.250264
10.71 -0.25156
10.72 -0.252747
10.73 -0.253869
10.74 -0.254972
10.75 -0.256099
10.76 -0.257283
10.77 -0.258552
10.78 -0.259924
10.79 -0.26141
10.8 -0.263015
10.81 -0.264744
10.82 -0.266581
10.83 -0.268508
10.84 -0.270504
10.85 -0.272549
10.86 -0.274619
10.87 -0.276691
10.88 -0.278738
10.89 -0.280744
10.9 -0.28269
10.91 -0.284567
10.92 -0.286364
10.93 -0.288078
10.94 -0.289701
10.95 -0.291237
10.96 -0.292694
10.97 -0.294077
10.98 -0.295388
10.99 -0.29663
11 -0.297801
11.01 -0.298885
11.02 -0.299879
11.03 -0.300764
11.04 -0.301514
11.05 -0.302098
11.06 -0.302477
11.07 -0.302589
11.08 -0.302376
11.09 -0.301799
11.1 -0.300801
11.11 -0.299325
11.12 -0.297317
11.13 -0.294726
11.14 -0.291432
11.15 -0.287462
11.16 -0.282793
11.17 -0.277411
11.18 -0.271315
11.19 -0.264517
11.2 -0.257012
11.21 -0.248832
11.22 -0.240079
11.23 -0.23082
11.24 -0.221132
11.25 -0.211102
11.26 -0.200819
11.27 -0.190373
11.28 -0.179883
11.29 -0.169444
11.3 -0.159143
11.31 -0.14906
11.32 -0.139262
11.33 -0.12982
11.34 -0.120799
11.35 -0.112191
11.36 -0.104002
11.37 -0.0962236
11.38 -0.0888285
11.39 -0.0817759
11.4 -0.0750304
11.41 -0.0684985
11.42 -0.0620938
11.43 -0.0557319
11.44 -0.0493248
11.45 -0.0427837
11.46 -0.0360144
11.47 -0.0289045
11.48 -0.0214039
11.49 -0.0134511
11.5 -0.00499622
11.51 0.00399706
11.52 0.0135508
11.53 0.0237158
11.54 0.0344599
11.55 0.0457357
11.56 0.0575054
11.57 0.0697203
11.58 0.0823222
11.59 0.0952491
11.6 0.108444
11.61 0.121803
11.62 0.135252
11.63 0.148721
11.64 0.162146
11.65 0.175467
11.66 0.188619
11.67 0.201558
11.68 0.214262
11.69 0.22671
11.7 0.238889
11.71 0.250797
11.72 0.262438
11.73 0.273792
11.74 0.284907
11.75 0.295798
11.76 0.30648
11.77 0.316969
11.78 0.327272
11.79 0.337382
11.8 0.347293
11.81 0.356998
11.82 0.366473
11.83 0.375681
11.84 0.384574
11.85 0.393098
11.86 0.40113
11.87 0.408632
11.88 0.415527
11.89 0.42173
11.9 0.427153
11.91 0.431711
11.92 0.435275
11.93 0.437726
11.94 0.439067
11.95 0.439238
11.96 0.438193
11.97 0.435897
11.98 0.432333
11.99 0.427372
12 0.421127
12.01 0.413654
12.02 0.404998
12.03 0.395216
12.04 0.384378
12.05 0.372538
12.06 0.359753
12.07 0.346203
12.08 0.331992
12.09 0.317225
12.1 0.302008
12.11 0.286448
12.12 0.270634
12.13 0.254689
12.14 0.23871
12.15 0.222782
12.16 0.206979
12.17 0.191372
12.18 0.176028
12.19 0.161029
12.2 0.146395
12.21 0.132165
12.22 0.118371
12.23 0.105042
12.24 0.0922051
