# xPDFsuite Configuration #
[PDF]
wavelength = 0.1
dataformat = QA
inputfile = BiMsol6_insitu_700 C-00596.xy
backgroundfile = Quartz2mm-dist500-00000.xy
mode = xray
bgscale = 0.0042
composition = Bi2Fe4O9
outputtype = gr
qmaxinst = 24.998449118
qmin = 0.1
qmax = 21.4986662415
rmax = 80.0
rmin = 0.0
rstep = 0.01
rpoly = 0.9

[Misc]
inputdir = C:/Data/Seafile/CPH/Beamtime/Desy Oct 20/In situ data/Processed/BiMsol6/PDF
savedir = C:/Data/Seafile/CPH/Beamtime/Desy Oct 20/In situ data/PDF/BiMsol6
backgroundfilefull = C:/Data/Seafile/CPH/Beamtime/Desy Oct 20/In situ data/Processed/Standard_Empty_Cap/Quartz2mm-dist500-00000.xy

#### start data
#S 1
#L r($\AA$)  G($\AA^{-2}$)
0 0
0.01 0.00590005
0.02 0.0114621
0.03 0.0163972
0.04 0.0204459
0.05 0.0233911
0.06 0.0250676
0.07 0.0252951
0.08 0.0240228
0.09 0.021386
0.1 0.0174969
0.11 0.0125284
0.12 0.00670642
0.13 0.000300049
0.14 -0.00638706
0.15 -0.0129774
0.16 -0.0191522
0.17 -0.024613
0.18 -0.0290931
0.19 -0.0323711
0.2 -0.0342204
0.21 -0.034489
0.22 -0.033275
0.23 -0.0306466
0.24 -0.0267456
0.25 -0.0217827
0.26 -0.016029
0.27 -0.00979583
0.28 -0.00351992
0.29 0.00240979
0.3 0.00761636
0.31 0.0117432
0.32 0.0144717
0.33 0.0154804
0.34 0.0144574
0.35 0.0114638
0.36 0.00650792
0.37 -0.000302676
0.38 -0.0087602
0.39 -0.0185598
0.4 -0.029345
0.41 -0.0405221
0.42 -0.05151
0.43 -0.0617177
0.44 -0.0705364
0.45 -0.0773616
0.46 -0.0815554
0.47 -0.0822952
0.48 -0.079417
0.49 -0.0725977
0.5 -0.0616323
0.51 -0.046447
0.52 -0.0271087
0.53 -0.00356992
0.54 0.023627
0.55 0.0537764
0.56 0.0862218
0.57 0.1202
0.58 0.15486
0.59 0.189279
0.6 0.222274
0.61 0.252941
0.62 0.280361
0.63 0.303678
0.64 0.322123
0.65 0.335043
0.66 0.341524
0.67 0.34121
0.68 0.334293
0.69 0.320798
0.7 0.300929
0.71 0.27506
0.72 0.243726
0.73 0.20715
0.74 0.166772
0.75 0.123531
0.76 0.0784172
0.77 0.0324579
0.78 -0.0133174
0.79 -0.0577946
0.8 -0.0998622
0.81 -0.138776
0.82 -0.173815
0.83 -0.204394
0.84 -0.230075
0.85 -0.250577
0.86 -0.265239
0.87 -0.274612
0.88 -0.279008
0.89 -0.278803
0.9 -0.274493
0.91 -0.266678
0.92 -0.255954
0.93 -0.243079
0.94 -0.229022
0.95 -0.214532
0.96 -0.200327
0.97 -0.18707
0.98 -0.175346
0.99 -0.165872
1 -0.158924
1.01 -0.154691
1.02 -0.153294
1.03 -0.154736
1.04 -0.158909
1.05 -0.165667
1.06 -0.174793
1.07 -0.185678
1.08 -0.197885
1.09 -0.210945
1.1 -0.224381
1.11 -0.237722
1.12 -0.250452
1.13 -0.262156
1.14 -0.272536
1.15 -0.281343
1.16 -0.288406
1.17 -0.293638
1.18 -0.297001
1.19 -0.298437
1.2 -0.298289
1.21 -0.296774
1.22 -0.294154
1.23 -0.290722
1.24 -0.286789
1.25 -0.282674
1.26 -0.278719
1.27 -0.275192
1.28 -0.272314
1.29 -0.270253
1.3 -0.26912
1.31 -0.268971
1.32 -0.269886
1.33 -0.271668
1.34 -0.274174
1.35 -0.277216
1.36 -0.280573
1.37 -0.283997
1.38 -0.287205
1.39 -0.289903
1.4 -0.29187
1.41 -0.292904
1.42 -0.292842
1.43 -0.291573
1.44 -0.289039
1.45 -0.28511
1.46 -0.280005
1.47 -0.273868
1.48 -0.266892
1.49 -0.259317
1.5 -0.251414
1.51 -0.243497
1.52 -0.235928
1.53 -0.229009
1.54 -0.223025
1.55 -0.218229
1.56 -0.214829
1.57 -0.212979
1.58 -0.212938
1.59 -0.214581
1.6 -0.217815
1.61 -0.222501
1.62 -0.228438
1.63 -0.235362
1.64 -0.24297
1.65 -0.250868
1.66 -0.25862
1.67 -0.265831
1.68 -0.272113
1.69 -0.277099
1.7 -0.280458
1.71 -0.281711
1.72 -0.28074
1.73 -0.277462
1.74 -0.271816
1.75 -0.263821
1.76 -0.253576
1.77 -0.241207
1.78 -0.226877
1.79 -0.211093
1.8 -0.194217
1.81 -0.17665
1.82 -0.158807
1.83 -0.141108
1.84 -0.124035
1.85 -0.107992
1.86 -0.0932817
1.87 -0.0801766
1.88 -0.068883
1.89 -0.0595364
1.9 -0.0522262
1.91 -0.0470991
1.92 -0.0438387
1.93 -0.0422676
1.94 -0.0421497
1.95 -0.0432009
1.96 -0.0451014
1.97 -0.0475195
1.98 -0.0500471
1.99 -0.0523262
2 -0.0540483
2.01 -0.0549446
2.02 -0.0547978
2.03 -0.053447
2.04 -0.0506613
2.05 -0.0465857
2.06 -0.0413
2.07 -0.0349561
2.08 -0.0277723
2.09 -0.020026
2.1 -0.0120516
2.11 -0.00427298
2.12 0.00290961
2.13 0.00910328
2.14 0.0139266
2.15 0.0170242
2.16 0.0180807
2.17 0.0165589
2.18 0.0124888
2.19 0.00578171
2.2 -0.0035896
2.21 -0.0155715
2.22 -0.0300302
2.23 -0.0468444
2.24 -0.0657342
2.25 -0.0861822
2.26 -0.107784
2.27 -0.130102
2.28 -0.152678
2.29 -0.175051
2.3 -0.196661
2.31 -0.217094
2.32 -0.235988
2.33 -0.253023
2.34 -0.26794
2.35 -0.280554
2.36 -0.290667
2.37 -0.298134
2.38 -0.303217
2.39 -0.306053
2.4 -0.30684
2.41 -0.305835
2.42 -0.30334
2.43 -0.299625
2.44 -0.295162
2.45 -0.290351
2.46 -0.285553
2.47 -0.281105
2.48 -0.277317
2.49 -0.274482
2.5 -0.272919
2.51 -0.272683
2.52 -0.27386
2.53 -0.276477
2.54 -0.2805
2.55 -0.28584
2.56 -0.292435
2.57 -0.300029
2.58 -0.308352
2.59 -0.317156
2.6 -0.326183
2.61 -0.335172
2.62 -0.343862
2.63 -0.351942
2.64 -0.359245
2.65 -0.365599
2.66 -0.370874
2.67 -0.37498
2.68 -0.377869
2.69 -0.37946
2.7 -0.379817
2.71 -0.379086
2.72 -0.377382
2.73 -0.374842
2.74 -0.371623
2.75 -0.367891
2.76 -0.363799
2.77 -0.359566
2.78 -0.355344
2.79 -0.351268
2.8 -0.347453
2.81 -0.343984
2.82 -0.340947
2.83 -0.338377
2.84 -0.336244
2.85 -0.33452
2.86 -0.333153
2.87 -0.332072
2.88 -0.331192
2.89 -0.330419
2.9 -0.329633
2.91 -0.328736
2.92 -0.327636
2.93 -0.326249
2.94 -0.324505
2.95 -0.32233
2.96 -0.319666
2.97 -0.316524
2.98 -0.312899
2.99 -0.308798
3 -0.304235
3.01 -0.299234
3.02 -0.293779
3.03 -0.287924
3.04 -0.28169
3.05 -0.275078
3.06 -0.268073
3.07 -0.260646
3.08 -0.252729
3.09 -0.244211
3.1 -0.235041
3.11 -0.225107
3.12 -0.214285
3.13 -0.202441
3.14 -0.189433
3.15 -0.175001
3.16 -0.159062
3.17 -0.141541
3.18 -0.12234
3.19 -0.101389
3.2 -0.0786452
3.21 -0.0540679
3.22 -0.0275686
3.23 0.000591965
3.24 0.0302825
3.25 0.0613296
3.26 0.0935192
3.27 0.1266
3.28 0.160311
3.29 0.194274
3.3 0.228131
3.31 0.261537
3.32 0.294145
3.33 0.325611
3.34 0.355592
3.35 0.383571
3.36 0.409444
3.37 0.432979
3.38 0.453983
3.39 0.472309
3.4 0.487857
3.41 0.500396
3.42 0.50995
3.43 0.516727
3.44 0.520819
3.45 0.522354
3.46 0.521494
3.47 0.518423
3.48 0.513139
3.49 0.506108
3.5 0.497554
3.51 0.487694
3.52 0.476739
3.53 0.464885
3.54 0.45228
3.55 0.439097
3.56 0.425509
3.57 0.411622
3.58 0.397519
3.59 0.383263
3.6 0.368897
3.61 0.35444
3.62 0.339917
3.63 0.325334
3.64 0.310698
3.65 0.296015
3.66 0.281298
3.67 0.266571
3.68 0.25188
3.69 0.237281
3.7 0.222846
3.71 0.208666
3.72 0.19485
3.73 0.181519
3.74 0.168885
3.75 0.157068
3.76 0.14621
3.77 0.136469
3.78 0.127999
3.79 0.120951
3.8 0.11551
3.81 0.111911
3.82 0.110114
3.83 0.110193
3.84 0.112197
3.85 0.116149
3.86 0.122044
3.87 0.129999
3.88 0.13985
3.89 0.151438
3.9 0.164646
3.91 0.179337
3.92 0.195357
3.93 0.212555
3.94 0.230809
3.95 0.249823
3.96 0.269412
3.97 0.289391
3.98 0.309581
3.99 0.329813
4 0.349905
4.01 0.369693
4.02 0.389051
4.03 0.407862
4.04 0.426021
4.05 0.443438
4.06 0.460026
4.07 0.475621
4.08 0.49026
4.09 0.503897
4.1 0.516492
4.11 0.528011
4.12 0.538423
4.13 0.547629
4.14 0.555603
4.15 0.562383
4.16 0.567944
4.17 0.572261
4.18 0.57531
4.19 0.577068
4.2 0.57736
4.21 0.576308
4.22 0.573903
4.23 0.570131
4.24 0.564985
4.25 0.558463
4.26 0.550501
4.27 0.541087
4.28 0.530332
4.29 0.518261
4.3 0.504905
4.31 0.490301
4.32 0.474492
4.33 0.45741
4.34 0.439215
4.35 0.419977
4.36 0.399754
4.37 0.378604
4.38 0.356586
4.39 0.333732
4.4 0.31008
4.41 0.285754
4.42 0.260816
4.43 0.235327
4.44 0.209351
4.45 0.182954
4.46 0.156178
4.47 0.129126
4.48 0.101884
4.49 0.0745316
4.5 0.0471546
4.51 0.0198427
4.52 -0.00730207
4.53 -0.034151
4.54 -0.0606167
4.55 -0.0865942
4.56 -0.111977
4.57 -0.13666
4.58 -0.160541
4.59 -0.183441
4.6 -0.205296
4.61 -0.226061
4.62 -0.245664
4.63 -0.26405
4.64 -0.281176
4.65 -0.296993
4.66 -0.311381
4.67 -0.324481
4.68 -0.33632
4.69 -0.34694
4.7 -0.3564
4.71 -0.36477
4.72 -0.372072
4.73 -0.378431
4.74 -0.383999
4.75 -0.388877
4.76 -0.393172
4.77 -0.396987
4.78 -0.40042
4.79 -0.40354
4.8 -0.406469
4.81 -0.409275
4.82 -0.412014
4.83 -0.414731
4.84 -0.417453
4.85 -0.4202
4.86 -0.422972
4.87 -0.425757
4.88 -0.428532
4.89 -0.431269
4.9 -0.43393
4.91 -0.436475
4.92 -0.438838
4.93 -0.440989
4.94 -0.442886
4.95 -0.444493
4.96 -0.445777
4.97 -0.44671
4.98 -0.447254
4.99 -0.447383
5 -0.447118
5.01 -0.446458
5.02 -0.445406
5.03 -0.44397
5.04 -0.442159
5.05 -0.439947
5.06 -0.437377
5.07 -0.434461
5.08 -0.431203
5.09 -0.427605
5.1 -0.423662
5.11 -0.419352
5.12 -0.414643
5.13 -0.409545
5.14 -0.404037
5.15 -0.398097
5.16 -0.391702
5.17 -0.384832
5.18 -0.377424
5.19 -0.369498
5.2 -0.361064
5.21 -0.352131
5.22 -0.342717
5.23 -0.332851
5.24 -0.322568
5.25 -0.311907
5.26 -0.300976
5.27 -0.289854
5.28 -0.278634
5.29 -0.267413
5.3 -0.256294
5.31 -0.245409
5.32 -0.23487
5.33 -0.224769
5.34 -0.215203
5.35 -0.206255
5.36 -0.198
5.37 -0.190507
5.38 -0.183895
5.39 -0.178105
5.4 -0.17314
5.41 -0.168984
5.42 -0.165605
5.43 -0.162952
5.44 -0.161003
5.45 -0.159657
5.46 -0.158795
5.47 -0.158323
5.48 -0.158147
5.49 -0.158172
5.5 -0.158308
5.51 -0.158465
5.52 -0.15856
5.53 -0.158533
5.54 -0.158336
5.55 -0.157938
5.56 -0.157317
5.57 -0.156457
5.58 -0.155365
5.59 -0.154076
5.6 -0.152617
5.61 -0.151022
5.62 -0.149325
5.63 -0.147562
5.64 -0.145761
5.65 -0.143951
5.66 -0.142144
5.67 -0.14034
5.68 -0.138523
5.69 -0.136666
5.7 -0.134716
5.71 -0.132602
5.72 -0.130255
5.73 -0.127588
5.74 -0.124506
5.75 -0.120911
5.76 -0.116701
5.77 -0.111698
5.78 -0.105855
5.79 -0.0991074
5.8 -0.0913916
5.81 -0.0826612
5.82 -0.0728913
5.83 -0.0620465
5.84 -0.0501048
5.85 -0.037209
5.86 -0.0234395
5.87 -0.00890022
5.88 0.00628341
5.89 0.0219675
5.9 0.0380075
5.91 0.0541925
5.92 0.0703361
5.93 0.0862622
5.94 0.1018
5.95 0.116788
5.96 0.131062
5.97 0.144421
5.98 0.156835
5.99 0.16823
6 0.178563
6.01 0.187814
6.02 0.195996
6.03 0.203073
6.04 0.209154
6.05 0.214371
6.06 0.218831
6.07 0.222652
6.08 0.225962
6.09 0.228887
6.1 0.231545
6.11 0.234091
6.12 0.23663
6.13 0.239246
6.14 0.242007
6.15 0.244953
6.16 0.248116
6.17 0.251478
6.18 0.254987
6.19 0.258577
6.2 0.262161
6.21 0.265632
6.22 0.268867
6.23 0.271675
6.24 0.273944
6.25 0.275534
6.26 0.276309
6.27 0.276142
6.28 0.274922
6.29 0.272488
6.3 0.268745
6.31 0.263726
6.32 0.257412
6.33 0.249813
6.34 0.240966
6.35 0.23093
6.36 0.219683
6.37 0.20745
6.38 0.194369
6.39 0.180577
6.4 0.16622
6.41 0.15145
6.42 0.13641
6.43 0.121259
6.44 0.106149
6.45 0.0911978
6.46 0.0765072
6.47 0.062161
6.48 0.0482229
6.49 0.0347803
6.5 0.0218215
6.51 0.00933278
6.52 -0.00270727
6.53 -0.014336
6.54 -0.0256041
6.55 -0.036565
6.56 -0.0472832
6.57 -0.0578544
6.58 -0.0683485
6.59 -0.0788306
6.6 -0.0893582
6.61 -0.0999787
6.62 -0.110739
6.63 -0.121655
6.64 -0.132721
6.65 -0.143922
6.66 -0.155229
6.67 -0.166594
6.68 -0.177956
6.69 -0.189227
6.7 -0.200324
6.71 -0.211155
6.72 -0.221623
6.73 -0.23163
6.74 -0.241079
6.75 -0.24982
6.76 -0.257769
6.77 -0.264875
6.78 -0.271067
6.79 -0.276283
6.8 -0.280471
6.81 -0.283582
6.82 -0.285472
6.83 -0.286243
6.84 -0.285887
6.85 -0.284404
6.86 -0.281802
6.87 -0.278094
6.88 -0.273231
6.89 -0.267241
6.9 -0.260205
6.91 -0.252144
6.92 -0.243077
6.93 -0.23302
6.94 -0.22199
6.95 -0.209889
6.96 -0.196835
6.97 -0.182838
6.98 -0.167906
6.99 -0.152044
7 -0.13526
7.01 -0.117517
7.02 -0.0988147
7.03 -0.0792314
7.04 -0.0587902
7.05 -0.0375205
7.06 -0.0154588
7.07 0.00735039
7.08 0.03092
7.09 0.055119
7.1 0.0798665
7.11 0.105084
7.12 0.130684
7.13 0.156576
7.14 0.182663
7.15 0.208832
7.16 0.234963
7.17 0.260948
7.18 0.286677
7.19 0.312041
7.2 0.336935
7.21 0.36119
7.22 0.384732
7.23 0.407481
7.24 0.429343
7.25 0.450234
7.26 0.47007
7.27 0.488743
7.28 0.506099
7.29 0.522175
7.3 0.536912
7.31 0.550254
7.32 0.562153
7.33 0.57256
7.34 0.581308
7.35 0.588423
7.36 0.593928
7.37 0.597793
7.38 0.599996
7.39 0.600515
7.4 0.599307
7.41 0.596221
7.42 0.591425
7.43 0.584923
7.44 0.576726
7.45 0.566853
7.46 0.555332
7.47 0.542087
7.48 0.527208
7.49 0.510825
7.5 0.493002
7.51 0.473815
7.52 0.453344
7.53 0.431676
7.54 0.408808
7.55 0.384981
7.56 0.360312
7.57 0.334925
7.58 0.308948
7.59 0.282515
7.6 0.255754
7.61 0.228826
7.62 0.201891
7.63 0.175089
7.64 0.148561
7.65 0.122442
7.66 0.0968675
7.67 0.0720539
7.68 0.0480623
7.69 0.025002
7.7 0.00297669
7.71 -0.0179193
7.72 -0.0376026
7.73 -0.0559367
7.74 -0.0728259
7.75 -0.0883166
7.76 -0.102379
7.77 -0.114996
7.78 -0.126166
7.79 -0.135898
7.8 -0.144078
7.81 -0.150868
7.82 -0.156342
7.83 -0.160563
7.84 -0.1636
7.85 -0.165535
7.86 -0.166418
7.87 -0.166314
7.88 -0.165397
7.89 -0.163762
7.9 -0.161503
7.91 -0.158712
7.92 -0.155475
7.93 -0.151847
7.94 -0.147932
7.95 -0.143802
7.96 -0.139511
7.97 -0.135102
7.98 -0.130608
7.99 -0.12605
8 -0.121442
8.01 -0.116791
8.02 -0.112092
8.03 -0.107337
8.04 -0.10251
8.05 -0.0975966
8.06 -0.0925686
8.07 -0.087413
8.08 -0.0821219
8.09 -0.0766886
8.1 -0.0711126
8.11 -0.0654009
8.12 -0.0595678
8.13 -0.0536331
8.14 -0.0476447
8.15 -0.0416466
8.16 -0.0356906
8.17 -0.0298349
8.18 -0.0241427
8.19 -0.0187007
8.2 -0.0135818
8.21 -0.00883987
8.22 -0.00453645
8.23 -0.000726833
8.24 0.00254208
8.25 0.00523165
8.26 0.00724965
8.27 0.00865512
8.28 0.00945514
8.29 0.00967149
8.3 0.00934044
8.31 0.00851208
8.32 0.007229
8.33 0.00557632
8.34 0.00366438
8.35 0.00158348
8.36 -0.000573218
8.37 -0.00271262
8.38 -0.00474468
8.39 -0.0065562
8.4 -0.00808632
8.41 -0.00927685
8.42 -0.0100825
8.43 -0.0104742
8.44 -0.0104402
8.45 -0.00996902
8.46 -0.00908089
8.47 -0.00785264
8.48 -0.00634716
8.49 -0.00464157
8.5 -0.00282493
8.51 -0.00099554
8.52 0.000722272
8.53 0.00221626
8.54 0.00338215
8.55 0.0041185
8.56 0.00433184
8.57 0.00393953
8.58 0.00284734
8.59 0.000961222
8.6 -0.00169334
8.61 -0.00512932
8.62 -0.00934107
8.63 -0.0143047
8.64 -0.0199789
8.65 -0.0263573
8.66 -0.0333206
8.67 -0.040765
8.68 -0.0485978
8.69 -0.0567222
8.7 -0.0650396
8.71 -0.073453
8.72 -0.0818592
8.73 -0.0901684
8.74 -0.0983086
8.75 -0.10622
8.76 -0.113856
8.77 -0.121185
8.78 -0.128164
8.79 -0.134804
8.8 -0.141132
8.81 -0.147172
8.82 -0.15296
8.83 -0.158537
8.84 -0.16395
8.85 -0.169243
8.86 -0.174482
8.87 -0.17971
8.88 -0.184968
8.89 -0.190286
8.9 -0.195685
8.91 -0.201182
8.92 -0.206773
8.93 -0.212436
8.94 -0.218143
8.95 -0.223857
8.96 -0.22953
8.97 -0.235105
8.98 -0.240498
8.99 -0.245655
9 -0.250511
9.01 -0.255005
9.02 -0.259078
9.03 -0.262678
9.04 -0.265734
9.05 -0.268203
9.06 -0.270101
9.07 -0.271423
9.08 -0.272174
9.09 -0.272375
9.1 -0.272055
9.11 -0.271209
9.12 -0.269939
9.13 -0.268308
9.14 -0.266377
9.15 -0.264212
9.16 -0.261876
9.17 -0.259428
9.18 -0.256932
9.19 -0.254444
9.2 -0.252006
9.21 -0.24965
9.22 -0.247398
9.23 -0.245264
9.24 -0.243261
9.25 -0.241372
9.26 -0.239578
9.27 -0.237856
9.28 -0.236179
9.29 -0.234515
9.3 -0.232831
9.31 -0.231086
9.32 -0.229255
9.33 -0.227312
9.34 -0.225238
9.35 -0.223018
9.36 -0.220647
9.37 -0.218113
9.38 -0.215434
9.39 -0.212631
9.4 -0.209725
9.41 -0.206742
9.42 -0.20371
9.43 -0.200659
9.44 -0.197622
9.45 -0.194624
9.46 -0.191687
9.47 -0.188823
9.48 -0.186038
9.49 -0.18333
9.5 -0.180689
9.51 -0.178084
9.52 -0.175479
9.53 -0.172828
9.54 -0.170078
9.55 -0.167167
9.56 -0.164028
9.57 -0.160551
9.58 -0.156691
9.59 -0.152376
9.6 -0.147538
9.61 -0.142113
9.62 -0.136047
9.63 -0.129246
9.64 -0.121675
9.65 -0.11335
9.66 -0.10426
9.67 -0.0944074
9.68 -0.0838068
9.69 -0.0724836
9.7 -0.0604004
9.71 -0.047687
9.72 -0.0343998
9.73 -0.0205996
9.74 -0.00635101
9.75 0.00827983
9.76 0.0232395
9.77 0.0384582
9.78 0.0538562
9.79 0.069379
9.8 0.0849782
9.81 0.100612
9.82 0.116244
9.83 0.131841
9.84 0.147383
9.85 0.162853
9.86 0.178239
9.87 0.193533
9.88 0.208726
9.89 0.223805
9.9 0.238754
9.91 0.253565
9.92 0.26822
9.93 0.282693
9.94 0.296952
9.95 0.310957
9.96 0.324631
9.97 0.337933
9.98 0.350812
9.99 0.363204
10 0.375041
10.01 0.386256
10.02 0.396758
10.03 0.40643
10.04 0.415276
10.05 0.423245
10.06 0.430293
10.07 0.436391
10.08 0.441519
10.09 0.445591
10.1 0.448666
10.11 0.450803
10.12 0.452042
10.13 0.452436
10.14 0.45205
10.15 0.450948
10.16 0.449177
10.17 0.446897
10.18 0.444205
10.19 0.441198
10.2 0.437973
10.21 0.434625
10.22 0.431244
10.23 0.427922
10.24 0.424728
10.25 0.42172
10.26 0.418942
10.27 0.416426
10.28 0.414194
10.29 0.412279
10.3 0.410642
10.31 0.409259
10.32 0.408098
10.33 0.40712
10.34 0.406275
10.35 0.405509
10.36 0.404754
10.37 0.403945
10.38 0.403017
10.39 0.40191
10.4 0.400564
10.41 0.398922
10.42 0.396885
10.43 0.39444
10.44 0.391545
10.45 0.388162
10.46 0.384259
10.47 0.379806
10.48 0.37475
10.49 0.369057
10.5 0.362749
10.51 0.355812
10.52 0.348235
10.53 0.340009
10.54 0.331126
10.55 0.321511
10.56 0.31122
10.57 0.300261
10.58 0.288636
10.59 0.27635
10.6 0.263412
10.61 0.249813
10.62 0.235547
10.63 0.220692
10.64 0.205278
10.65 0.189345
10.66 0.172937
10.67 0.156107
10.68 0.138884
10.69 0.121366
10.7 0.103632
10.71 0.0857551
10.72 0.0678132
10.73 0.0498836
10.74 0.0320481
10.75 0.0144021
10.76 -0.00299359
10.77 -0.0200748
10.78 -0.0367848
10.79 -0.0530756
10.8 -0.0689092
10.81 -0.0842186
10.82 -0.0990091
10.83 -0.113299
10.84 -0.127098
10.85 -0.140431
10.86 -0.153331
10.87 -0.165834
10.88 -0.177968
10.89 -0.18983
10.9 -0.20148
10.91 -0.212981
10.92 -0.224394
10.93 -0.235776
10.94 -0.247187
10.95 -0.258676
10.96 -0.270276
10.97 -0.28201
10.98 -0.29389
10.99 -0.305915
11 -0.318071
11.01 -0.330337
11.02 -0.342655
11.03 -0.35497
11.04 -0.367218
11.05 -0.379325
11.06 -0.391209
11.07 -0.402762
11.08 -0.413879
11.09 -0.424491
11.1 -0.43451
11.11 -0.44385
11.12 -0.452436
11.13 -0.460197
11.14 -0.466966
11.15 -0.472784
11.16 -0.477618
11.17 -0.481444
11.18 -0.484249
11.19 -0.48603
11.2 -0.486753
11.21 -0.486417
11.22 -0.485125
11.23 -0.482916
11.24 -0.479838
11.25 -0.475939
11.26 -0.471275
11.27 -0.465834
11.28 -0.459737
11.29 -0.45305
11.3 -0.445823
11.31 -0.438102
11.32 -0.42993
11.33 -0.421329
11.34 -0.412315
11.35 -0.402944
11.36 -0.393231
11.37 -0.383189
11.38 -0.372822
11.39 -0.362131
11.4 -0.351083
11.41 -0.339693
11.42 -0.32796
11.43 -0.315876
11.44 -0.303434
11.45 -0.290626
11.46 -0.27744
11.47 -0.263851
11.48 -0.249897
11.49 -0.23559
11.5 -0.220944
11.51 -0.205982
11.52 -0.190732
11.53 -0.175213
11.54 -0.15948
11.55 -0.143594
11.56 -0.127608
11.57 -0.111581
11.58 -0.0955773
11.59 -0.0796661
11.6 -0.0639407
11.61 -0.0484623
11.62 -0.0333029
11.63 -0.0185337
11.64 -0.00422399
11.65 0.00956008
11.66 0.0227139
11.67 0.0351827
11.68 0.0469487
11.69 0.0579714
11.7 0.0682189
11.71 0.0776681
11.72 0.086304
11.73 0.0940318
11.74 0.100954
11.75 0.107091
11.76 0.11247
11.77 0.117129
11.78 0.121115
11.79 0.124448
11.8 0.127195
11.81 0.129458
11.82 0.131304
11.83 0.132802
11.84 0.13402
11.85 0.135023
11.86 0.135862
11.87 0.136614
11.88 0.137326
11.89 0.138035
11.9 0.13877
11.91 0.139548
11.92 0.140375
11.93 0.141243
11.94 0.142128
11.95 0.142997
11.96 0.143804
11.97 0.144498
11.98 0.145014
11.99 0.145254
12 0.14515
12.01 0.14463
12.02 0.143613
12.03 0.142019
12.04 0.139771
12.05 0.136771
12.06 0.132906
12.07 0.128182
12.08 0.122555
12.09 0.115991
12.1 0.108469
12.11 0.0999776
12.12 0.0904402
12.13 0.0799293
12.14 0.0685065
12.15 0.0562149
12.16 0.0431081
12.17 0.0292493
12.18 0.0146973
