# xPDFsuite Configuration #
[PDF]
wavelength = 0.1
dataformat = QA
inputfile = BiMsol6_insitu_700 C-00503.xy
backgroundfile = Quartz2mm-dist500-00000.xy
mode = xray
bgscale = 0.0042
composition = Bi2Fe4O9
outputtype = gr
qmaxinst = 24.998449118
qmin = 0.1
qmax = 21.4986662415
rmax = 80.0
rmin = 0.0
rstep = 0.01
rpoly = 0.9

[Misc]
inputdir = C:/Data/Seafile/CPH/Beamtime/Desy Oct 20/In situ data/Processed/BiMsol6/PDF
savedir = C:/Data/Seafile/CPH/Beamtime/Desy Oct 20/In situ data/PDF/BiMsol6
backgroundfilefull = C:/Data/Seafile/CPH/Beamtime/Desy Oct 20/In situ data/Processed/Standard_Empty_Cap/Quartz2mm-dist500-00000.xy

#### start data
#S 1
#L r($\AA$)  G($\AA^{-2}$)
0 0
0.01 0.0060062
0.02 0.011671
0.03 0.0167022
0.04 0.0208376
0.05 0.0238574
0.06 0.0255937
0.07 0.0258635
0.08 0.0246135
0.09 0.0219793
0.1 0.0180723
0.11 0.0130655
0.12 0.00718559
0.13 0.000702935
0.14 -0.00607826
0.15 -0.0127759
0.16 -0.0190676
0.17 -0.0246509
0.18 -0.0292549
0.19 -0.0326535
0.2 -0.0346147
0.21 -0.0349808
0.22 -0.033846
0.23 -0.0312748
0.24 -0.0274056
0.25 -0.0224466
0.26 -0.0166677
0.27 -0.0103773
0.28 -0.00401569
0.29 0.00202478
0.3 0.00736311
0.31 0.0116374
0.32 0.0145228
0.33 0.0156902
0.34 0.0148184
0.35 0.0119602
0.36 0.00711569
0.37 0.000384796
0.38 -0.00803147
0.39 -0.0178337
0.4 -0.0286737
0.41 -0.0399567
0.42 -0.0510991
0.43 -0.0615065
0.44 -0.0705639
0.45 -0.0776583
0.46 -0.0821407
0.47 -0.0831738
0.48 -0.0805766
0.49 -0.0740092
0.5 -0.0632491
0.51 -0.0482053
0.52 -0.028928
0.53 -0.00534642
0.54 0.022009
0.55 0.0524376
0.56 0.0852888
0.57 0.119801
0.58 0.15512
0.59 0.190317
0.6 0.224206
0.61 0.255848
0.62 0.284305
0.63 0.30869
0.64 0.328208
0.65 0.34217
0.66 0.349624
0.67 0.350173
0.68 0.34398
0.69 0.331039
0.7 0.311527
0.71 0.285794
0.72 0.254357
0.73 0.217401
0.74 0.176389
0.75 0.132266
0.76 0.0860369
0.77 0.0387494
0.78 -0.00853868
0.79 -0.0546841
0.8 -0.0985296
0.81 -0.139275
0.82 -0.176151
0.83 -0.208521
0.84 -0.235897
0.85 -0.257951
0.86 -0.27395
0.87 -0.284422
0.88 -0.289647
0.89 -0.289978
0.9 -0.285898
0.91 -0.277998
0.92 -0.266868
0.93 -0.253271
0.94 -0.238225
0.95 -0.222514
0.96 -0.206897
0.97 -0.192082
0.98 -0.17871
0.99 -0.167553
1 -0.158952
1.01 -0.15315
1.02 -0.150322
1.03 -0.150516
1.04 -0.153665
1.05 -0.159662
1.06 -0.168333
1.07 -0.179057
1.08 -0.191397
1.09 -0.204874
1.1 -0.218991
1.11 -0.233252
1.12 -0.247116
1.13 -0.26011
1.14 -0.27188
1.15 -0.282125
1.16 -0.290625
1.17 -0.29724
1.18 -0.301882
1.19 -0.304435
1.2 -0.305217
1.21 -0.304419
1.22 -0.302286
1.23 -0.299103
1.24 -0.295182
1.25 -0.290839
1.26 -0.286447
1.27 -0.282315
1.28 -0.278698
1.29 -0.275807
1.3 -0.273799
1.31 -0.272775
1.32 -0.272871
1.33 -0.273929
1.34 -0.275845
1.35 -0.278462
1.36 -0.281579
1.37 -0.284965
1.38 -0.288352
1.39 -0.29144
1.4 -0.293979
1.41 -0.295741
1.42 -0.296531
1.43 -0.296198
1.44 -0.29464
1.45 -0.291675
1.46 -0.287469
1.47 -0.282121
1.48 -0.275783
1.49 -0.268656
1.5 -0.260984
1.51 -0.253049
1.52 -0.245196
1.53 -0.237749
1.54 -0.231006
1.55 -0.225245
1.56 -0.220708
1.57 -0.217595
1.58 -0.216213
1.59 -0.216507
1.6 -0.218444
1.61 -0.22195
1.62 -0.226879
1.63 -0.233024
1.64 -0.240141
1.65 -0.247894
1.66 -0.255849
1.67 -0.263626
1.68 -0.270839
1.69 -0.277106
1.7 -0.282069
1.71 -0.285235
1.72 -0.286406
1.73 -0.285429
1.74 -0.282173
1.75 -0.27658
1.76 -0.26867
1.77 -0.258485
1.78 -0.246088
1.79 -0.231931
1.8 -0.216321
1.81 -0.199608
1.82 -0.182173
1.83 -0.164415
1.84 -0.146778
1.85 -0.129698
1.86 -0.113528
1.87 -0.0985851
1.88 -0.0851362
1.89 -0.0733865
1.9 -0.0635041
1.91 -0.0557254
1.92 -0.0498395
1.93 -0.0457579
1.94 -0.0433302
1.95 -0.042351
1.96 -0.04257
1.97 -0.0437436
1.98 -0.0455037
1.99 -0.0474952
2 -0.0494162
2.01 -0.0509872
2.02 -0.0519638
2.03 -0.0521428
2.04 -0.051265
2.05 -0.049357
2.06 -0.0464157
2.07 -0.0425033
2.08 -0.0377452
2.09 -0.0323252
2.1 -0.0264716
2.11 -0.0205107
2.12 -0.0147828
2.13 -0.00962031
2.14 -0.00535856
2.15 -0.00232254
2.16 -0.000814031
2.17 -0.00132034
2.18 -0.00388951
2.19 -0.00865521
2.2 -0.0157003
2.21 -0.0250393
2.22 -0.0366163
2.23 -0.0503932
2.24 -0.0661914
2.25 -0.0835948
2.26 -0.102287
2.27 -0.121913
2.28 -0.142088
2.29 -0.162415
2.3 -0.182429
2.31 -0.20172
2.32 -0.219934
2.33 -0.236753
2.34 -0.251904
2.35 -0.26517
2.36 -0.276322
2.37 -0.285167
2.38 -0.29187
2.39 -0.296495
2.4 -0.299164
2.41 -0.300057
2.42 -0.299401
2.43 -0.297379
2.44 -0.2944
2.45 -0.290817
2.46 -0.286952
2.47 -0.283116
2.48 -0.279602
2.49 -0.276698
2.5 -0.274715
2.51 -0.273769
2.52 -0.273984
2.53 -0.275436
2.54 -0.278145
2.55 -0.282085
2.56 -0.287256
2.57 -0.293476
2.58 -0.300533
2.59 -0.308232
2.6 -0.316362
2.61 -0.324698
2.62 -0.333011
2.63 -0.341031
2.64 -0.348563
2.65 -0.355425
2.66 -0.361465
2.67 -0.366562
2.68 -0.370627
2.69 -0.373537
2.7 -0.375294
2.71 -0.375981
2.72 -0.375655
2.73 -0.374401
2.74 -0.372323
2.75 -0.369542
2.76 -0.366142
2.77 -0.362338
2.78 -0.358265
2.79 -0.354049
2.8 -0.349806
2.81 -0.345636
2.82 -0.341632
2.83 -0.337862
2.84 -0.33435
2.85 -0.331108
2.86 -0.32813
2.87 -0.325391
2.88 -0.322853
2.89 -0.320474
2.9 -0.31817
2.91 -0.315875
2.92 -0.313522
2.93 -0.311045
2.94 -0.308382
2.95 -0.305466
2.96 -0.302236
2.97 -0.298672
2.98 -0.294748
2.99 -0.29044
3 -0.285733
3.01 -0.280615
3.02 -0.275034
3.03 -0.269009
3.04 -0.262532
3.05 -0.255582
3.06 -0.248126
3.07 -0.240124
3.08 -0.231504
3.09 -0.222158
3.1 -0.212061
3.11 -0.201129
3.12 -0.18927
3.13 -0.176389
3.14 -0.162391
3.15 -0.147074
3.16 -0.130408
3.17 -0.112366
3.18 -0.0928967
3.19 -0.0719735
3.2 -0.0495935
3.21 -0.0257544
3.22 -0.000421268
3.23 0.0261707
3.24 0.0538906
3.25 0.0825762
3.26 0.112035
3.27 0.14205
3.28 0.17238
3.29 0.202718
3.3 0.232778
3.31 0.262277
3.32 0.290937
3.33 0.318486
3.34 0.344648
3.35 0.368999
3.36 0.391485
3.37 0.411928
3.38 0.430183
3.39 0.446142
3.4 0.459735
3.41 0.470777
3.42 0.4793
3.43 0.485481
3.44 0.489402
3.45 0.491169
3.46 0.490915
3.47 0.488788
3.48 0.484776
3.49 0.479264
3.5 0.47243
3.51 0.464449
3.52 0.455488
3.53 0.445706
3.54 0.43522
3.55 0.42417
3.56 0.41271
3.57 0.400934
3.58 0.388921
3.59 0.376736
3.6 0.364431
3.61 0.352044
3.62 0.339623
3.63 0.3272
3.64 0.314805
3.65 0.302473
3.66 0.290244
3.67 0.278172
3.68 0.26633
3.69 0.254774
3.7 0.243584
3.71 0.232846
3.72 0.222659
3.73 0.213127
3.74 0.20444
3.75 0.196669
3.76 0.189904
3.77 0.184251
3.78 0.179804
3.79 0.176649
3.8 0.174898
3.81 0.174693
3.82 0.175943
3.83 0.178659
3.84 0.182831
3.85 0.188425
3.86 0.195391
3.87 0.203757
3.88 0.213358
3.89 0.224041
3.9 0.235689
3.91 0.248173
3.92 0.26136
3.93 0.275121
3.94 0.28934
3.95 0.303831
3.96 0.31847
3.97 0.333142
3.98 0.347739
3.99 0.362166
4 0.376313
4.01 0.390107
4.02 0.403496
4.03 0.416431
4.04 0.428868
4.05 0.440767
4.06 0.452091
4.07 0.462742
4.08 0.472753
4.09 0.48209
4.1 0.490717
4.11 0.498594
4.12 0.505675
4.13 0.511858
4.14 0.517079
4.15 0.52133
4.16 0.524548
4.17 0.526668
4.18 0.527629
4.19 0.527371
4.2 0.525686
4.21 0.522663
4.22 0.518267
4.23 0.512471
4.24 0.505259
4.25 0.496627
4.26 0.486518
4.27 0.474937
4.28 0.462019
4.29 0.44782
4.3 0.432404
4.31 0.415846
4.32 0.398229
4.33 0.379552
4.34 0.360003
4.35 0.33969
4.36 0.318704
4.37 0.297135
4.38 0.275068
4.39 0.252568
4.4 0.229699
4.41 0.206555
4.42 0.18319
4.43 0.159648
4.44 0.13597
4.45 0.112188
4.46 0.0883302
4.47 0.0644311
4.48 0.0405204
4.49 0.016628
4.5 -0.00721273
4.51 -0.0309632
4.52 -0.0545731
4.53 -0.0779701
4.54 -0.101105
4.55 -0.123906
4.56 -0.146298
4.57 -0.168195
4.58 -0.189509
4.59 -0.210088
4.6 -0.229855
4.61 -0.248748
4.62 -0.266681
4.63 -0.283579
4.64 -0.299375
4.65 -0.313997
4.66 -0.327302
4.67 -0.339391
4.68 -0.350263
4.69 -0.359939
4.7 -0.368457
4.71 -0.375871
4.72 -0.382189
4.73 -0.387533
4.74 -0.392057
4.75 -0.395869
4.76 -0.399088
4.77 -0.401834
4.78 -0.404223
4.79 -0.406359
4.8 -0.408381
4.81 -0.410384
4.82 -0.412448
4.83 -0.414637
4.84 -0.416999
4.85 -0.419574
4.86 -0.422376
4.87 -0.425379
4.88 -0.428558
4.89 -0.431871
4.9 -0.435264
4.91 -0.438672
4.92 -0.442009
4.93 -0.445196
4.94 -0.448158
4.95 -0.450817
4.96 -0.453104
4.97 -0.454954
4.98 -0.456288
4.99 -0.457042
5 -0.457223
5.01 -0.456811
5.02 -0.455801
5.03 -0.454197
5.04 -0.452013
5.05 -0.44922
5.06 -0.445898
5.07 -0.442091
5.08 -0.437837
5.09 -0.433174
5.1 -0.428138
5.11 -0.422748
5.12 -0.417021
5.13 -0.411003
5.14 -0.404706
5.15 -0.398132
5.16 -0.391281
5.17 -0.384142
5.18 -0.376673
5.19 -0.368871
5.2 -0.360722
5.21 -0.352206
5.22 -0.343305
5.23 -0.334002
5.24 -0.324279
5.25 -0.314107
5.26 -0.303534
5.27 -0.292579
5.28 -0.281274
5.29 -0.26966
5.3 -0.257789
5.31 -0.245713
5.32 -0.23352
5.33 -0.221298
5.34 -0.209129
5.35 -0.197099
5.36 -0.185295
5.37 -0.173805
5.38 -0.162754
5.39 -0.152178
5.4 -0.14214
5.41 -0.13269
5.42 -0.12387
5.43 -0.115706
5.44 -0.108259
5.45 -0.101518
5.46 -0.0954364
5.47 -0.0899914
5.48 -0.0851501
5.49 -0.0808721
5.5 -0.0771122
5.51 -0.0738662
5.52 -0.0710234
5.53 -0.0685314
5.54 -0.06634
5.55 -0.0644021
5.56 -0.0626751
5.57 -0.0611295
5.58 -0.0597306
5.59 -0.0584435
5.6 -0.0572488
5.61 -0.0561319
5.62 -0.055081
5.63 -0.0540868
5.64 -0.0531448
5.65 -0.0522394
5.66 -0.0513578
5.67 -0.0504834
5.68 -0.0495948
5.69 -0.0486648
5.7 -0.0476548
5.71 -0.0465147
5.72 -0.045203
5.73 -0.0436672
5.74 -0.0418509
5.75 -0.0396955
5.76 -0.0371421
5.77 -0.034084
5.78 -0.0304983
5.79 -0.0263497
5.8 -0.0216028
5.81 -0.0162336
5.82 -0.0102311
5.83 -0.00357839
5.84 0.00373188
5.85 0.0116079
5.86 0.019995
5.87 0.0288238
5.88 0.0380116
5.89 0.0474643
5.9 0.0570832
5.91 0.0667358
5.92 0.0763051
5.93 0.0856803
5.94 0.0947553
5.95 0.103432
5.96 0.111612
5.97 0.119175
5.98 0.126117
5.99 0.132407
6 0.138033
6.01 0.143004
6.02 0.147348
6.03 0.151074
6.04 0.154279
6.05 0.157068
6.06 0.159535
6.07 0.161782
6.08 0.163913
6.09 0.166031
6.1 0.168255
6.11 0.170671
6.12 0.173351
6.13 0.176351
6.14 0.179709
6.15 0.183439
6.16 0.187556
6.17 0.192016
6.18 0.19674
6.19 0.201648
6.2 0.20664
6.21 0.211599
6.22 0.216399
6.23 0.220849
6.24 0.224829
6.25 0.228197
6.26 0.23082
6.27 0.23257
6.28 0.233339
6.29 0.23297
6.3 0.231371
6.31 0.228569
6.32 0.224548
6.33 0.219315
6.34 0.212904
6.35 0.205373
6.36 0.196703
6.37 0.187109
6.38 0.176721
6.39 0.165676
6.4 0.154113
6.41 0.142178
6.42 0.130014
6.43 0.117776
6.44 0.105607
6.45 0.0936225
6.46 0.0819215
6.47 0.0705844
6.48 0.0596719
6.49 0.0492696
6.5 0.0393615
6.51 0.0299306
6.52 0.020952
6.53 0.0123847
6.54 0.00417425
6.55 -0.00373786
6.56 -0.0114218
6.57 -0.0189779
6.58 -0.0264809
6.59 -0.0340014
6.6 -0.0416022
6.61 -0.0493357
6.62 -0.0572581
6.63 -0.0653862
6.64 -0.0737186
6.65 -0.0822432
6.66 -0.0909313
6.67 -0.0997388
6.68 -0.108607
6.69 -0.117452
6.7 -0.126185
6.71 -0.134715
6.72 -0.142946
6.73 -0.150779
6.74 -0.15812
6.75 -0.164825
6.76 -0.170816
6.77 -0.176043
6.78 -0.180444
6.79 -0.183966
6.8 -0.18657
6.81 -0.188223
6.82 -0.188816
6.83 -0.188456
6.84 -0.187156
6.85 -0.184941
6.86 -0.181842
6.87 -0.177897
6.88 -0.173102
6.89 -0.167511
6.9 -0.161215
6.91 -0.154253
6.92 -0.146666
6.93 -0.138485
6.94 -0.12974
6.95 -0.12039
6.96 -0.110513
6.97 -0.100115
6.98 -0.0891991
6.99 -0.077761
7 -0.0657937
7.01 -0.0532599
7.02 -0.0401387
7.03 -0.0264568
7.04 -0.0122076
7.05 0.0026114
7.06 0.017997
7.07 0.0339396
7.08 0.0504746
7.09 0.0675235
7.1 0.0850417
7.11 0.102983
7.12 0.121292
7.13 0.139906
7.14 0.158759
7.15 0.177768
7.16 0.196829
7.17 0.215855
7.18 0.234753
7.19 0.25343
7.2 0.271792
7.21 0.289701
7.22 0.307082
7.23 0.32386
7.24 0.339954
7.25 0.355284
7.26 0.36978
7.27 0.383347
7.28 0.395857
7.29 0.40734
7.3 0.417744
7.31 0.427027
7.32 0.435149
7.33 0.442076
7.34 0.447675
7.35 0.45197
7.36 0.454983
7.37 0.456694
7.38 0.457085
7.39 0.456143
7.4 0.453833
7.41 0.450035
7.42 0.444882
7.43 0.438376
7.44 0.430523
7.45 0.421337
7.46 0.410835
7.47 0.398956
7.48 0.385766
7.49 0.37137
7.5 0.355817
7.51 0.339165
7.52 0.321483
7.53 0.302841
7.54 0.28324
7.55 0.262878
7.56 0.241856
7.57 0.220279
7.58 0.198259
7.59 0.175912
7.6 0.153354
7.61 0.130723
7.62 0.108155
7.63 0.0857718
7.64 0.0636928
7.65 0.0420358
7.66 0.0209137
7.67 0.000517899
7.68 -0.0191103
7.69 -0.0378823
7.7 -0.0557146
7.71 -0.0725327
7.72 -0.0882721
7.73 -0.102822
7.74 -0.116109
7.75 -0.128182
7.76 -0.139023
7.77 -0.148624
7.78 -0.156989
7.79 -0.164132
7.8 -0.16996
7.81 -0.174615
7.82 -0.17816
7.83 -0.18065
7.84 -0.182145
7.85 -0.182713
7.86 -0.182398
7.87 -0.181252
7.88 -0.179424
7.89 -0.176993
7.9 -0.174042
7.91 -0.170648
7.92 -0.16689
7.93 -0.16282
7.94 -0.158534
7.95 -0.154099
7.96 -0.149572
7.97 -0.145
7.98 -0.140423
7.99 -0.135876
8 -0.131388
8.01 -0.126973
8.02 -0.12264
8.03 -0.11839
8.04 -0.114221
8.05 -0.110125
8.06 -0.106097
8.07 -0.102119
8.08 -0.0981765
8.09 -0.0942557
8.1 -0.0903463
8.11 -0.0864405
8.12 -0.0825339
8.13 -0.0786276
8.14 -0.0747283
8.15 -0.0708478
8.16 -0.0670033
8.17 -0.0632164
8.18 -0.0595134
8.19 -0.0559336
8.2 -0.0525119
8.21 -0.0492757
8.22 -0.0462578
8.23 -0.0434889
8.24 -0.0409967
8.25 -0.0388048
8.26 -0.0369661
8.27 -0.0354532
8.28 -0.0342652
8.29 -0.0333921
8.3 -0.0328147
8.31 -0.0325045
8.32 -0.0324346
8.33 -0.0325522
8.34 -0.0327892
8.35 -0.0330861
8.36 -0.0333793
8.37 -0.0336038
8.38 -0.0336943
8.39 -0.0335598
8.4 -0.0331572
8.41 -0.0324377
8.42 -0.0313599
8.43 -0.0298927
8.44 -0.0280166
8.45 -0.0257059
8.46 -0.022959
8.47 -0.0198291
8.48 -0.0163522
8.49 -0.0125767
8.5 -0.00856203
8.51 -0.00437675
8.52 -9.60905e-05
8.53 0.00418097
8.54 0.0083677
8.55 0.012379
8.56 0.0161325
8.57 0.0195505
8.58 0.0225462
8.59 0.0250286
8.6 0.0269849
8.61 0.0283802
8.62 0.0291928
8.63 0.0294145
8.64 0.0290505
8.65 0.0280722
8.66 0.0265479
8.67 0.0245378
8.68 0.0220935
8.69 0.0192728
8.7 0.0161377
8.71 0.0127478
8.72 0.00916118
8.73 0.00545964
8.74 0.00169725
8.75 -0.00207901
8.76 -0.00583069
8.77 -0.00952894
8.78 -0.0131491
8.79 -0.0166863
8.8 -0.0201489
8.81 -0.0235514
8.82 -0.026917
8.83 -0.030276
8.84 -0.0336649
8.85 -0.0371345
8.86 -0.040722
8.87 -0.0444673
8.88 -0.0484077
8.89 -0.0525755
8.9 -0.056997
8.91 -0.0617093
8.92 -0.066719
8.93 -0.0720103
8.94 -0.0775722
8.95 -0.0833848
8.96 -0.0894198
8.97 -0.0956415
8.98 -0.10202
8.99 -0.108486
9 -0.114991
9.01 -0.121485
9.02 -0.127919
9.03 -0.134249
9.04 -0.140423
9.05 -0.146402
9.06 -0.152171
9.07 -0.157713
9.08 -0.163021
9.09 -0.168096
9.1 -0.172946
9.11 -0.177567
9.12 -0.182005
9.13 -0.18629
9.14 -0.190452
9.15 -0.194522
9.16 -0.19853
9.17 -0.2025
9.18 -0.206456
9.19 -0.210413
9.2 -0.214375
9.21 -0.218336
9.22 -0.222283
9.23 -0.226191
9.24 -0.230014
9.25 -0.233709
9.26 -0.237224
9.27 -0.240503
9.28 -0.243483
9.29 -0.246102
9.3 -0.24828
9.31 -0.249925
9.32 -0.251021
9.33 -0.251524
9.34 -0.251399
9.35 -0.250622
9.36 -0.249183
9.37 -0.247029
9.38 -0.244216
9.39 -0.240797
9.4 -0.236818
9.41 -0.232334
9.42 -0.22741
9.43 -0.222111
9.44 -0.216502
9.45 -0.210695
9.46 -0.204764
9.47 -0.19878
9.48 -0.192808
9.49 -0.186899
9.5 -0.181106
9.51 -0.175454
9.52 -0.169946
9.53 -0.164574
9.54 -0.159314
9.55 -0.154125
9.56 -0.148953
9.57 -0.143717
9.58 -0.138334
9.59 -0.132717
9.6 -0.126774
9.61 -0.120409
9.62 -0.113532
9.63 -0.10601
9.64 -0.09776
9.65 -0.0887498
9.66 -0.0789287
9.67 -0.0682621
9.68 -0.0567329
9.69 -0.0443427
9.7 -0.0310196
9.71 -0.016906
9.72 -0.00206508
9.73 0.013425
9.74 0.0294721
9.75 0.0459726
9.76 0.0628249
9.77 0.0798948
9.78 0.0970399
9.79 0.11414
9.8 0.131078
9.81 0.147747
9.82 0.164045
9.83 0.179831
9.84 0.195067
9.85 0.209704
9.86 0.223701
9.87 0.237033
9.88 0.249691
9.89 0.261651
9.9 0.27291
9.91 0.283548
9.92 0.2936
9.93 0.303108
9.94 0.312115
9.95 0.320666
9.96 0.328768
9.97 0.336488
9.98 0.343867
9.99 0.350923
10 0.357669
10.01 0.364104
10.02 0.370211
10.03 0.375946
10.04 0.381308
10.05 0.38626
10.06 0.390757
10.07 0.394752
10.08 0.398198
10.09 0.400994
10.1 0.403117
10.11 0.404552
10.12 0.405268
10.13 0.405246
10.14 0.404477
10.15 0.402953
10.16 0.400636
10.17 0.397634
10.18 0.393996
10.19 0.389782
10.2 0.385066
10.21 0.379929
10.22 0.374444
10.23 0.368732
10.24 0.362905
10.25 0.357064
10.26 0.351306
10.27 0.345723
10.28 0.340402
10.29 0.335458
10.3 0.330921
10.31 0.326834
10.32 0.323226
10.33 0.320112
10.34 0.317486
10.35 0.315356
10.36 0.313676
10.37 0.312364
10.38 0.311352
10.39 0.310561
10.4 0.3099
10.41 0.309273
10.42 0.308558
10.43 0.307646
10.44 0.306434
10.45 0.304817
10.46 0.3027
10.47 0.299992
10.48 0.296572
10.49 0.292348
10.5 0.287309
10.51 0.281411
10.52 0.274623
10.53 0.266929
10.54 0.258326
10.55 0.248735
10.56 0.23826
10.57 0.226953
10.58 0.214862
10.59 0.202044
10.6 0.188564
10.61 0.174473
10.62 0.159839
10.63 0.144786
10.64 0.129395
10.65 0.113748
10.66 0.097924
10.67 0.0819988
10.68 0.0660489
10.69 0.0501505
10.7 0.0343636
10.71 0.0187409
10.72 0.00332765
10.73 -0.0118387
10.74 -0.0267207
10.75 -0.0412764
10.76 -0.0555201
10.77 -0.0694484
10.78 -0.083065
10.79 -0.0963807
10.8 -0.109412
10.81 -0.122163
10.82 -0.134674
10.83 -0.146987
10.84 -0.159135
10.85 -0.171152
10.86 -0.183074
10.87 -0.194932
10.88 -0.206761
10.89 -0.218594
10.9 -0.230454
10.91 -0.242359
10.92 -0.254323
10.93 -0.266351
10.94 -0.278446
10.95 -0.290596
10.96 -0.30278
10.97 -0.314973
10.98 -0.32714
10.99 -0.339244
11 -0.351236
11.01 -0.363041
11.02 -0.374615
11.03 -0.385897
11.04 -0.396823
11.05 -0.407331
11.06 -0.417355
11.07 -0.426799
11.08 -0.435594
11.09 -0.443717
11.1 -0.451119
11.11 -0.457759
11.12 -0.4636
11.13 -0.468614
11.14 -0.472685
11.15 -0.47589
11.16 -0.478234
11.17 -0.47972
11.18 -0.480364
11.19 -0.480184
11.2 -0.47917
11.21 -0.47734
11.22 -0.474784
11.23 -0.47154
11.24 -0.467644
11.25 -0.463135
11.26 -0.458051
11.27 -0.452373
11.28 -0.446181
11.29 -0.439511
11.3 -0.432383
11.31 -0.424814
11.32 -0.416815
11.33 -0.408378
11.34 -0.399484
11.35 -0.390164
11.36 -0.38041
11.37 -0.370213
11.38 -0.359561
11.39 -0.348441
11.4 -0.336799
11.41 -0.324652
11.42 -0.312007
11.43 -0.298861
11.44 -0.285216
11.45 -0.27108
11.46 -0.256456
11.47 -0.241336
11.48 -0.225793
11.49 -0.209864
11.5 -0.19359
11.51 -0.177022
11.52 -0.160213
11.53 -0.143215
11.54 -0.126107
11.55 -0.108963
11.56 -0.0918531
11.57 -0.0748467
11.58 -0.0580129
11.59 -0.0414233
11.6 -0.0251778
11.61 -0.00930964
11.62 0.00612654
11.63 0.0210819
11.64 0.0355141
11.65 0.0493873
11.66 0.0626326
11.67 0.0752356
11.68 0.0872142
11.69 0.0985633
11.7 0.109284
11.71 0.119384
11.72 0.128874
11.73 0.137709
11.74 0.14598
11.75 0.153713
11.76 0.160936
11.77 0.167678
11.78 0.173968
11.79 0.179815
11.8 0.185249
11.81 0.190321
11.82 0.195055
11.83 0.199473
11.84 0.203591
11.85 0.207425
11.86 0.210954
11.87 0.214212
11.88 0.217202
11.89 0.21992
11.9 0.222359
11.91 0.224507
11.92 0.226332
11.93 0.227804
11.94 0.228921
11.95 0.229655
11.96 0.229978
11.97 0.229858
11.98 0.22926
11.99 0.228097
12 0.226367
12.01 0.224043
12.02 0.22109
12.03 0.217471
12.04 0.213151
12.05 0.208074
12.06 0.202167
12.07 0.195465
12.08 0.187948
12.09 0.179598
12.1 0.170403
12.11 0.160358
12.12 0.149391
12.13 0.137558
12.14 0.124903
12.15 0.111448
12.16 0.0972279
