# xPDFsuite Configuration #
[PDF]
wavelength = 0.1
dataformat = QA
inputfile = BiMsol6_insitu_700 C-00682.xy
backgroundfile = Quartz2mm-dist500-00000.xy
mode = xray
bgscale = 0.0042
composition = Bi2Fe4O9
outputtype = gr
qmaxinst = 24.998449118
qmin = 0.1
qmax = 21.4986662415
rmax = 80.0
rmin = 0.0
rstep = 0.01
rpoly = 0.9

[Misc]
inputdir = C:/Data/Seafile/CPH/Beamtime/Desy Oct 20/In situ data/Processed/BiMsol6/PDF
savedir = C:/Data/Seafile/CPH/Beamtime/Desy Oct 20/In situ data/PDF/BiMsol6
backgroundfilefull = C:/Data/Seafile/CPH/Beamtime/Desy Oct 20/In situ data/Processed/Standard_Empty_Cap/Quartz2mm-dist500-00000.xy

#### start data
#S 1
#L r($\AA$)  G($\AA^{-2}$)
0 0
0.01 0.00581072
0.02 0.0112884
0.03 0.0161481
0.04 0.0201345
0.05 0.0230332
0.06 0.0246815
0.07 0.0249017
0.08 0.0236435
0.09 0.0210401
0.1 0.0172019
0.11 0.0122992
0.12 0.00655473
0.13 0.000233439
0.14 -0.00636543
0.15 -0.0128697
0.16 -0.018965
0.17 -0.0243569
0.18 -0.0287824
0.19 -0.032023
0.2 -0.033855
0.21 -0.0341283
0.22 -0.0329394
0.23 -0.0303554
0.24 -0.0265162
0.25 -0.0216295
0.26 -0.0159632
0.27 -0.00982463
0.28 -0.00364542
0.29 0.00219004
0.3 0.00730893
0.31 0.0113584
0.32 0.0140231
0.33 0.0149843
0.34 0.013933
0.35 0.0109292
0.36 0.00598066
0.37 -0.000806307
0.38 -0.00922608
0.39 -0.0189765
0.4 -0.029704
0.41 -0.040819
0.42 -0.0517438
0.43 -0.0618908
0.44 -0.0706533
0.45 -0.0774287
0.46 -0.0815799
0.47 -0.0822845
0.48 -0.0793763
0.49 -0.0725295
0.5 -0.0615354
0.51 -0.046316
0.52 -0.026933
0.53 -0.00333224
0.54 0.0239496
0.55 0.0542107
0.56 0.0867986
0.57 0.120953
0.58 0.155823
0.59 0.190488
0.6 0.223763
0.61 0.254735
0.62 0.282478
0.63 0.306125
0.64 0.324897
0.65 0.338126
0.66 0.344882
0.67 0.34479
0.68 0.338027
0.69 0.324605
0.7 0.304712
0.71 0.278711
0.72 0.247126
0.73 0.210159
0.74 0.169261
0.75 0.125373
0.76 0.0794926
0.77 0.0326565
0.78 -0.0140902
0.79 -0.0596171
0.8 -0.102786
0.81 -0.142822
0.82 -0.178974
0.83 -0.210625
0.84 -0.237307
0.85 -0.258708
0.86 -0.274119
0.87 -0.284076
0.88 -0.28887
0.89 -0.288857
0.9 -0.284524
0.91 -0.276464
0.92 -0.265264
0.93 -0.251683
0.94 -0.236723
0.95 -0.221154
0.96 -0.205722
0.97 -0.191121
0.98 -0.177975
0.99 -0.167041
1 -0.158642
1.01 -0.153011
1.02 -0.15031
1.03 -0.15058
1.04 -0.153748
1.05 -0.159703
1.06 -0.168268
1.07 -0.17883
1.08 -0.19096
1.09 -0.204188
1.1 -0.218027
1.11 -0.231994
1.12 -0.24556
1.13 -0.258268
1.14 -0.269776
1.15 -0.279796
1.16 -0.288116
1.17 -0.294603
1.18 -0.299175
1.19 -0.301722
1.2 -0.302555
1.21 -0.301859
1.22 -0.29987
1.23 -0.296863
1.24 -0.293137
1.25 -0.288992
1.26 -0.284781
1.27 -0.280797
1.28 -0.277281
1.29 -0.274428
1.3 -0.272383
1.31 -0.271236
1.32 -0.271105
1.33 -0.271842
1.34 -0.273342
1.35 -0.275456
1.36 -0.277994
1.37 -0.280738
1.38 -0.283435
1.39 -0.28581
1.4 -0.287641
1.41 -0.288722
1.42 -0.288884
1.43 -0.288001
1.44 -0.285994
1.45 -0.282715
1.46 -0.278337
1.47 -0.27297
1.48 -0.26677
1.49 -0.259941
1.5 -0.252722
1.51 -0.245388
1.52 -0.238269
1.53 -0.231654
1.54 -0.225814
1.55 -0.220995
1.56 -0.217404
1.57 -0.215202
1.58 -0.214651
1.59 -0.21566
1.6 -0.218164
1.61 -0.222057
1.62 -0.22717
1.63 -0.233274
1.64 -0.240104
1.65 -0.247306
1.66 -0.254471
1.67 -0.26123
1.68 -0.267215
1.69 -0.272071
1.7 -0.275474
1.71 -0.276961
1.72 -0.276392
1.73 -0.273663
1.74 -0.268691
1.75 -0.261467
1.76 -0.252057
1.77 -0.24055
1.78 -0.227069
1.79 -0.21208
1.8 -0.195911
1.81 -0.17893
1.82 -0.161524
1.83 -0.14409
1.84 -0.127082
1.85 -0.1109
1.86 -0.0958574
1.87 -0.0822346
1.88 -0.0702548
1.89 -0.0600767
1.9 -0.051818
1.91 -0.0456575
1.92 -0.0413287
1.93 -0.0386948
1.94 -0.0375606
1.95 -0.0376814
1.96 -0.0387741
1.97 -0.0405514
1.98 -0.0426321
1.99 -0.0446685
2 -0.046362
2.01 -0.047446
2.02 -0.0476973
2.03 -0.0469412
2.04 -0.0449405
2.05 -0.0417877
2.06 -0.0375267
2.07 -0.0322693
2.08 -0.0261911
2.09 -0.0195257
2.1 -0.0125584
2.11 -0.00566609
2.12 0.000781555
2.13 0.00642117
2.14 0.0108937
2.15 0.0138585
2.16 0.0150059
2.17 0.0138187
2.18 0.0102895
2.19 0.00430538
2.2 -0.00419134
2.21 -0.0151839
2.22 -0.0285805
2.23 -0.0443072
2.24 -0.0621392
2.25 -0.0816088
2.26 -0.102357
2.27 -0.123989
2.28 -0.146083
2.29 -0.168207
2.3 -0.189851
2.31 -0.210592
2.32 -0.230064
2.33 -0.247938
2.34 -0.263937
2.35 -0.277847
2.36 -0.289442
2.37 -0.298531
2.38 -0.305315
2.39 -0.309876
2.4 -0.31236
2.41 -0.312969
2.42 -0.311955
2.43 -0.309519
2.44 -0.306098
2.45 -0.302066
2.46 -0.297759
2.47 -0.293501
2.48 -0.289596
2.49 -0.286335
2.5 -0.284036
2.51 -0.282808
2.52 -0.282772
2.53 -0.283995
2.54 -0.286491
2.55 -0.29022
2.56 -0.295174
2.57 -0.301157
2.58 -0.307947
2.59 -0.315343
2.6 -0.323126
2.61 -0.331068
2.62 -0.338936
2.63 -0.346459
2.64 -0.353451
2.65 -0.359737
2.66 -0.365175
2.67 -0.369654
2.68 -0.3731
2.69 -0.375407
2.7 -0.376594
2.71 -0.37676
2.72 -0.375979
2.73 -0.374349
2.74 -0.371989
2.75 -0.369033
2.76 -0.365589
2.77 -0.361868
2.78 -0.35801
2.79 -0.354145
2.8 -0.350387
2.81 -0.346836
2.82 -0.343585
2.83 -0.340697
2.84 -0.338179
2.85 -0.336033
2.86 -0.334242
2.87 -0.332768
2.88 -0.331561
2.89 -0.330568
2.9 -0.32969
2.91 -0.328847
2.92 -0.327957
2.93 -0.326947
2.94 -0.325743
2.95 -0.324268
2.96 -0.32245
2.97 -0.320265
2.98 -0.317677
2.99 -0.314658
3 -0.311187
3.01 -0.307247
3.02 -0.302774
3.03 -0.297786
3.04 -0.292272
3.05 -0.286203
3.06 -0.279544
3.07 -0.272247
3.08 -0.264231
3.09 -0.255373
3.1 -0.245651
3.11 -0.234972
3.12 -0.223237
3.13 -0.210342
3.14 -0.196184
3.15 -0.180537
3.16 -0.163374
3.17 -0.144661
3.18 -0.124343
3.19 -0.102384
3.2 -0.0787774
3.21 -0.0535113
3.22 -0.0265322
3.23 0.00190712
3.24 0.0316756
3.25 0.0626085
3.26 0.0945097
3.27 0.127154
3.28 0.160305
3.29 0.193635
3.3 0.226835
3.31 0.259604
3.32 0.291642
3.33 0.322651
3.34 0.352329
3.35 0.38022
3.36 0.406229
3.37 0.430141
3.38 0.451774
3.39 0.470978
3.4 0.487642
3.41 0.501524
3.42 0.512608
3.43 0.521043
3.44 0.526872
3.45 0.530166
3.46 0.531024
3.47 0.529567
3.48 0.525703
3.49 0.519852
3.5 0.512184
3.51 0.502871
3.52 0.492085
3.53 0.479995
3.54 0.466715
3.55 0.452412
3.56 0.437302
3.57 0.421521
3.58 0.405193
3.59 0.388432
3.6 0.371345
3.61 0.354016
3.62 0.336568
3.63 0.31909
3.64 0.301668
3.65 0.284387
3.66 0.267333
3.67 0.250613
3.68 0.234347
3.69 0.218605
3.7 0.203488
3.71 0.189098
3.72 0.175539
3.73 0.162916
3.74 0.151439
3.75 0.141147
3.76 0.132107
3.77 0.124404
3.78 0.118114
3.79 0.1133
3.8 0.110057
3.81 0.108515
3.82 0.108556
3.83 0.110179
3.84 0.11337
3.85 0.118098
3.86 0.124319
3.87 0.132089
3.88 0.141261
3.89 0.151705
3.9 0.163337
3.91 0.176065
3.92 0.189796
3.93 0.204451
3.94 0.219988
3.95 0.236229
3.96 0.253085
3.97 0.270469
3.98 0.288301
3.99 0.306499
4 0.325002
4.01 0.343716
4.02 0.362551
4.03 0.381431
4.04 0.400275
4.05 0.418998
4.06 0.43751
4.07 0.45567
4.08 0.4734
4.09 0.490591
4.1 0.507125
4.11 0.52288
4.12 0.537731
4.13 0.551477
4.14 0.563974
4.15 0.575154
4.16 0.584896
4.17 0.593085
4.18 0.599618
4.19 0.604402
4.2 0.607149
4.21 0.607996
4.22 0.606916
4.23 0.603893
4.24 0.598933
4.25 0.592062
4.26 0.583236
4.27 0.572498
4.28 0.560058
4.29 0.546014
4.3 0.530477
4.31 0.513563
4.32 0.495394
4.33 0.475993
4.34 0.455592
4.35 0.434327
4.36 0.412307
4.37 0.389633
4.38 0.366395
4.39 0.342657
4.4 0.318476
4.41 0.293942
4.42 0.269096
4.43 0.243972
4.44 0.218595
4.45 0.192985
4.46 0.167144
4.47 0.141106
4.48 0.114899
4.49 0.0885509
4.5 0.0620974
4.51 0.0355838
4.52 0.00906812
4.53 -0.0173675
4.54 -0.0436415
4.55 -0.0696607
4.56 -0.0953223
4.57 -0.120516
4.58 -0.145126
4.59 -0.168966
4.6 -0.191935
4.61 -0.213943
4.62 -0.234885
4.63 -0.254666
4.64 -0.273204
4.65 -0.290411
4.66 -0.306121
4.67 -0.320447
4.68 -0.333389
4.69 -0.344967
4.7 -0.355224
4.71 -0.36422
4.72 -0.371962
4.73 -0.378585
4.74 -0.384254
4.75 -0.38909
4.76 -0.393215
4.77 -0.396755
4.78 -0.399831
4.79 -0.402537
4.8 -0.405026
4.81 -0.407393
4.82 -0.409716
4.83 -0.412058
4.84 -0.414465
4.85 -0.416973
4.86 -0.419595
4.87 -0.422316
4.88 -0.425116
4.89 -0.42796
4.9 -0.430807
4.91 -0.433605
4.92 -0.436284
4.93 -0.43879
4.94 -0.441071
4.95 -0.443075
4.96 -0.444754
4.97 -0.446071
4.98 -0.446973
4.99 -0.447426
5 -0.447445
5.01 -0.447026
5.02 -0.446171
5.03 -0.444889
5.04 -0.443191
5.05 -0.441053
5.06 -0.438526
5.07 -0.435631
5.08 -0.432377
5.09 -0.428772
5.1 -0.424816
5.11 -0.420493
5.12 -0.415775
5.13 -0.410672
5.14 -0.405165
5.15 -0.399229
5.16 -0.39284
5.17 -0.385972
5.18 -0.378561
5.19 -0.370617
5.2 -0.362151
5.21 -0.353164
5.22 -0.343674
5.23 -0.333709
5.24 -0.323304
5.25 -0.3125
5.26 -0.301413
5.27 -0.290131
5.28 -0.278757
5.29 -0.2674
5.3 -0.256179
5.31 -0.245246
5.32 -0.234729
5.33 -0.224737
5.34 -0.215381
5.35 -0.206761
5.36 -0.198964
5.37 -0.192072
5.38 -0.186224
5.39 -0.181351
5.4 -0.177453
5.41 -0.174509
5.42 -0.172478
5.43 -0.171295
5.44 -0.170924
5.45 -0.171238
5.46 -0.172088
5.47 -0.173353
5.48 -0.174908
5.49 -0.176629
5.5 -0.178396
5.51 -0.180078
5.52 -0.181572
5.53 -0.182797
5.54 -0.183686
5.55 -0.18419
5.56 -0.184278
5.57 -0.183916
5.58 -0.18311
5.59 -0.181911
5.6 -0.180357
5.61 -0.178493
5.62 -0.176373
5.63 -0.174051
5.64 -0.171568
5.65 -0.16899
5.66 -0.166354
5.67 -0.163682
5.68 -0.160982
5.69 -0.158244
5.7 -0.155436
5.71 -0.152501
5.72 -0.149378
5.73 -0.145987
5.74 -0.142233
5.75 -0.138016
5.76 -0.133227
5.77 -0.127684
5.78 -0.121323
5.79 -0.114067
5.8 -0.105835
5.81 -0.0965686
5.82 -0.086227
5.83 -0.0747598
5.84 -0.0621288
5.85 -0.0484725
5.86 -0.033865
5.87 -0.0184071
5.88 -0.00222434
5.89 0.0145364
5.9 0.0317298
5.91 0.0491308
5.92 0.0665389
5.93 0.0837643
5.94 0.100622
5.95 0.116934
5.96 0.132521
5.97 0.147163
5.98 0.160818
5.99 0.173401
6 0.184857
6.01 0.195162
6.02 0.204321
6.03 0.212292
6.04 0.219186
6.05 0.225142
6.06 0.230273
6.07 0.234703
6.08 0.238568
6.09 0.242001
6.1 0.245127
6.11 0.248112
6.12 0.251067
6.13 0.254082
6.14 0.257226
6.15 0.260541
6.16 0.264056
6.17 0.267747
6.18 0.271558
6.19 0.275412
6.2 0.279212
6.21 0.28284
6.22 0.286161
6.23 0.288958
6.24 0.291118
6.25 0.292491
6.26 0.292931
6.27 0.292306
6.28 0.290498
6.29 0.287342
6.3 0.282743
6.31 0.276748
6.32 0.26935
6.33 0.26057
6.34 0.25046
6.35 0.239098
6.36 0.226478
6.37 0.21285
6.38 0.198374
6.39 0.183209
6.4 0.167518
6.41 0.15147
6.42 0.135227
6.43 0.118967
6.44 0.102843
6.45 0.0869765
6.46 0.0714732
6.47 0.0564147
6.48 0.0418596
6.49 0.0278954
6.5 0.0144918
6.51 0.00162081
6.52 -0.0107532
6.53 -0.0226822
6.54 -0.0342317
6.55 -0.0454701
6.56 -0.056477
6.57 -0.0673603
6.58 -0.0781991
6.59 -0.089066
6.6 -0.100024
6.61 -0.111122
6.62 -0.122413
6.63 -0.133906
6.64 -0.145592
6.65 -0.157449
6.66 -0.169442
6.67 -0.181516
6.68 -0.193603
6.69 -0.205609
6.7 -0.217441
6.71 -0.229005
6.72 -0.240198
6.73 -0.250921
6.74 -0.261074
6.75 -0.270507
6.76 -0.279138
6.77 -0.286917
6.78 -0.293775
6.79 -0.29965
6.8 -0.30449
6.81 -0.308246
6.82 -0.310769
6.83 -0.312157
6.84 -0.312392
6.85 -0.311465
6.86 -0.309369
6.87 -0.306102
6.88 -0.301589
6.89 -0.295838
6.9 -0.288912
6.91 -0.28081
6.92 -0.27153
6.93 -0.26107
6.94 -0.249427
6.95 -0.236464
6.96 -0.222314
6.97 -0.206983
6.98 -0.190481
6.99 -0.172821
7 -0.154024
7.01 -0.134067
7.02 -0.112977
7.03 -0.0908769
7.04 -0.0678286
7.05 -0.0439018
7.06 -0.0191765
7.07 0.00625884
7.08 0.0323606
7.09 0.0589592
7.1 0.0859379
7.11 0.113186
7.12 0.140591
7.13 0.168043
7.14 0.195427
7.15 0.22262
7.16 0.249532
7.17 0.276074
7.18 0.302165
7.19 0.327733
7.2 0.352712
7.21 0.376981
7.22 0.400528
7.23 0.423323
7.24 0.445327
7.25 0.466501
7.26 0.486806
7.27 0.506176
7.28 0.524502
7.29 0.541817
7.3 0.558066
7.31 0.573187
7.32 0.587108
7.33 0.599754
7.34 0.610925
7.35 0.620578
7.36 0.628671
7.37 0.635108
7.38 0.639794
7.39 0.642638
7.4 0.64352
7.41 0.642192
7.42 0.638787
7.43 0.633261
7.44 0.625587
7.45 0.615759
7.46 0.603792
7.47 0.589581
7.48 0.573249
7.49 0.554984
7.5 0.534899
7.51 0.513129
7.52 0.489824
7.53 0.465149
7.54 0.439182
7.55 0.412268
7.56 0.384605
7.57 0.356398
7.58 0.327846
7.59 0.299147
7.6 0.270501
7.61 0.242113
7.62 0.214139
7.63 0.186722
7.64 0.159991
7.65 0.134055
7.66 0.109006
7.67 0.0850332
7.68 0.062094
7.69 0.0402218
7.7 0.0194418
7.71 -0.000232055
7.72 -0.0187951
7.73 -0.0361971
7.74 -0.0524235
7.75 -0.0675616
7.76 -0.0816232
7.77 -0.094619
7.78 -0.106558
7.79 -0.117448
7.8 -0.127187
7.81 -0.135865
7.82 -0.143499
7.83 -0.150085
7.84 -0.155624
7.85 -0.160114
7.86 -0.16352
7.87 -0.165806
7.88 -0.167069
7.89 -0.167332
7.9 -0.166624
7.91 -0.164984
7.92 -0.162462
7.93 -0.159045
7.94 -0.154862
7.95 -0.150013
7.96 -0.144579
7.97 -0.138651
7.98 -0.132319
7.99 -0.125673
8 -0.118803
8.01 -0.111825
8.02 -0.104824
8.03 -0.097875
8.04 -0.0910481
8.05 -0.0844012
8.06 -0.078003
8.07 -0.0718832
8.08 -0.0660543
8.09 -0.0605265
8.1 -0.0552996
8.11 -0.0503642
8.12 -0.0457067
8.13 -0.0413221
8.14 -0.0371541
8.15 -0.0331726
8.16 -0.0293474
8.17 -0.0256506
8.18 -0.022058
8.19 -0.0185554
8.2 -0.015128
8.21 -0.0117683
8.22 -0.0084803
8.23 -0.00527571
8.24 -0.002173
8.25 0.000802739
8.26 0.00360097
8.27 0.00620319
8.28 0.00857479
8.29 0.0106818
8.3 0.0124926
8.31 0.0139798
8.32 0.0151017
8.33 0.0158414
8.34 0.0162164
8.35 0.0162319
8.36 0.0159029
8.37 0.0152529
8.38 0.0143141
8.39 0.0131037
8.4 0.0116979
8.41 0.0101488
8.42 0.0085082
8.43 0.00682736
8.44 0.00515453
8.45 0.00353697
8.46 0.00201704
8.47 0.000614775
8.48 -0.000656551
8.49 -0.0017956
8.5 -0.00281357
8.51 -0.00373428
8.52 -0.00459256
8.53 -0.00544798
8.54 -0.00636152
8.55 -0.00740064
8.56 -0.00863815
8.57 -0.0101497
8.58 -0.0120257
8.59 -0.0143694
8.6 -0.0172166
8.61 -0.0206244
8.62 -0.0246391
8.63 -0.0292939
8.64 -0.0346079
8.65 -0.0406415
8.66 -0.0473401
8.67 -0.0546515
8.68 -0.0625288
8.69 -0.0709114
8.7 -0.0797267
8.71 -0.0888987
8.72 -0.0983444
8.73 -0.107938
8.74 -0.117586
8.75 -0.127194
8.76 -0.136676
8.77 -0.145952
8.78 -0.154926
8.79 -0.163543
8.8 -0.171773
8.81 -0.179589
8.82 -0.186976
8.83 -0.193935
8.84 -0.200474
8.85 -0.206586
8.86 -0.212349
8.87 -0.217806
8.88 -0.223006
8.89 -0.227996
8.9 -0.232825
8.91 -0.237534
8.92 -0.242166
8.93 -0.246756
8.94 -0.251324
8.95 -0.255876
8.96 -0.26041
8.97 -0.26491
8.98 -0.269337
8.99 -0.273656
9 -0.277818
9.01 -0.281769
9.02 -0.285447
9.03 -0.288792
9.04 -0.291717
9.05 -0.294152
9.06 -0.29607
9.07 -0.297429
9.08 -0.298195
9.09 -0.298349
9.1 -0.297882
9.11 -0.296736
9.12 -0.294994
9.13 -0.292698
9.14 -0.289896
9.15 -0.286647
9.16 -0.283017
9.17 -0.27907
9.18 -0.27489
9.19 -0.270576
9.2 -0.266208
9.21 -0.261857
9.22 -0.257593
9.23 -0.253472
9.24 -0.249566
9.25 -0.245901
9.26 -0.242493
9.27 -0.239352
9.28 -0.236474
9.29 -0.233846
9.3 -0.231448
9.31 -0.229252
9.32 -0.227196
9.33 -0.225235
9.34 -0.22332
9.35 -0.221403
9.36 -0.219438
9.37 -0.217372
9.38 -0.21517
9.39 -0.21281
9.4 -0.210274
9.41 -0.207553
9.42 -0.204647
9.43 -0.201562
9.44 -0.198306
9.45 -0.194921
9.46 -0.191436
9.47 -0.187884
9.48 -0.184297
9.49 -0.180706
9.5 -0.177144
9.51 -0.173634
9.52 -0.170187
9.53 -0.166806
9.54 -0.163485
9.55 -0.160206
9.56 -0.15694
9.57 -0.153636
9.58 -0.150241
9.59 -0.146691
9.6 -0.142917
9.61 -0.138843
9.62 -0.13439
9.63 -0.129442
9.64 -0.123914
9.65 -0.117756
9.66 -0.110901
9.67 -0.10329
9.68 -0.0948747
9.69 -0.0856198
9.7 -0.0754012
9.71 -0.0643106
9.72 -0.0523587
9.73 -0.039569
9.74 -0.0259784
9.75 -0.011636
9.76 0.00342969
9.77 0.0191463
9.78 0.0353906
9.79 0.052079
9.8 0.0691253
9.81 0.0864424
9.82 0.103944
9.83 0.12155
9.84 0.139163
9.85 0.156712
9.86 0.17413
9.87 0.191359
9.88 0.208348
9.89 0.225038
9.9 0.241374
9.91 0.257349
9.92 0.272933
9.93 0.288104
9.94 0.302839
9.95 0.317118
9.96 0.330872
9.97 0.34411
9.98 0.356819
9.99 0.368972
10 0.380539
10.01 0.391491
10.02 0.401772
10.03 0.411304
10.04 0.42011
10.05 0.428156
10.06 0.435412
10.07 0.441851
10.08 0.447452
10.09 0.452132
10.1 0.455924
10.11 0.458866
10.12 0.460973
10.13 0.462274
10.14 0.462807
10.15 0.462609
10.16 0.461696
10.17 0.460209
10.18 0.458228
10.19 0.455838
10.2 0.453127
10.21 0.450187
10.22 0.447105
10.23 0.443986
10.24 0.440917
10.25 0.437971
10.26 0.435215
10.27 0.432702
10.28 0.430475
10.29 0.428597
10.3 0.427044
10.31 0.425813
10.32 0.424883
10.33 0.424224
10.34 0.423789
10.35 0.42353
10.36 0.423369
10.37 0.423222
10.38 0.423009
10.39 0.422648
10.4 0.422055
10.41 0.421147
10.42 0.419793
10.43 0.417953
10.44 0.415563
10.45 0.412564
10.46 0.408906
10.47 0.404547
10.48 0.399418
10.49 0.393481
10.5 0.386774
10.51 0.379295
10.52 0.371049
10.53 0.362047
10.54 0.352306
10.55 0.341779
10.56 0.330557
10.57 0.31868
10.58 0.30618
10.59 0.29309
10.6 0.279444
10.61 0.265256
10.62 0.250546
10.63 0.235389
10.64 0.219819
10.65 0.203872
10.66 0.187584
10.67 0.17099
10.68 0.15411
10.69 0.137004
10.7 0.119721
10.71 0.102305
10.72 0.0848018
10.73 0.0672577
10.74 0.0497223
10.75 0.032254
10.76 0.0148996
10.77 -0.00229407
10.78 -0.0192823
10.79 -0.0360234
10.8 -0.0524797
10.81 -0.068591
10.82 -0.0843415
10.83 -0.0997248
10.84 -0.11473
10.85 -0.129353
10.86 -0.143598
10.87 -0.157471
10.88 -0.170963
10.89 -0.184139
10.9 -0.197029
10.91 -0.209668
10.92 -0.222094
10.93 -0.234346
10.94 -0.246454
10.95 -0.258462
10.96 -0.270405
10.97 -0.28231
10.98 -0.294192
10.99 -0.306062
11 -0.317919
11.01 -0.329749
11.02 -0.341532
11.03 -0.353235
11.04 -0.364817
11.05 -0.37623
11.06 -0.387416
11.07 -0.398292
11.08 -0.408778
11.09 -0.418824
11.1 -0.428358
11.11 -0.437311
11.12 -0.445617
11.13 -0.453215
11.14 -0.459962
11.15 -0.465886
11.16 -0.470957
11.17 -0.475149
11.18 -0.478445
11.19 -0.480838
11.2 -0.482291
11.21 -0.482796
11.22 -0.482437
11.23 -0.481242
11.24 -0.479244
11.25 -0.476478
11.26 -0.472982
11.27 -0.468728
11.28 -0.463815
11.29 -0.458287
11.3 -0.452174
11.31 -0.445502
11.32 -0.43829
11.33 -0.430536
11.34 -0.422226
11.35 -0.413406
11.36 -0.404074
11.37 -0.394228
11.38 -0.383861
11.39 -0.372967
11.4 -0.361493
11.41 -0.349469
11.42 -0.33691
11.43 -0.323824
11.44 -0.310223
11.45 -0.29613
11.46 -0.281562
11.47 -0.266533
11.48 -0.251133
11.49 -0.235419
11.5 -0.219454
11.51 -0.203308
11.52 -0.187056
11.53 -0.170783
11.54 -0.154581
11.55 -0.138534
11.56 -0.122722
11.57 -0.107222
11.58 -0.0921061
11.59 -0.0774461
11.6 -0.0633516
11.61 -0.0498207
11.62 -0.0368893
11.63 -0.0245827
11.64 -0.0129161
11.65 -0.00189422
11.66 0.00844653
11.67 0.0181332
11.68 0.0272221
11.69 0.0357432
11.7 0.0437312
11.71 0.0512241
11.72 0.0582609
11.73 0.0648389
11.74 0.0710475
11.75 0.0769216
11.76 0.0824921
11.77 0.0877849
11.78 0.0928205
11.79 0.0976005
11.8 0.102132
11.81 0.106432
11.82 0.110495
11.83 0.114313
11.84 0.117873
11.85 0.12116
11.86 0.124123
11.87 0.126772
11.88 0.12909
11.89 0.131061
11.9 0.132671
11.91 0.133908
11.92 0.134746
11.93 0.135168
11.94 0.1352
11.95 0.134844
11.96 0.134102
11.97 0.132981
11.98 0.131485
11.99 0.129586
12 0.127318
12.01 0.124688
12.02 0.121698
12.03 0.11834
12.04 0.114606
12.05 0.110468
12.06 0.105882
12.07 0.100853
12.08 0.095353
12.09 0.0893456
12.1 0.0827936
12.11 0.0756577
12.12 0.0678413
12.13 0.0593357
12.14 0.0501261
12.15 0.0401835
12.16 0.0294858
12.17 0.0180193
