# xPDFsuite Configuration #
[PDF]
wavelength = 0.1
dataformat = QA
inputfile = BiMsol6_insitu_700 C-00544.xy
backgroundfile = Quartz2mm-dist500-00000.xy
mode = xray
bgscale = 0.0042
composition = Bi2Fe4O9
outputtype = gr
qmaxinst = 24.998449118
qmin = 0.1
qmax = 21.4986662415
rmax = 80.0
rmin = 0.0
rstep = 0.01
rpoly = 0.9

[Misc]
inputdir = C:/Data/Seafile/CPH/Beamtime/Desy Oct 20/In situ data/Processed/BiMsol6/PDF
savedir = C:/Data/Seafile/CPH/Beamtime/Desy Oct 20/In situ data/PDF/BiMsol6
backgroundfilefull = C:/Data/Seafile/CPH/Beamtime/Desy Oct 20/In situ data/Processed/Standard_Empty_Cap/Quartz2mm-dist500-00000.xy

#### start data
#S 1
#L r($\AA$)  G($\AA^{-2}$)
0 0
0.01 0.00566072
0.02 0.010994
0.03 0.01572
0.04 0.0195877
0.05 0.0223872
0.06 0.0239591
0.07 0.0241301
0.08 0.0228524
0.09 0.0202585
0.1 0.0164588
0.11 0.0116227
0.12 0.0059709
0.13 -0.000234218
0.14 -0.00669539
0.15 -0.0130472
0.16 -0.0189805
0.17 -0.0242063
0.18 -0.0284675
0.19 -0.0315513
0.2 -0.0332405
0.21 -0.0333919
0.22 -0.0321058
0.23 -0.0294536
0.24 -0.0255784
0.25 -0.0206905
0.26 -0.0150591
0.27 -0.00899525
0.28 -0.00292653
0.29 0.00276587
0.3 0.00771276
0.31 0.0115659
0.32 0.0140156
0.33 0.0147496
0.34 0.0134664
0.35 0.0102348
0.36 0.00507022
0.37 -0.00191335
0.38 -0.0105029
0.39 -0.0203896
0.4 -0.0312101
0.41 -0.0423711
0.42 -0.053293
0.43 -0.0633858
0.44 -0.0720421
0.45 -0.0786598
0.46 -0.0826031
0.47 -0.0830501
0.48 -0.0798443
0.49 -0.0726662
0.5 -0.0613141
0.51 -0.0457177
0.52 -0.0259471
0.53 -0.00195668
0.54 0.0257073
0.55 0.0563354
0.56 0.0892682
0.57 0.123739
0.58 0.158893
0.59 0.193803
0.6 0.22728
0.61 0.258413
0.62 0.286277
0.63 0.310007
0.64 0.328826
0.65 0.342072
0.66 0.348815
0.67 0.348688
0.68 0.341875
0.69 0.32839
0.7 0.308428
0.71 0.282354
0.72 0.250695
0.73 0.213655
0.74 0.172683
0.75 0.128719
0.76 0.0827571
0.77 0.0358303
0.78 -0.0110225
0.79 -0.0566787
0.8 -0.100009
0.81 -0.140244
0.82 -0.176641
0.83 -0.20859
0.84 -0.235626
0.85 -0.257444
0.86 -0.273345
0.87 -0.283858
0.88 -0.28927
0.89 -0.289936
0.9 -0.286332
0.91 -0.279041
0.92 -0.268641
0.93 -0.255872
0.94 -0.241718
0.95 -0.226931
0.96 -0.212239
0.97 -0.198316
0.98 -0.185765
0.99 -0.175317
1 -0.167284
1.01 -0.161888
1.02 -0.15928
1.03 -0.159495
1.04 -0.162458
1.05 -0.168053
1.06 -0.176103
1.07 -0.186021
1.08 -0.197389
1.09 -0.209758
1.1 -0.222663
1.11 -0.235645
1.12 -0.248204
1.13 -0.259914
1.14 -0.270464
1.15 -0.279592
1.16 -0.287112
1.17 -0.292917
1.18 -0.296947
1.19 -0.299123
1.2 -0.299752
1.21 -0.299026
1.22 -0.297181
1.23 -0.294487
1.24 -0.291233
1.25 -0.287713
1.26 -0.284254
1.27 -0.281117
1.28 -0.278516
1.29 -0.276617
1.3 -0.275532
1.31 -0.275323
1.32 -0.276067
1.33 -0.277591
1.34 -0.279767
1.35 -0.282425
1.36 -0.285357
1.37 -0.288335
1.38 -0.291092
1.39 -0.293351
1.4 -0.294907
1.41 -0.295566
1.42 -0.295177
1.43 -0.293631
1.44 -0.290877
1.45 -0.286791
1.46 -0.28158
1.47 -0.275385
1.48 -0.268392
1.49 -0.26083
1.5 -0.252962
1.51 -0.245092
1.52 -0.237568
1.53 -0.230684
1.54 -0.224717
1.55 -0.219912
1.56 -0.216474
1.57 -0.214554
1.58 -0.21441
1.59 -0.215922
1.6 -0.219004
1.61 -0.223527
1.62 -0.229297
1.63 -0.236064
1.64 -0.243538
1.65 -0.251341
1.66 -0.259049
1.67 -0.266279
1.68 -0.272655
1.69 -0.277816
1.7 -0.281439
1.71 -0.283057
1.72 -0.282546
1.73 -0.279816
1.74 -0.2748
1.75 -0.267506
1.76 -0.25802
1.77 -0.246452
1.78 -0.232945
1.79 -0.217981
1.8 -0.201902
1.81 -0.185084
1.82 -0.16792
1.83 -0.150811
1.84 -0.134208
1.85 -0.118499
1.86 -0.103979
1.87 -0.0909104
1.88 -0.0794923
1.89 -0.0698585
1.9 -0.0620983
1.91 -0.0563529
1.92 -0.052334
1.93 -0.0498801
1.94 -0.0487744
1.95 -0.048755
1.96 -0.049527
1.97 -0.0507849
1.98 -0.0521531
1.99 -0.0533029
2 -0.053953
2.01 -0.0538605
2.02 -0.052832
2.03 -0.0507284
2.04 -0.0473541
2.05 -0.0428521
2.06 -0.0373109
2.07 -0.0308864
2.08 -0.0237965
2.09 -0.0163134
2.1 -0.00877022
2.11 -0.00157461
2.12 0.00490138
2.13 0.0102869
2.14 0.0142253
2.15 0.016388
2.16 0.0164878
2.17 0.0140204
2.18 0.00904653
2.19 0.00150509
2.2 -0.00860537
2.21 -0.0212078
2.22 -0.0361478
2.23 -0.0532799
2.24 -0.0723052
2.25 -0.0927109
2.26 -0.11409
2.27 -0.136006
2.28 -0.158009
2.29 -0.179649
2.3 -0.200369
2.31 -0.219789
2.32 -0.237575
2.33 -0.253432
2.34 -0.267133
2.35 -0.27852
2.36 -0.287431
2.37 -0.293756
2.38 -0.297787
2.39 -0.299686
2.4 -0.299679
2.41 -0.298043
2.42 -0.295099
2.43 -0.291148
2.44 -0.286659
2.45 -0.282029
2.46 -0.277615
2.47 -0.273748
2.48 -0.270721
2.49 -0.268813
2.5 -0.268326
2.51 -0.269272
2.52 -0.271707
2.53 -0.275622
2.54 -0.280949
2.55 -0.287564
2.56 -0.295362
2.57 -0.304051
2.58 -0.313331
2.59 -0.322928
2.6 -0.332561
2.61 -0.341949
2.62 -0.350816
2.63 -0.358821
2.64 -0.365821
2.65 -0.371651
2.66 -0.376193
2.67 -0.379376
2.68 -0.381175
2.69 -0.381533
2.7 -0.380551
2.71 -0.378421
2.72 -0.375294
2.73 -0.371348
2.74 -0.366779
2.75 -0.361789
2.76 -0.356585
2.77 -0.351405
2.78 -0.346425
2.79 -0.341803
2.8 -0.337665
2.81 -0.334105
2.82 -0.331221
2.83 -0.329042
2.84 -0.327509
2.85 -0.326572
2.86 -0.326153
2.87 -0.326148
2.88 -0.326438
2.89 -0.326892
2.9 -0.327338
2.91 -0.327636
2.92 -0.327655
2.93 -0.327272
2.94 -0.326382
2.95 -0.324871
2.96 -0.322645
2.97 -0.319712
2.98 -0.316054
2.99 -0.311672
3 -0.306586
3.01 -0.300825
3.02 -0.294374
3.03 -0.287327
3.04 -0.279739
3.05 -0.271646
3.06 -0.26307
3.07 -0.254022
3.08 -0.244476
3.09 -0.234371
3.1 -0.223695
3.11 -0.212377
3.12 -0.200326
3.13 -0.18744
3.14 -0.173603
3.15 -0.158595
3.16 -0.142338
3.17 -0.124757
3.18 -0.105755
3.19 -0.0852555
3.2 -0.063207
3.21 -0.0395566
3.22 -0.0142082
3.23 0.0126236
3.24 0.0408355
3.25 0.0702836
3.26 0.100785
3.27 0.13212
3.28 0.164056
3.29 0.196254
3.3 0.22838
3.31 0.260116
3.32 0.291134
3.33 0.321113
3.34 0.349723
3.35 0.376476
3.36 0.401261
3.37 0.423851
3.38 0.444056
3.39 0.461728
3.4 0.476765
3.41 0.488941
3.42 0.498273
3.43 0.504953
3.44 0.509068
3.45 0.510739
3.46 0.510122
3.47 0.507394
3.48 0.502556
3.49 0.49606
3.5 0.488124
3.51 0.478961
3.52 0.468777
3.53 0.457765
3.54 0.446073
3.55 0.433869
3.56 0.421319
3.57 0.408524
3.58 0.395562
3.59 0.382487
3.6 0.369337
3.61 0.356127
3.62 0.342869
3.63 0.329561
3.64 0.316199
3.65 0.302781
3.66 0.289312
3.67 0.275805
3.68 0.262294
3.69 0.248831
3.7 0.235482
3.71 0.222333
3.72 0.209487
3.73 0.197064
3.74 0.185266
3.75 0.174218
3.76 0.164063
3.77 0.15496
3.78 0.147066
3.79 0.14053
3.8 0.13554
3.81 0.132327
3.82 0.130857
3.83 0.131204
3.84 0.133414
3.85 0.137508
3.86 0.143477
3.87 0.151427
3.88 0.16119
3.89 0.172601
3.9 0.185536
3.91 0.19985
3.92 0.21538
3.93 0.231967
3.94 0.249469
3.95 0.267598
3.96 0.286164
3.97 0.304983
3.98 0.323876
3.99 0.342676
4 0.361201
4.01 0.3793
4.02 0.396866
4.03 0.413795
4.04 0.429999
4.05 0.445406
4.06 0.45995
4.07 0.473487
4.08 0.486079
4.09 0.497698
4.1 0.508325
4.11 0.517941
4.12 0.526531
4.13 0.534014
4.14 0.540375
4.15 0.545652
4.16 0.549823
4.17 0.552863
4.18 0.554744
4.19 0.555437
4.2 0.554771
4.21 0.552848
4.22 0.549645
4.23 0.54514
4.24 0.539317
4.25 0.532163
4.26 0.523611
4.27 0.513642
4.28 0.502365
4.29 0.489806
4.3 0.475999
4.31 0.460989
4.32 0.444829
4.33 0.427473
4.34 0.409088
4.35 0.389761
4.36 0.369566
4.37 0.348576
4.38 0.326864
4.39 0.304481
4.4 0.281482
4.41 0.257983
4.42 0.234044
4.43 0.209724
4.44 0.185075
4.45 0.160149
4.46 0.134975
4.47 0.10962
4.48 0.0841351
4.49 0.0585674
4.5 0.0329656
4.51 0.00738207
4.52 -0.0181225
4.53 -0.0434682
4.54 -0.0685929
4.55 -0.0934209
4.56 -0.11787
4.57 -0.141854
4.58 -0.165282
4.59 -0.187998
4.6 -0.209923
4.61 -0.230987
4.62 -0.251098
4.63 -0.27017
4.64 -0.288126
4.65 -0.304877
4.66 -0.320257
4.67 -0.334348
4.68 -0.347128
4.69 -0.358593
4.7 -0.368755
4.71 -0.377642
4.72 -0.385223
4.73 -0.391597
4.74 -0.396906
4.75 -0.401244
4.76 -0.404716
4.77 -0.407437
4.78 -0.409521
4.79 -0.411049
4.8 -0.412208
4.81 -0.413113
4.82 -0.413872
4.83 -0.414582
4.84 -0.415332
4.85 -0.416205
4.86 -0.417265
4.87 -0.418546
4.88 -0.42007
4.89 -0.421845
4.9 -0.423862
4.91 -0.426101
4.92 -0.428541
4.93 -0.431113
4.94 -0.433756
4.95 -0.436409
4.96 -0.439002
4.97 -0.441464
4.98 -0.443713
4.99 -0.44566
5 -0.447256
5.01 -0.448439
5.02 -0.449154
5.03 -0.449352
5.04 -0.448991
5.05 -0.447976
5.06 -0.446328
5.07 -0.444038
5.08 -0.441099
5.09 -0.437504
5.1 -0.433258
5.11 -0.428344
5.12 -0.422749
5.13 -0.416543
5.14 -0.409748
5.15 -0.402388
5.16 -0.394491
5.17 -0.386089
5.18 -0.377176
5.19 -0.367824
5.2 -0.358087
5.21 -0.348007
5.22 -0.337633
5.23 -0.327013
5.24 -0.316199
5.25 -0.305243
5.26 -0.294222
5.27 -0.283197
5.28 -0.27223
5.29 -0.261384
5.3 -0.250721
5.31 -0.240326
5.32 -0.230255
5.33 -0.220552
5.34 -0.211265
5.35 -0.202438
5.36 -0.194106
5.37 -0.186305
5.38 -0.179104
5.39 -0.172459
5.4 -0.166368
5.41 -0.160824
5.42 -0.15581
5.43 -0.151302
5.44 -0.147299
5.45 -0.143752
5.46 -0.140597
5.47 -0.137792
5.48 -0.135292
5.49 -0.133057
5.5 -0.131046
5.51 -0.129239
5.52 -0.127578
5.53 -0.126038
5.54 -0.124596
5.55 -0.123237
5.56 -0.121948
5.57 -0.120727
5.58 -0.119571
5.59 -0.118475
5.6 -0.11744
5.61 -0.116464
5.62 -0.115545
5.63 -0.114677
5.64 -0.113848
5.65 -0.113033
5.66 -0.112204
5.67 -0.111323
5.68 -0.110345
5.69 -0.109216
5.7 -0.107863
5.71 -0.1062
5.72 -0.104167
5.73 -0.10169
5.74 -0.0986893
5.75 -0.0950916
5.76 -0.0908262
5.77 -0.0857539
5.78 -0.0798743
5.79 -0.0731651
5.8 -0.0656047
5.81 -0.057188
5.82 -0.0479279
5.83 -0.037831
5.84 -0.0269183
5.85 -0.0153312
5.86 -0.00315985
5.87 0.00949067
5.88 0.0225028
5.89 0.0357494
5.9 0.0490936
5.91 0.0623765
5.92 0.0754611
5.93 0.088219
5.94 0.100531
5.95 0.11229
5.96 0.12339
5.97 0.133698
5.98 0.143231
5.99 0.151963
6 0.15989
6.01 0.167032
6.02 0.173425
6.03 0.17908
6.04 0.184106
6.05 0.18862
6.06 0.192718
6.07 0.196503
6.08 0.200075
6.09 0.203534
6.1 0.206976
6.11 0.210487
6.12 0.214127
6.13 0.217936
6.14 0.221936
6.15 0.226127
6.16 0.230494
6.17 0.234982
6.18 0.239511
6.19 0.243994
6.2 0.248327
6.21 0.252395
6.22 0.256073
6.23 0.259158
6.24 0.26157
6.25 0.263186
6.26 0.263892
6.27 0.263589
6.28 0.262192
6.29 0.259572
6.3 0.255671
6.31 0.250549
6.32 0.244216
6.33 0.236706
6.34 0.228074
6.35 0.218398
6.36 0.207684
6.37 0.196146
6.38 0.183921
6.39 0.171141
6.4 0.157942
6.41 0.14446
6.42 0.130824
6.43 0.117175
6.44 0.10363
6.45 0.0902831
6.46 0.0772125
6.47 0.064478
6.48 0.052121
6.49 0.0402029
6.5 0.0286971
6.51 0.0175788
6.52 0.00681793
6.53 -0.00362729
6.54 -0.0138077
6.55 -0.0237759
6.56 -0.0335918
6.57 -0.0433316
6.58 -0.0530506
6.59 -0.0627974
6.6 -0.0726116
6.61 -0.0825219
6.62 -0.0925544
6.63 -0.102704
6.64 -0.112954
6.65 -0.123274
6.66 -0.133625
6.67 -0.143953
6.68 -0.154195
6.69 -0.164257
6.7 -0.174072
6.71 -0.183559
6.72 -0.192636
6.73 -0.201224
6.74 -0.209247
6.75 -0.216582
6.76 -0.223176
6.77 -0.229003
6.78 -0.234018
6.79 -0.238185
6.8 -0.241478
6.81 -0.24387
6.82 -0.24526
6.83 -0.245743
6.84 -0.245321
6.85 -0.244001
6.86 -0.241791
6.87 -0.2387
6.88 -0.234683
6.89 -0.229752
6.9 -0.223958
6.91 -0.217299
6.92 -0.209771
6.93 -0.201366
6.94 -0.19207
6.95 -0.181763
6.96 -0.170529
6.97 -0.158354
6.98 -0.145221
6.99 -0.131119
7 -0.116041
7.01 -0.0999366
7.02 -0.0827987
7.03 -0.0647117
7.04 -0.0457047
7.05 -0.0258185
7.06 -0.00510521
7.07 0.0163711
7.08 0.0385969
7.09 0.0614134
7.1 0.0847128
7.11 0.108389
7.12 0.132328
7.13 0.156415
7.14 0.180524
7.15 0.204515
7.16 0.22827
7.17 0.251675
7.18 0.274623
7.19 0.297011
7.2 0.318748
7.21 0.339677
7.22 0.359766
7.23 0.378976
7.24 0.397254
7.25 0.414561
7.26 0.430863
7.27 0.446107
7.28 0.460207
7.29 0.473241
7.3 0.485197
7.31 0.496065
7.32 0.505831
7.33 0.514484
7.34 0.521911
7.35 0.52814
7.36 0.533182
7.37 0.537005
7.38 0.539573
7.39 0.540841
7.4 0.540742
7.41 0.539106
7.42 0.536019
7.43 0.531434
7.44 0.525307
7.45 0.517601
7.46 0.508285
7.47 0.497223
7.48 0.484444
7.49 0.470034
7.5 0.454016
7.51 0.436431
7.52 0.417336
7.53 0.3968
7.54 0.374788
7.55 0.351573
7.56 0.327288
7.57 0.30208
7.58 0.276109
7.59 0.249547
7.6 0.222562
7.61 0.195371
7.62 0.168188
7.63 0.141203
7.64 0.114605
7.65 0.0885751
7.66 0.0632868
7.67 0.0390203
7.68 0.015839
7.69 -0.00613365
7.7 -0.0267876
7.71 -0.046032
7.72 -0.0637959
7.73 -0.0799547
7.74 -0.0944444
7.75 -0.107368
7.76 -0.118742
7.77 -0.128601
7.78 -0.136997
7.79 -0.143996
7.8 -0.149554
7.81 -0.153886
7.82 -0.157113
7.83 -0.159342
7.84 -0.160682
7.85 -0.161243
7.86 -0.161112
7.87 -0.160382
7.88 -0.159201
7.89 -0.157656
7.9 -0.155824
7.91 -0.153771
7.92 -0.151553
7.93 -0.149202
7.94 -0.146759
7.95 -0.14424
7.96 -0.141651
7.97 -0.138985
7.98 -0.136226
7.99 -0.133348
8 -0.130309
8.01 -0.127087
8.02 -0.123649
8.03 -0.119962
8.04 -0.115995
8.05 -0.111725
8.06 -0.107105
8.07 -0.102139
8.08 -0.0968399
8.09 -0.0912196
8.1 -0.0853011
8.11 -0.0791181
8.12 -0.0727129
8.13 -0.0661342
8.14 -0.0594701
8.15 -0.0527944
8.16 -0.0461869
8.17 -0.0397309
8.18 -0.0335114
8.19 -0.0276395
8.2 -0.0222015
8.21 -0.0172538
8.22 -0.012861
8.23 -0.00907678
8.24 -0.00594249
8.25 -0.00348762
8.26 -0.00179958
8.27 -0.000792338
8.28 -0.00044111
8.29 -0.000705226
8.3 -0.00152897
8.31 -0.00284286
8.32 -0.00458295
8.33 -0.00664361
8.34 -0.00890037
8.35 -0.0112489
8.36 -0.013584
8.37 -0.0158024
8.38 -0.0178064
8.39 -0.0194639
8.4 -0.0207215
8.41 -0.0215201
8.42 -0.0218139
8.43 -0.0215747
8.44 -0.0207925
8.45 -0.0194534
8.46 -0.0175786
8.47 -0.0152569
8.48 -0.0125557
8.49 -0.00955661
8.5 -0.00635391
8.51 -0.00305142
8.52 0.000227738
8.53 0.00335727
8.54 0.00622372
8.55 0.00871709
8.56 0.0107344
8.57 0.0121826
8.58 0.0129563
8.59 0.012948
8.6 0.012168
8.61 0.0105894
8.62 0.00820382
8.63 0.00502122
8.64 0.00106925
8.65 -0.00366567
8.66 -0.00907283
8.67 -0.0150552
8.68 -0.0215275
8.69 -0.0283972
8.7 -0.0355674
8.71 -0.0429421
8.72 -0.05042
8.73 -0.057893
8.74 -0.0652776
8.75 -0.0725
8.76 -0.0794977
8.77 -0.0862206
8.78 -0.0926067
8.79 -0.0986434
8.8 -0.104338
8.81 -0.109698
8.82 -0.114742
8.83 -0.1195
8.84 -0.124007
8.85 -0.128293
8.86 -0.132433
8.87 -0.136478
8.88 -0.140476
8.89 -0.144475
8.9 -0.148517
8.91 -0.152644
8.92 -0.156885
8.93 -0.161254
8.94 -0.165758
8.95 -0.170394
8.96 -0.175151
8.97 -0.18001
8.98 -0.184948
8.99 -0.189917
9 -0.194878
9.01 -0.199787
9.02 -0.2046
9.03 -0.209272
9.04 -0.213748
9.05 -0.217982
9.06 -0.22195
9.07 -0.225627
9.08 -0.228991
9.09 -0.232027
9.1 -0.234728
9.11 -0.237059
9.12 -0.23906
9.13 -0.240747
9.14 -0.242139
9.15 -0.243258
9.16 -0.244127
9.17 -0.244762
9.18 -0.245187
9.19 -0.24544
9.2 -0.245544
9.21 -0.245514
9.22 -0.245365
9.23 -0.245107
9.24 -0.244732
9.25 -0.24425
9.26 -0.243657
9.27 -0.242944
9.28 -0.2421
9.29 -0.241112
9.3 -0.239959
9.31 -0.238617
9.32 -0.237086
9.33 -0.235356
9.34 -0.233418
9.35 -0.231269
9.36 -0.228907
9.37 -0.226322
9.38 -0.223533
9.39 -0.220563
9.4 -0.217427
9.41 -0.214148
9.42 -0.210746
9.43 -0.207246
9.44 -0.203667
9.45 -0.20004
9.46 -0.196384
9.47 -0.192715
9.48 -0.189043
9.49 -0.185371
9.5 -0.181697
9.51 -0.178008
9.52 -0.174286
9.53 -0.170503
9.54 -0.166627
9.55 -0.162617
9.56 -0.158426
9.57 -0.153972
9.58 -0.149222
9.59 -0.144119
9.6 -0.138606
9.61 -0.132627
9.62 -0.12613
9.63 -0.119028
9.64 -0.111275
9.65 -0.102871
9.66 -0.0937875
9.67 -0.0840084
9.68 -0.0735255
9.69 -0.0623405
9.7 -0.0503875
9.71 -0.03777
9.72 -0.0245213
9.73 -0.010682
9.74 0.0037
9.75 0.0185707
9.76 0.0338893
9.77 0.0495876
9.78 0.0655713
9.79 0.0817722
9.8 0.098122
9.81 0.114553
9.82 0.130999
9.83 0.147386
9.84 0.163651
9.85 0.179739
9.86 0.195598
9.87 0.211179
9.88 0.226437
9.89 0.241317
9.9 0.255762
9.91 0.269766
9.92 0.283301
9.93 0.296338
9.94 0.308852
9.95 0.320821
9.96 0.332169
9.97 0.342912
9.98 0.353047
9.99 0.362557
10 0.371427
10.01 0.379646
10.02 0.387182
10.03 0.393987
10.04 0.400115
10.05 0.405564
10.06 0.410335
10.07 0.414435
10.08 0.417872
10.09 0.420608
10.1 0.422696
10.11 0.424181
10.12 0.425091
10.13 0.425456
10.14 0.425314
10.15 0.424694
10.16 0.423608
10.17 0.422148
10.18 0.420357
10.19 0.418284
10.2 0.415973
10.21 0.413472
10.22 0.410818
10.23 0.408063
10.24 0.405253
10.25 0.402425
10.26 0.39961
10.27 0.396838
10.28 0.394133
10.29 0.391524
10.3 0.389016
10.31 0.386617
10.32 0.384328
10.33 0.382146
10.34 0.380063
10.35 0.378067
10.36 0.376136
10.37 0.37424
10.38 0.372349
10.39 0.370428
10.4 0.368438
10.41 0.366338
10.42 0.364058
10.43 0.361561
10.44 0.358798
10.45 0.355714
10.46 0.352258
10.47 0.348373
10.48 0.343982
10.49 0.339016
10.5 0.333458
10.51 0.327265
10.52 0.320397
10.53 0.312817
10.54 0.3045
10.55 0.295343
10.56 0.2854
10.57 0.27468
10.58 0.26319
10.59 0.250945
10.6 0.237971
10.61 0.224277
10.62 0.209889
10.63 0.194914
10.64 0.179415
10.65 0.163459
10.66 0.14712
10.67 0.130474
10.68 0.11359
10.69 0.0965705
10.7 0.0795016
10.71 0.0624596
10.72 0.0455166
10.73 0.028739
10.74 0.0121936
10.75 -0.00404552
10.76 -0.0199604
10.77 -0.0355218
10.78 -0.0507109
10.79 -0.0655191
10.8 -0.0799479
10.81 -0.0939807
10.82 -0.107657
10.83 -0.121019
10.84 -0.134103
10.85 -0.146948
10.86 -0.159596
10.87 -0.172091
10.88 -0.18447
10.89 -0.196789
10.9 -0.209083
10.91 -0.221382
10.92 -0.233711
10.93 -0.246084
10.94 -0.258513
10.95 -0.270992
10.96 -0.283507
10.97 -0.296035
10.98 -0.308545
10.99 -0.321
11 -0.333354
11.01 -0.345534
11.02 -0.357496
11.03 -0.369182
11.04 -0.380534
11.05 -0.391492
11.06 -0.401999
11.07 -0.411968
11.08 -0.421339
11.09 -0.430101
11.1 -0.438212
11.11 -0.445642
11.12 -0.452363
11.13 -0.458355
11.14 -0.463522
11.15 -0.467933
11.16 -0.471589
11.17 -0.474495
11.18 -0.476654
11.19 -0.478075
11.2 -0.478735
11.21 -0.478629
11.22 -0.477818
11.23 -0.476312
11.24 -0.474122
11.25 -0.471253
11.26 -0.467712
11.27 -0.463438
11.28 -0.458488
11.29 -0.452876
11.3 -0.446602
11.31 -0.439669
11.32 -0.432078
11.33 -0.42381
11.34 -0.414842
11.35 -0.405235
11.36 -0.395002
11.37 -0.384159
11.38 -0.372728
11.39 -0.360732
11.4 -0.348156
11.41 -0.335071
11.42 -0.321531
11.43 -0.307576
11.44 -0.293253
11.45 -0.278608
11.46 -0.263685
11.47 -0.248524
11.48 -0.233198
11.49 -0.217756
11.5 -0.202244
11.51 -0.186708
11.52 -0.171187
11.53 -0.155728
11.54 -0.140368
11.55 -0.125136
11.56 -0.110058
11.57 -0.0951606
11.58 -0.0804647
11.59 -0.0659934
11.6 -0.0517887
11.61 -0.0378439
11.62 -0.0241752
11.63 -0.0107991
11.64 0.00226757
11.65 0.0150068
11.66 0.0273754
11.67 0.0393548
11.68 0.0509407
11.69 0.0621101
11.7 0.0728389
11.71 0.0831029
11.72 0.0928771
11.73 0.102078
11.74 0.110742
11.75 0.11885
11.76 0.126388
11.77 0.133344
11.78 0.139713
11.79 0.145462
11.8 0.150592
11.81 0.155151
11.82 0.159156
11.83 0.162629
11.84 0.165598
11.85 0.168092
11.86 0.170103
11.87 0.171714
11.88 0.172966
11.89 0.173896
11.9 0.174537
11.91 0.174923
11.92 0.17507
11.93 0.174997
11.94 0.174733
11.95 0.174284
11.96 0.173648
11.97 0.172813
11.98 0.171761
11.99 0.170437
12 0.168821
12.01 0.166875
12.02 0.164548
12.03 0.161789
12.04 0.158541
12.05 0.154726
12.06 0.150247
12.07 0.145098
12.08 0.139227
12.09 0.132588
12.1 0.125142
12.11 0.116859
12.12 0.107641
12.13 0.0975251
12.14 0.0865398
12.15 0.0746982
12.16 0.0620249
12.17 0.0485556
