# xPDFsuite Configuration #
[PDF]
wavelength = 0.1
dataformat = QA
inputfile = BiMsol6_insitu_700 C-00474.xy
backgroundfile = Quartz2mm-dist500-00000.xy
mode = xray
bgscale = 0.0042
composition = Bi2Fe4O9
outputtype = gr
qmaxinst = 24.998449118
qmin = 0.1
qmax = 21.4986662415
rmax = 80.0
rmin = 0.0
rstep = 0.01
rpoly = 0.9

[Misc]
inputdir = C:/Data/Seafile/CPH/Beamtime/Desy Oct 20/In situ data/Processed/BiMsol6/PDF
savedir = C:/Data/Seafile/CPH/Beamtime/Desy Oct 20/In situ data/PDF/BiMsol6
backgroundfilefull = C:/Data/Seafile/CPH/Beamtime/Desy Oct 20/In situ data/Processed/Standard_Empty_Cap/Quartz2mm-dist500-00000.xy

#### start data
#S 1
#L r($\AA$)  G($\AA^{-2}$)
0 0
0.01 0.00680519
0.02 0.0132283
0.03 0.0189422
0.04 0.0236533
0.05 0.0271151
0.06 0.0291391
0.07 0.0295193
0.08 0.0281947
0.09 0.0253155
0.1 0.0210049
0.11 0.0154545
0.12 0.00891606
0.13 0.00169026
0.14 -0.00588586
0.15 -0.0133848
0.16 -0.0204465
0.17 -0.0267326
0.18 -0.0319393
0.19 -0.0358124
0.2 -0.0380902
0.21 -0.0385924
0.22 -0.0374189
0.23 -0.0346359
0.24 -0.0303919
0.25 -0.0249123
0.26 -0.0184912
0.27 -0.0114613
0.28 -0.00430855
0.29 0.00253514
0.3 0.00865041
0.31 0.013638
0.32 0.0171383
0.33 0.0187871
0.34 0.0182273
0.35 0.0155076
0.36 0.0106203
0.37 0.0036658
0.38 -0.00514583
0.39 -0.0154981
0.4 -0.0270261
0.41 -0.0390926
0.42 -0.051072
0.43 -0.0623293
0.44 -0.0722071
0.45 -0.0800508
0.46 -0.0851688
0.47 -0.086673
0.48 -0.0843658
0.49 -0.0778865
0.5 -0.0670005
0.51 -0.0516134
0.52 -0.0317814
0.53 -0.00743655
0.54 0.0208565
0.55 0.0523547
0.56 0.0863676
0.57 0.122089
0.58 0.158619
0.59 0.194977
0.6 0.229917
0.61 0.262466
0.62 0.291645
0.63 0.31654
0.64 0.336333
0.65 0.350325
0.66 0.357545
0.67 0.35761
0.68 0.350714
0.69 0.336884
0.7 0.316332
0.71 0.289451
0.72 0.256805
0.73 0.218633
0.74 0.176453
0.75 0.131258
0.76 0.0840953
0.77 0.0360475
0.78 -0.0117991
0.79 -0.0582706
0.8 -0.102197
0.81 -0.142799
0.82 -0.17932
0.83 -0.211151
0.84 -0.237834
0.85 -0.259083
0.86 -0.274211
0.87 -0.283805
0.88 -0.288199
0.89 -0.287795
0.9 -0.283119
0.91 -0.274805
0.92 -0.263484
0.93 -0.249951
0.94 -0.235216
0.95 -0.220063
0.96 -0.205236
0.97 -0.191419
0.98 -0.179217
0.99 -0.169366
1 -0.162141
1.01 -0.157726
1.02 -0.156233
1.03 -0.157656
1.04 -0.161871
1.05 -0.168713
1.06 -0.177947
1.07 -0.18894
1.08 -0.201237
1.09 -0.214355
1.1 -0.227804
1.11 -0.241109
1.12 -0.253743
1.13 -0.265298
1.14 -0.275485
1.15 -0.284068
1.16 -0.290894
1.17 -0.295893
1.18 -0.299049
1.19 -0.300334
1.2 -0.300108
1.21 -0.298609
1.22 -0.296116
1.23 -0.292934
1.24 -0.289382
1.25 -0.285791
1.26 -0.282494
1.27 -0.279743
1.28 -0.27774
1.29 -0.276631
1.3 -0.2765
1.31 -0.277371
1.32 -0.279286
1.33 -0.282009
1.34 -0.285364
1.35 -0.289131
1.36 -0.29306
1.37 -0.296879
1.38 -0.300273
1.39 -0.302939
1.4 -0.304666
1.41 -0.305257
1.42 -0.304565
1.43 -0.302501
1.44 -0.299039
1.45 -0.294076
1.46 -0.287888
1.47 -0.280665
1.48 -0.272648
1.49 -0.264119
1.5 -0.255398
1.51 -0.246847
1.52 -0.238871
1.53 -0.231787
1.54 -0.225898
1.55 -0.221465
1.56 -0.218694
1.57 -0.21773
1.58 -0.218834
1.59 -0.221826
1.6 -0.22657
1.61 -0.232885
1.62 -0.240518
1.63 -0.249153
1.64 -0.258431
1.65 -0.267894
1.66 -0.277061
1.67 -0.285496
1.68 -0.292772
1.69 -0.298495
1.7 -0.302312
1.71 -0.303712
1.72 -0.302595
1.73 -0.2989
1.74 -0.29259
1.75 -0.283714
1.76 -0.272411
1.77 -0.25885
1.78 -0.243247
1.79 -0.226169
1.8 -0.208035
1.81 -0.189295
1.82 -0.170413
1.83 -0.15185
1.84 -0.134143
1.85 -0.117718
1.86 -0.102886
1.87 -0.0899264
1.88 -0.0790424
1.89 -0.0703578
1.9 -0.0639444
1.91 -0.0599336
1.92 -0.0579487
1.93 -0.0577701
1.94 -0.0591165
1.95 -0.0616566
1.96 -0.0650232
1.97 -0.0688312
1.98 -0.0726254
1.99 -0.0760148
2 -0.0786593
2.01 -0.0802657
2.02 -0.0805993
2.03 -0.0794881
2.04 -0.0766722
2.05 -0.0723298
2.06 -0.0665528
2.07 -0.0595103
2.08 -0.051442
2.09 -0.0426496
2.1 -0.0334879
2.11 -0.024411
2.12 -0.0158532
2.13 -0.0082313
2.14 -0.00194779
2.15 0.00262425
2.16 0.00515568
2.17 0.00509789
2.18 0.0024765
2.19 -0.00279783
2.2 -0.01075
2.21 -0.0213214
2.22 -0.0343717
2.23 -0.0497719
2.24 -0.0672336
2.25 -0.0862348
2.26 -0.106368
2.27 -0.127196
2.28 -0.148263
2.29 -0.169117
2.3 -0.189212
2.31 -0.208151
2.32 -0.225593
2.33 -0.241241
2.34 -0.254864
2.35 -0.266301
2.36 -0.275389
2.37 -0.282019
2.38 -0.286466
2.39 -0.288882
2.4 -0.289481
2.41 -0.288527
2.42 -0.286325
2.43 -0.283156
2.44 -0.279463
2.45 -0.275618
2.46 -0.27195
2.47 -0.268765
2.48 -0.266329
2.49 -0.264894
2.5 -0.264727
2.51 -0.265831
2.52 -0.268248
2.53 -0.271962
2.54 -0.276904
2.55 -0.282952
2.56 -0.290001
2.57 -0.297788
2.58 -0.306048
2.59 -0.31454
2.6 -0.323021
2.61 -0.331252
2.62 -0.339005
2.63 -0.346
2.64 -0.352133
2.65 -0.357283
2.66 -0.361371
2.67 -0.364356
2.68 -0.366241
2.69 -0.367
2.7 -0.366739
2.71 -0.365623
2.72 -0.363785
2.73 -0.361371
2.74 -0.358536
2.75 -0.355432
2.76 -0.352208
2.77 -0.34902
2.78 -0.345972
2.79 -0.343148
2.8 -0.3406
2.81 -0.338355
2.82 -0.336421
2.83 -0.334759
2.84 -0.333288
2.85 -0.331922
2.86 -0.330563
2.87 -0.3291
2.88 -0.32742
2.89 -0.325363
2.9 -0.322849
2.91 -0.319793
2.92 -0.316123
2.93 -0.31179
2.94 -0.306766
2.95 -0.30102
2.96 -0.294555
2.97 -0.28747
2.98 -0.279829
2.99 -0.271709
3 -0.263196
3.01 -0.25438
3.02 -0.245337
3.03 -0.236168
3.04 -0.22694
3.05 -0.217696
3.06 -0.208457
3.07 -0.199216
3.08 -0.189938
3.09 -0.180547
3.1 -0.170951
3.11 -0.161035
3.12 -0.150662
3.13 -0.139682
3.14 -0.127936
3.15 -0.115172
3.16 -0.101265
3.17 -0.0861066
3.18 -0.0695794
3.19 -0.0515934
3.2 -0.0320912
3.21 -0.0110216
3.22 0.0117
3.23 0.0358495
3.24 0.0613073
3.25 0.0879117
3.26 0.115462
3.27 0.143722
3.28 0.172437
3.29 0.201263
3.3 0.229873
3.31 0.257956
3.32 0.2852
3.33 0.311308
3.34 0.335981
3.35 0.358774
3.36 0.37963
3.37 0.398376
3.38 0.414879
3.39 0.429049
3.4 0.440844
3.41 0.450117
3.42 0.456944
3.43 0.461548
3.44 0.464053
3.45 0.464612
3.46 0.463401
3.47 0.46061
3.48 0.456301
3.49 0.450853
3.5 0.444462
3.51 0.437313
3.52 0.429575
3.53 0.4214
3.54 0.412908
3.55 0.404215
3.56 0.395419
3.57 0.386577
3.58 0.377727
3.59 0.368889
3.6 0.360072
3.61 0.351277
3.62 0.342493
3.63 0.333714
3.64 0.324938
3.65 0.31617
3.66 0.307426
3.67 0.29874
3.68 0.290167
3.69 0.281765
3.7 0.273612
3.71 0.265797
3.72 0.258423
3.73 0.251597
3.74 0.245507
3.75 0.240234
3.76 0.235872
3.77 0.232521
3.78 0.230271
3.79 0.229195
3.8 0.229385
3.81 0.230948
3.82 0.233781
3.83 0.237865
3.84 0.243157
3.85 0.249591
3.86 0.257084
3.87 0.2656
3.88 0.274959
3.89 0.284998
3.9 0.295578
3.91 0.306562
3.92 0.317811
3.93 0.329194
3.94 0.340572
3.95 0.351828
3.96 0.362867
3.97 0.37361
3.98 0.383994
3.99 0.393971
4 0.403474
4.01 0.412495
4.02 0.421047
4.03 0.42913
4.04 0.436749
4.05 0.44391
4.06 0.450614
4.07 0.456814
4.08 0.462551
4.09 0.467804
4.1 0.472544
4.11 0.476729
4.12 0.480305
4.13 0.483163
4.14 0.485216
4.15 0.486421
4.16 0.486689
4.17 0.485929
4.18 0.484054
4.19 0.48098
4.2 0.476481
4.21 0.47063
4.22 0.463388
4.23 0.454729
4.24 0.444644
4.25 0.433146
4.26 0.420203
4.27 0.405855
4.28 0.39027
4.29 0.373542
4.3 0.355778
4.31 0.337097
4.32 0.317622
4.33 0.297429
4.34 0.276719
4.35 0.255625
4.36 0.234264
4.37 0.212742
4.38 0.191151
4.39 0.169574
4.4 0.148082
4.41 0.126715
4.42 0.1055
4.43 0.0844492
4.44 0.063561
4.45 0.0428247
4.46 0.0222317
4.47 0.00174702
4.48 -0.0186571
4.49 -0.0390023
4.5 -0.0593042
4.51 -0.0795703
4.52 -0.0997958
4.53 -0.119958
4.54 -0.140028
4.55 -0.159958
4.56 -0.179688
4.57 -0.199146
4.58 -0.218249
4.59 -0.236862
4.6 -0.254892
4.61 -0.272259
4.62 -0.288863
4.63 -0.304614
4.64 -0.319427
4.65 -0.333214
4.66 -0.34582
4.67 -0.357312
4.68 -0.367674
4.69 -0.376907
4.7 -0.385031
4.71 -0.392088
4.72 -0.398071
4.73 -0.403087
4.74 -0.407276
4.75 -0.410737
4.76 -0.413577
4.77 -0.415905
4.78 -0.41783
4.79 -0.419438
4.8 -0.420868
4.81 -0.422206
4.82 -0.423526
4.83 -0.424888
4.84 -0.426337
4.85 -0.427911
4.86 -0.429624
4.87 -0.431465
4.88 -0.433417
4.89 -0.435452
4.9 -0.437535
4.91 -0.439624
4.92 -0.441661
4.93 -0.443599
4.94 -0.445392
4.95 -0.446998
4.96 -0.448379
4.97 -0.449504
4.98 -0.450336
4.99 -0.450849
5 -0.451056
5.01 -0.450954
5.02 -0.450546
5.03 -0.449838
5.04 -0.448838
5.05 -0.447524
5.06 -0.445923
5.07 -0.444039
5.08 -0.441864
5.09 -0.439382
5.1 -0.436571
5.11 -0.433382
5.12 -0.429751
5.13 -0.425658
5.14 -0.421048
5.15 -0.415861
5.16 -0.410039
5.17 -0.40352
5.18 -0.39618
5.19 -0.38801
5.2 -0.378998
5.21 -0.369121
5.22 -0.358373
5.23 -0.346763
5.24 -0.334302
5.25 -0.320992
5.26 -0.306981
5.27 -0.292357
5.28 -0.277226
5.29 -0.261705
5.3 -0.245922
5.31 -0.230013
5.32 -0.214142
5.33 -0.198448
5.34 -0.183062
5.35 -0.168105
5.36 -0.153684
5.37 -0.139898
5.38 -0.126888
5.39 -0.114631
5.4 -0.103148
5.41 -0.0924389
5.42 -0.0824799
5.43 -0.0732285
5.44 -0.0646621
5.45 -0.0566825
5.46 -0.0491693
5.47 -0.0420288
5.48 -0.0351661
5.49 -0.0284897
5.5 -0.0219153
5.51 -0.0153665
5.52 -0.00878044
5.53 -0.00212215
5.54 0.00462292
5.55 0.0114483
5.56 0.0183263
5.57 0.0252053
5.58 0.0320059
5.59 0.0386421
5.6 0.0450169
5.61 0.0510261
5.62 0.0565631
5.63 0.0615238
5.64 0.0657289
5.65 0.0691548
5.66 0.0717443
5.67 0.073455
5.68 0.0742688
5.69 0.0741932
5.7 0.0732279
5.71 0.0714243
5.72 0.0689384
5.73 0.0658869
5.74 0.0624063
5.75 0.0586479
5.76 0.0547741
5.77 0.0509733
5.78 0.0474263
5.79 0.0442891
5.8 0.0417054
5.81 0.0398008
5.82 0.0386775
5.83 0.0384411
5.84 0.0391855
5.85 0.0408438
5.86 0.0433902
5.87 0.0467683
5.88 0.0508931
5.89 0.0556542
5.9 0.0609501
5.91 0.0665842
5.92 0.072381
5.93 0.078177
5.94 0.0838124
5.95 0.0891367
5.96 0.0940021
5.97 0.0982413
5.98 0.101817
5.99 0.104678
6 0.106801
6.01 0.1082
6.02 0.108917
6.03 0.108989
6.04 0.108556
6.05 0.107774
6.06 0.106794
6.07 0.105774
6.08 0.104882
6.09 0.104288
6.1 0.104209
6.11 0.104749
6.12 0.106024
6.13 0.108125
6.14 0.111108
6.15 0.115
6.16 0.119843
6.17 0.125568
6.18 0.132035
6.19 0.139119
6.2 0.146666
6.21 0.154498
6.22 0.162418
6.23 0.170176
6.24 0.177549
6.25 0.184325
6.26 0.190299
6.27 0.195285
6.28 0.199117
6.29 0.201584
6.3 0.202554
6.31 0.202051
6.32 0.200053
6.33 0.196574
6.34 0.191668
6.35 0.185422
6.36 0.177842
6.37 0.169211
6.38 0.159716
6.39 0.149549
6.4 0.138907
6.41 0.127992
6.42 0.117007
6.43 0.106169
6.44 0.0956462
6.45 0.085585
6.46 0.076105
6.47 0.0672977
6.48 0.059225
6.49 0.051991
6.5 0.0455361
6.51 0.0398087
6.52 0.034749
6.53 0.0302759
6.54 0.0262911
6.55 0.0226915
6.56 0.0193567
6.57 0.0161354
6.58 0.0129115
6.59 0.00957791
6.6 0.00604025
6.61 0.00222084
6.62 -0.00197024
6.63 -0.00655358
6.64 -0.0115255
6.65 -0.0168714
6.66 -0.0225549
6.67 -0.0285194
6.68 -0.0346931
6.69 -0.0409832
6.7 -0.0472683
6.71 -0.0534395
6.72 -0.0593857
6.73 -0.0649971
6.74 -0.0701692
6.75 -0.0747611
6.76 -0.0786943
6.77 -0.0819273
6.78 -0.084411
6.79 -0.0861131
6.8 -0.087019
6.81 -0.0871247
6.82 -0.0863749
6.83 -0.0848924
6.84 -0.0827252
6.85 -0.0799306
6.86 -0.0765719
6.87 -0.0727158
6.88 -0.0684073
6.89 -0.0637225
6.9 -0.0587429
6.91 -0.0535185
6.92 -0.0480899
6.93 -0.0424872
6.94 -0.0367291
6.95 -0.0308057
6.96 -0.0247272
6.97 -0.0184773
6.98 -0.0120312
6.99 -0.00535725
7 0.0015809
7.01 0.00883916
7.02 0.0164675
7.03 0.0244809
7.04 0.0329098
7.05 0.0417779
7.06 0.0511002
7.07 0.0608821
7.08 0.0711632
7.09 0.0818821
7.1 0.0930011
7.11 0.104478
7.12 0.116261
7.13 0.128288
7.14 0.140494
7.15 0.152797
7.16 0.165103
7.17 0.17733
7.18 0.189397
7.19 0.201221
7.2 0.212725
7.21 0.223793
7.22 0.234375
7.23 0.244422
7.24 0.253881
7.25 0.262704
7.26 0.270853
7.27 0.278274
7.28 0.284892
7.29 0.290751
7.3 0.295834
7.31 0.300129
7.32 0.303625
7.33 0.306312
7.34 0.308115
7.35 0.30906
7.36 0.309168
7.37 0.308426
7.38 0.306825
7.39 0.30435
7.4 0.300972
7.41 0.296603
7.42 0.291318
7.43 0.285105
7.44 0.277957
7.45 0.269868
7.46 0.260836
7.47 0.250801
7.48 0.239796
7.49 0.227886
7.5 0.215095
7.51 0.201458
7.52 0.187017
7.53 0.171819
7.54 0.155856
7.55 0.139278
7.56 0.122162
7.57 0.104589
7.58 0.0866457
7.59 0.0684256
7.6 0.0500204
7.61 0.0315461
7.62 0.0131147
7.63 -0.00517066
7.64 -0.0232068
7.65 -0.0408918
7.66 -0.0581256
7.67 -0.0747392
7.68 -0.09069
7.69 -0.105894
7.7 -0.12027
7.71 -0.133743
7.72 -0.146247
7.73 -0.157671
7.74 -0.167936
7.75 -0.177076
7.76 -0.185065
7.77 -0.191884
7.78 -0.197529
7.79 -0.202007
7.8 -0.205221
7.81 -0.207304
7.82 -0.208318
7.83 -0.208319
7.84 -0.207372
7.85 -0.205551
7.86 -0.202915
7.87 -0.199536
7.88 -0.195574
7.89 -0.19113
7.9 -0.186307
7.91 -0.181205
7.92 -0.175927
7.93 -0.170567
7.94 -0.165231
7.95 -0.16
7.96 -0.154944
7.97 -0.150121
7.98 -0.145577
7.99 -0.141355
8 -0.137499
8.01 -0.133982
8.02 -0.130797
8.03 -0.127925
8.04 -0.125335
8.05 -0.12299
8.06 -0.120857
8.07 -0.118872
8.08 -0.116977
8.09 -0.115121
8.1 -0.113257
8.11 -0.111343
8.12 -0.109341
8.13 -0.107211
8.14 -0.10495
8.15 -0.102552
8.16 -0.100025
8.17 -0.0973838
8.18 -0.0946562
8.19 -0.0918764
8.2 -0.089094
8.21 -0.0863588
8.22 -0.0837204
8.23 -0.0812276
8.24 -0.0789264
8.25 -0.0768581
8.26 -0.075087
8.27 -0.073605
8.28 -0.0724192
8.29 -0.0715229
8.3 -0.0708954
8.31 -0.0705015
8.32 -0.0702984
8.33 -0.0702127
8.34 -0.0701569
8.35 -0.0700453
8.36 -0.0697861
8.37 -0.0692843
8.38 -0.0684448
8.39 -0.0671194
8.4 -0.0652601
8.41 -0.0627987
8.42 -0.0596772
8.43 -0.0558541
8.44 -0.0513062
8.45 -0.0459976
8.46 -0.0399324
8.47 -0.0332062
8.48 -0.025882
8.49 -0.0180413
8.5 -0.00978139
8.51 -0.00121289
8.52 0.00754917
8.53 0.0163479
8.54 0.0250506
8.55 0.0335304
8.56 0.0416674
8.57 0.0493519
8.58 0.0564664
8.59 0.0628931
8.6 0.0686246
8.61 0.073628
8.62 0.0778922
8.63 0.0814277
8.64 0.0842663
8.65 0.0864085
8.66 0.0879704
8.67 0.0890561
8.68 0.0897601
8.69 0.0901824
8.7 0.0904244
8.71 0.0905848
8.72 0.0907666
8.73 0.0910528
8.74 0.0915054
8.75 0.0921687
8.76 0.0930669
8.77 0.0942036
8.78 0.0955743
8.79 0.097123
8.8 0.0987763
8.81 0.100453
8.82 0.102056
8.83 0.103478
8.84 0.1046
8.85 0.105253
8.86 0.105353
8.87 0.104792
8.88 0.103474
8.89 0.101316
8.9 0.0982514
8.91 0.0941721
8.92 0.0890673
8.93 0.0829926
8.94 0.0759772
8.95 0.0680717
8.96 0.0593475
8.97 0.0498933
8.98 0.0397548
8.99 0.0291324
9 0.0181506
9.01 0.00693545
9.02 -0.00438871
9.03 -0.0157039
9.04 -0.02689
9.05 -0.0378382
9.06 -0.0484827
9.07 -0.058768
9.08 -0.0686581
9.09 -0.0781367
9.1 -0.0872072
9.11 -0.0958537
9.12 -0.104158
9.13 -0.112177
9.14 -0.119976
9.15 -0.127621
9.16 -0.135185
9.17 -0.142738
9.18 -0.150351
9.19 -0.158072
9.2 -0.165938
9.21 -0.173967
9.22 -0.18216
9.23 -0.190499
9.24 -0.19895
9.25 -0.20744
9.26 -0.215886
9.27 -0.224196
9.28 -0.232262
9.29 -0.239971
9.3 -0.247184
9.31 -0.253732
9.32 -0.259541
9.33 -0.264506
9.34 -0.268531
9.35 -0.271536
9.36 -0.273461
9.37 -0.274168
9.38 -0.273697
9.39 -0.272096
9.4 -0.269395
9.41 -0.265648
9.42 -0.260923
9.43 -0.255293
9.44 -0.248812
9.45 -0.241675
9.46 -0.233995
9.47 -0.225888
9.48 -0.217464
9.49 -0.208823
9.5 -0.200054
9.51 -0.191241
9.52 -0.182443
9.53 -0.173692
9.54 -0.165
9.55 -0.156361
9.56 -0.147747
9.57 -0.139103
9.58 -0.130365
9.59 -0.121455
9.6 -0.112291
9.61 -0.102784
9.62 -0.0928464
9.63 -0.0823577
9.64 -0.071236
9.65 -0.0594496
9.66 -0.0469541
9.67 -0.0337232
9.68 -0.0197507
9.69 -0.00505215
9.7 0.0104085
9.71 0.0264848
9.72 0.043092
9.73 0.0601291
9.74 0.0774805
9.75 0.0950188
9.76 0.112604
9.77 0.130076
9.78 0.147293
9.79 0.164124
9.8 0.180444
9.81 0.196143
9.82 0.211125
9.83 0.225222
9.84 0.238446
9.85 0.250773
9.86 0.262191
9.87 0.272707
9.88 0.282344
9.89 0.291113
9.9 0.299049
9.91 0.306283
9.92 0.312889
9.93 0.318942
9.94 0.324518
9.95 0.329688
9.96 0.33449
9.97 0.339005
9.98 0.343279
9.99 0.347336
10 0.351185
10.01 0.354819
10.02 0.358211
10.03 0.361302
10.04 0.364066
10.05 0.366445
10.06 0.368374
10.07 0.369788
10.08 0.370619
10.09 0.370749
10.1 0.370147
10.11 0.368792
10.12 0.366655
10.13 0.363723
10.14 0.359997
10.15 0.355485
10.16 0.350172
10.17 0.344195
10.18 0.33763
10.19 0.330568
10.2 0.32311
10.21 0.31537
10.22 0.307462
10.23 0.299528
10.24 0.291694
10.25 0.284075
10.26 0.276775
10.27 0.269889
10.28 0.263501
10.29 0.257737
10.3 0.252582
10.31 0.248055
10.32 0.244159
10.33 0.240873
10.34 0.23816
10.35 0.235992
10.36 0.234283
10.37 0.232916
10.38 0.231794
10.39 0.230812
10.4 0.22986
10.41 0.22883
10.42 0.227579
10.43 0.226016
10.44 0.224047
10.45 0.221587
10.46 0.218565
10.47 0.214918
10.48 0.210565
10.49 0.205457
10.5 0.199624
10.51 0.193064
10.52 0.185784
10.53 0.177806
10.54 0.169158
10.55 0.159817
10.56 0.149886
10.57 0.139422
10.58 0.128475
10.59 0.117096
10.6 0.105332
10.61 0.0932219
10.62 0.0808021
10.63 0.0681384
10.64 0.0552665
10.65 0.0422176
10.66 0.0290191
10.67 0.0156947
10.68 0.00225729
10.69 -0.0112665
10.7 -0.0248579
10.71 -0.0385018
10.72 -0.0521832
10.73 -0.0658866
10.74 -0.0795954
10.75 -0.0932886
10.76 -0.106946
10.77 -0.120547
10.78 -0.134069
10.79 -0.147488
10.8 -0.160781
10.81 -0.173908
10.82 -0.186851
10.83 -0.199593
10.84 -0.212115
10.85 -0.224401
10.86 -0.236437
10.87 -0.248211
10.88 -0.259693
10.89 -0.270912
10.9 -0.281871
10.91 -0.292578
10.92 -0.303045
10.93 -0.313286
10.94 -0.323303
10.95 -0.333118
10.96 -0.342758
10.97 -0.352237
10.98 -0.361565
10.99 -0.37075
11 -0.379793
11.01 -0.388675
11.02 -0.397401
11.03 -0.405951
11.04 -0.414302
11.05 -0.422422
11.06 -0.430271
11.07 -0.437786
11.08 -0.444909
11.09 -0.451605
11.1 -0.457818
11.11 -0.463491
11.12 -0.468567
11.13 -0.472992
11.14 -0.476631
11.15 -0.479507
11.16 -0.481585
11.17 -0.482834
11.18 -0.483231
11.19 -0.482759
11.2 -0.481372
11.21 -0.479053
11.22 -0.475878
11.23 -0.471868
11.24 -0.467054
11.25 -0.461469
11.26 -0.455155
11.27 -0.448093
11.28 -0.44039
11.29 -0.432107
11.3 -0.423291
11.31 -0.413987
11.32 -0.404237
11.33 -0.394066
11.34 -0.383493
11.35 -0.372576
11.36 -0.361335
11.37 -0.349782
11.38 -0.337926
11.39 -0.325768
11.4 -0.313277
11.41 -0.300464
11.42 -0.287327
11.43 -0.273853
11.44 -0.260031
11.45 -0.24585
11.46 -0.231292
11.47 -0.216325
11.48 -0.200985
11.49 -0.185277
11.5 -0.169214
11.51 -0.152814
11.52 -0.136105
11.53 -0.1191
11.54 -0.101857
11.55 -0.0844347
11.56 -0.0668857
11.57 -0.0492679
11.58 -0.0316425
11.59 -0.0140747
11.6 0.00335223
11.61 0.0205814
11.62 0.037551
11.63 0.0542021
11.64 0.0704801
11.65 0.0863358
11.66 0.101692
11.67 0.116516
11.68 0.130804
11.69 0.144535
11.7 0.157697
11.71 0.170284
11.72 0.182295
11.73 0.193674
11.74 0.2045
11.75 0.214789
11.76 0.224559
11.77 0.233832
11.78 0.242627
11.79 0.250942
11.8 0.258793
11.81 0.266223
11.82 0.273243
11.83 0.279857
11.84 0.286069
11.85 0.291872
11.86 0.297211
11.87 0.302109
11.88 0.306549
11.89 0.310505
11.9 0.313947
11.91 0.316843
11.92 0.319132
11.93 0.320753
11.94 0.321715
11.95 0.321981
11.96 0.32152
11.97 0.320301
11.98 0.318298
11.99 0.315408
12 0.311675
12.01 0.307103
12.02 0.301688
12.03 0.295429
12.04 0.288331
12.05 0.280377
12.06 0.271541
12.07 0.261914
12.08 0.251519
12.09 0.24038
12.1 0.228528
12.11 0.21599
12.12 0.202747
12.13 0.188868
12.14 0.174408
12.15 0.159399
12.16 0.143875
12.17 0.127868
12.18 0.111406
