# xPDFsuite Configuration #
[PDF]
wavelength = 0.1
dataformat = QA
inputfile = BiMsol6_insitu_700 C-00502.xy
backgroundfile = Quartz2mm-dist500-00000.xy
mode = xray
bgscale = 0.0042
composition = Bi2Fe4O9
outputtype = gr
qmaxinst = 24.998449118
qmin = 0.1
qmax = 21.4986662415
rmax = 80.0
rmin = 0.0
rstep = 0.01
rpoly = 0.9

[Misc]
inputdir = C:/Data/Seafile/CPH/Beamtime/Desy Oct 20/In situ data/Processed/BiMsol6/PDF
savedir = C:/Data/Seafile/CPH/Beamtime/Desy Oct 20/In situ data/PDF/BiMsol6
backgroundfilefull = C:/Data/Seafile/CPH/Beamtime/Desy Oct 20/In situ data/Processed/Standard_Empty_Cap/Quartz2mm-dist500-00000.xy

#### start data
#S 1
#L r($\AA$)  G($\AA^{-2}$)
0 0
0.01 0.00700875
0.02 0.0136274
0.03 0.0195218
0.04 0.0243919
0.05 0.0279852
0.06 0.0301086
0.07 0.0305497
0.08 0.0292443
0.09 0.0263439
0.1 0.0219719
0.11 0.0163216
0.12 0.00964764
0.13 0.00225509
0.14 -0.00551566
0.15 -0.0132274
0.16 -0.0205122
0.17 -0.0270237
0.18 -0.0324501
0.19 -0.0365285
0.2 -0.038988
0.21 -0.0396391
0.22 -0.0385769
0.23 -0.0358625
0.24 -0.0316405
0.25 -0.0261343
0.26 -0.0196375
0.27 -0.0124797
0.28 -0.00515415
0.29 0.00190079
0.3 0.00825883
0.31 0.0135124
0.32 0.0172922
0.33 0.0192236
0.34 0.0189367
0.35 0.0164691
0.36 0.0118026
0.37 0.00502797
0.38 -0.0036532
0.39 -0.0139312
0.4 -0.0254515
0.41 -0.0375763
0.42 -0.0496779
0.43 -0.0611182
0.44 -0.0712349
0.45 -0.0793657
0.46 -0.0848099
0.47 -0.0866684
0.48 -0.0847269
0.49 -0.0786109
0.5 -0.0680714
0.51 -0.0530003
0.52 -0.0334411
0.53 -0.00930979
0.54 0.0188375
0.55 0.0502611
0.56 0.0842733
0.57 0.120067
0.58 0.156739
0.59 0.193302
0.6 0.228501
0.61 0.261342
0.62 0.29083
0.63 0.316031
0.64 0.336107
0.65 0.350338
0.66 0.357728
0.67 0.357873
0.68 0.350956
0.69 0.336989
0.7 0.316177
0.71 0.288909
0.72 0.255752
0.73 0.216937
0.74 0.174012
0.75 0.127989
0.76 0.0799393
0.77 0.0309751
0.78 -0.0177851
0.79 -0.0651286
0.8 -0.109842
0.81 -0.151112
0.82 -0.188148
0.83 -0.220306
0.84 -0.247104
0.85 -0.268229
0.86 -0.282953
0.87 -0.291877
0.88 -0.295339
0.89 -0.293752
0.9 -0.287662
0.91 -0.277729
0.92 -0.264614
0.93 -0.249158
0.94 -0.232434
0.95 -0.215278
0.96 -0.198493
0.97 -0.18282
0.98 -0.168921
0.99 -0.15761
1 -0.1492
1.01 -0.14391
1.02 -0.141887
1.03 -0.143142
1.04 -0.147565
1.05 -0.155001
1.06 -0.16522
1.07 -0.177532
1.08 -0.191441
1.09 -0.206419
1.1 -0.221918
1.11 -0.237401
1.12 -0.252273
1.13 -0.266042
1.14 -0.278348
1.15 -0.288886
1.16 -0.297438
1.17 -0.303879
1.18 -0.308138
1.19 -0.310116
1.2 -0.310187
1.21 -0.308576
1.22 -0.305569
1.23 -0.301487
1.24 -0.296681
1.25 -0.291504
1.26 -0.28636
1.27 -0.281576
1.28 -0.277426
1.29 -0.274127
1.3 -0.271839
1.31 -0.270659
1.32 -0.270723
1.33 -0.271844
1.34 -0.273898
1.35 -0.276706
1.36 -0.280046
1.37 -0.283663
1.38 -0.287268
1.39 -0.290539
1.4 -0.293216
1.41 -0.295063
1.42 -0.295882
1.43 -0.295524
1.44 -0.293896
1.45 -0.290825
1.46 -0.286502
1.47 -0.281046
1.48 -0.27463
1.49 -0.267479
1.5 -0.259859
1.51 -0.252077
1.52 -0.244497
1.53 -0.237446
1.54 -0.231226
1.55 -0.226114
1.56 -0.222341
1.57 -0.220089
1.58 -0.219649
1.59 -0.220924
1.6 -0.223846
1.61 -0.228299
1.62 -0.234099
1.63 -0.240995
1.64 -0.248696
1.65 -0.256815
1.66 -0.264902
1.67 -0.272553
1.68 -0.279363
1.69 -0.284947
1.7 -0.288949
1.71 -0.290867
1.72 -0.290549
1.73 -0.287885
1.74 -0.282788
1.75 -0.275255
1.76 -0.265361
1.77 -0.253213
1.78 -0.238952
1.79 -0.223089
1.8 -0.205991
1.81 -0.18806
1.82 -0.169725
1.83 -0.151421
1.84 -0.133648
1.85 -0.11684
1.86 -0.101334
1.87 -0.0874307
1.88 -0.0753679
1.89 -0.0653114
1.9 -0.0573808
1.91 -0.0517614
1.92 -0.0481484
1.93 -0.0463806
1.94 -0.0462328
1.95 -0.0474261
1.96 -0.0496397
1.97 -0.0525446
1.98 -0.0557141
1.99 -0.0587617
2 -0.0613536
2.01 -0.0631917
2.02 -0.0640263
2.03 -0.0636614
2.04 -0.0618224
2.05 -0.0586187
2.06 -0.0540958
2.07 -0.0483736
2.08 -0.0416422
2.09 -0.0341549
2.1 -0.0262146
2.11 -0.0182301
2.12 -0.0106096
2.13 -0.00374743
2.14 0.00196721
2.15 0.00616492
2.16 0.00851045
2.17 0.00845598
2.18 0.00598132
2.19 0.00096226
2.2 -0.00666529
2.21 -0.016886
2.22 -0.0296046
2.23 -0.0447426
2.24 -0.0620635
2.25 -0.0810781
2.26 -0.101411
2.27 -0.122648
2.28 -0.144352
2.29 -0.166073
2.3 -0.187283
2.31 -0.207549
2.32 -0.2265
2.33 -0.243803
2.34 -0.259183
2.35 -0.272432
2.36 -0.283331
2.37 -0.291707
2.38 -0.297778
2.39 -0.301647
2.4 -0.303479
2.41 -0.303497
2.42 -0.301974
2.43 -0.299138
2.44 -0.295438
2.45 -0.291256
2.46 -0.286935
2.47 -0.282802
2.48 -0.279157
2.49 -0.276289
2.5 -0.274509
2.51 -0.273897
2.52 -0.274552
2.53 -0.27652
2.54 -0.279787
2.55 -0.284288
2.56 -0.289984
2.57 -0.296652
2.58 -0.304051
2.59 -0.311959
2.6 -0.320144
2.61 -0.328367
2.62 -0.336389
2.63 -0.343928
2.64 -0.350817
2.65 -0.356895
2.66 -0.362034
2.67 -0.366142
2.68 -0.369167
2.69 -0.371027
2.7 -0.371769
2.71 -0.371516
2.72 -0.370362
2.73 -0.368424
2.74 -0.365836
2.75 -0.362741
2.76 -0.359262
2.77 -0.355596
2.78 -0.351876
2.79 -0.348216
2.8 -0.344714
2.81 -0.341443
2.82 -0.33847
2.83 -0.335821
2.84 -0.333473
2.85 -0.331395
2.86 -0.32954
2.87 -0.327844
2.88 -0.32623
2.89 -0.324605
2.9 -0.322874
2.91 -0.320952
2.92 -0.318762
2.93 -0.316235
2.94 -0.313315
2.95 -0.309941
2.96 -0.306066
2.97 -0.301716
2.98 -0.296892
2.99 -0.291609
3 -0.285888
3.01 -0.279755
3.02 -0.273204
3.03 -0.266287
3.04 -0.259028
3.05 -0.251431
3.06 -0.243484
3.07 -0.235161
3.08 -0.226402
3.09 -0.217109
3.1 -0.207235
3.11 -0.19668
3.12 -0.185333
3.13 -0.173076
3.14 -0.159786
3.15 -0.145232
3.16 -0.129347
3.17 -0.112072
3.18 -0.0933263
3.19 -0.0730562
3.2 -0.0512363
3.21 -0.0278429
3.22 -0.00281702
3.23 0.0236019
3.24 0.0512841
3.25 0.080063
3.26 0.109737
3.27 0.140074
3.28 0.170823
3.29 0.201647
3.3 0.232232
3.31 0.262274
3.32 0.291468
3.33 0.319517
3.34 0.346125
3.35 0.370839
3.36 0.393595
3.37 0.414206
3.38 0.432519
3.39 0.448424
3.4 0.461852
3.41 0.47262
3.42 0.480771
3.43 0.486504
3.44 0.489914
3.45 0.491128
3.46 0.490297
3.47 0.487591
3.48 0.48302
3.49 0.476987
3.5 0.469689
3.51 0.461314
3.52 0.452043
3.53 0.442041
3.54 0.43144
3.55 0.420384
3.56 0.40902
3.57 0.397439
3.58 0.385716
3.59 0.373907
3.6 0.362058
3.61 0.3502
3.62 0.338363
3.63 0.326566
3.64 0.314827
3.65 0.303169
3.66 0.291619
3.67 0.280221
3.68 0.269033
3.69 0.258104
3.7 0.247501
3.71 0.237306
3.72 0.227608
3.73 0.218503
3.74 0.210168
3.75 0.202672
3.76 0.196102
3.77 0.190557
3.78 0.18613
3.79 0.182902
3.8 0.180982
3.81 0.180504
3.82 0.181388
3.83 0.183648
3.84 0.187277
3.85 0.192252
3.86 0.198528
3.87 0.206144
3.88 0.214953
3.89 0.224821
3.9 0.235648
3.91 0.247325
3.92 0.259741
3.93 0.272789
3.94 0.286381
3.95 0.300348
3.96 0.314582
3.97 0.328984
3.98 0.343458
3.99 0.357918
4 0.372272
4.01 0.386437
4.02 0.400351
4.03 0.413949
4.04 0.427172
4.05 0.439957
4.06 0.452242
4.07 0.463898
4.08 0.474918
4.09 0.485231
4.1 0.494767
4.11 0.503449
4.12 0.5112
4.13 0.517873
4.14 0.52338
4.15 0.5277
4.16 0.530759
4.17 0.532487
4.18 0.532825
4.19 0.531721
4.2 0.528967
4.21 0.524702
4.22 0.518924
4.23 0.511647
4.24 0.502897
4.25 0.492718
4.26 0.481104
4.27 0.468119
4.28 0.45394
4.29 0.438666
4.3 0.422399
4.31 0.405244
4.32 0.38731
4.33 0.368641
4.34 0.349405
4.35 0.329697
4.36 0.309597
4.37 0.289169
4.38 0.268463
4.39 0.247511
4.4 0.226329
4.41 0.204944
4.42 0.183355
4.43 0.161552
4.44 0.13952
4.45 0.117241
4.46 0.0946718
4.47 0.0718155
4.48 0.0486751
4.49 0.0252572
4.5 0.00158124
4.51 -0.0223181
4.52 -0.0463925
4.53 -0.0705693
4.54 -0.0947443
4.55 -0.118812
4.56 -0.142655
4.57 -0.16614
4.58 -0.189131
4.59 -0.211419
4.6 -0.23287
4.61 -0.253367
4.62 -0.27278
4.63 -0.290991
4.64 -0.307898
4.65 -0.323396
4.66 -0.337298
4.67 -0.349721
4.68 -0.360662
4.69 -0.370149
4.7 -0.378234
4.71 -0.384993
4.72 -0.390451
4.73 -0.394771
4.74 -0.398152
4.75 -0.400741
4.76 -0.402695
4.77 -0.40417
4.78 -0.40532
4.79 -0.406287
4.8 -0.407235
4.81 -0.408278
4.82 -0.409512
4.83 -0.41101
4.84 -0.412824
4.85 -0.415003
4.86 -0.41755
4.87 -0.420423
4.88 -0.42358
4.89 -0.426963
4.9 -0.430501
4.91 -0.434112
4.92 -0.437695
4.93 -0.441151
4.94 -0.444389
4.95 -0.447326
4.96 -0.449882
4.97 -0.451991
4.98 -0.453572
4.99 -0.454567
5 -0.454986
5.01 -0.454819
5.02 -0.454068
5.03 -0.452747
5.04 -0.450879
5.05 -0.448446
5.06 -0.44553
5.07 -0.442178
5.08 -0.438425
5.09 -0.434305
5.1 -0.429845
5.11 -0.425056
5.12 -0.419936
5.13 -0.414511
5.14 -0.408774
5.15 -0.402708
5.16 -0.39629
5.17 -0.38949
5.18 -0.382236
5.19 -0.374515
5.2 -0.366307
5.21 -0.357584
5.22 -0.348326
5.23 -0.338523
5.24 -0.328163
5.25 -0.317225
5.26 -0.305793
5.27 -0.293913
5.28 -0.281645
5.29 -0.269063
5.3 -0.256254
5.31 -0.243311
5.32 -0.230357
5.33 -0.217507
5.34 -0.204869
5.35 -0.192552
5.36 -0.180655
5.37 -0.16928
5.38 -0.158569
5.39 -0.148529
5.4 -0.139207
5.41 -0.130629
5.42 -0.122808
5.43 -0.115736
5.44 -0.109432
5.45 -0.103837
5.46 -0.0988577
5.47 -0.0944255
5.48 -0.0904653
5.49 -0.0868975
5.5 -0.0836417
5.51 -0.0806366
5.52 -0.0777764
5.53 -0.0749977
5.54 -0.0722477
5.55 -0.069486
5.56 -0.0666851
5.57 -0.0638283
5.58 -0.0609167
5.59 -0.0579687
5.6 -0.0550099
5.61 -0.0520737
5.62 -0.0491992
5.63 -0.0464283
5.64 -0.0438223
5.65 -0.0414078
5.66 -0.039213
5.67 -0.0372577
5.68 -0.03555
5.69 -0.0340844
5.7 -0.0328493
5.71 -0.0318079
5.72 -0.0308909
5.73 -0.0300318
5.74 -0.0291528
5.75 -0.028167
5.76 -0.0269818
5.77 -0.0254635
5.78 -0.0235302
5.79 -0.0210999
5.8 -0.0180937
5.81 -0.0144451
5.82 -0.0101031
5.83 -0.00501012
5.84 0.000883451
5.85 0.00750243
5.86 0.0148116
5.87 0.0227552
5.88 0.0312577
5.89 0.0402269
5.9 0.049576
5.91 0.0591511
5.92 0.0688149
5.93 0.0784389
5.94 0.0878971
5.95 0.0970701
5.96 0.105838
5.97 0.11406
5.98 0.121703
5.99 0.128717
6 0.13507
6.01 0.140756
6.02 0.14579
6.03 0.150166
6.04 0.153971
6.05 0.157308
6.06 0.160267
6.07 0.162945
6.08 0.165446
6.09 0.167873
6.1 0.170338
6.11 0.172935
6.12 0.175737
6.13 0.1788
6.14 0.182161
6.15 0.185836
6.16 0.189835
6.17 0.194116
6.18 0.198605
6.19 0.203221
6.2 0.207869
6.21 0.212435
6.22 0.216796
6.23 0.220768
6.24 0.224244
6.25 0.227092
6.26 0.229191
6.27 0.230428
6.28 0.230707
6.29 0.229891
6.3 0.227906
6.31 0.22479
6.32 0.220539
6.33 0.215171
6.34 0.20873
6.35 0.201277
6.36 0.192808
6.37 0.183521
6.38 0.173542
6.39 0.162993
6.4 0.151999
6.41 0.140688
6.42 0.12918
6.43 0.117603
6.44 0.106073
6.45 0.0946786
6.46 0.0834945
6.47 0.0725775
6.48 0.0619678
6.49 0.0517207
6.5 0.0418172
6.51 0.0322383
6.52 0.0229599
6.53 0.0139483
6.54 0.0051623
6.55 -0.00343993
6.56 -0.0119045
6.57 -0.0202916
6.58 -0.0286415
6.59 -0.0369883
6.6 -0.045357
6.61 -0.0537626
6.62 -0.0622122
6.63 -0.0706935
6.64 -0.0791835
6.65 -0.0876503
6.66 -0.0960526
6.67 -0.104341
6.68 -0.112457
6.69 -0.120315
6.7 -0.127871
6.71 -0.135064
6.72 -0.141836
6.73 -0.148133
6.74 -0.153906
6.75 -0.15907
6.76 -0.163601
6.77 -0.167501
6.78 -0.170753
6.79 -0.173345
6.8 -0.175275
6.81 -0.176539
6.82 -0.177075
6.83 -0.176964
6.84 -0.176214
6.85 -0.174833
6.86 -0.172826
6.87 -0.170194
6.88 -0.166896
6.89 -0.162927
6.9 -0.158309
6.91 -0.153023
6.92 -0.147049
6.93 -0.140362
6.94 -0.132935
6.95 -0.12465
6.96 -0.115566
6.97 -0.105663
6.98 -0.0949252
6.99 -0.0833435
7 -0.0709164
7.01 -0.0576114
7.02 -0.0434384
7.03 -0.028486
7.04 -0.0127985
7.05 0.00356895
7.06 0.0205511
7.07 0.0380734
7.08 0.0560915
7.09 0.0744655
7.1 0.0930958
7.11 0.111887
7.12 0.130744
7.13 0.149573
7.14 0.168279
7.15 0.18676
7.16 0.204952
7.17 0.222789
7.18 0.240216
7.19 0.257185
7.2 0.273656
7.21 0.289548
7.22 0.30487
7.23 0.319617
7.24 0.333777
7.25 0.347336
7.26 0.360281
7.27 0.37258
7.28 0.384171
7.29 0.395085
7.3 0.405288
7.31 0.41474
7.32 0.423392
7.33 0.431187
7.34 0.437978
7.35 0.443726
7.36 0.448385
7.37 0.451874
7.38 0.454109
7.39 0.45501
7.4 0.454475
7.41 0.4523
7.42 0.44857
7.43 0.443239
7.44 0.436274
7.45 0.42766
7.46 0.417398
7.47 0.405397
7.48 0.391743
7.49 0.376578
7.5 0.359982
7.51 0.342057
7.52 0.322917
7.53 0.302688
7.54 0.281429
7.55 0.259409
7.56 0.236788
7.57 0.213726
7.58 0.190383
7.59 0.166918
7.6 0.143496
7.61 0.120285
7.62 0.0974163
7.63 0.0750136
7.64 0.0531892
7.65 0.0320429
7.66 0.0116619
7.67 -0.00777839
7.68 -0.0263015
7.69 -0.0438641
7.7 -0.0604287
7.71 -0.0759673
7.72 -0.0904599
7.73 -0.103843
7.74 -0.116086
7.75 -0.127263
7.76 -0.137377
7.77 -0.146435
7.78 -0.154446
7.79 -0.161423
7.8 -0.167282
7.81 -0.172128
7.82 -0.176001
7.83 -0.178927
7.84 -0.180936
7.85 -0.182062
7.86 -0.182315
7.87 -0.181712
7.88 -0.180371
7.89 -0.178347
7.9 -0.175701
7.91 -0.172498
7.92 -0.168805
7.93 -0.164663
7.94 -0.160178
7.95 -0.155433
7.96 -0.150498
7.97 -0.145441
7.98 -0.140324
7.99 -0.135207
8 -0.130149
8.01 -0.12519
8.02 -0.120363
8.03 -0.115693
8.04 -0.111196
8.05 -0.106878
8.06 -0.102753
8.07 -0.0988045
8.08 -0.0950124
8.09 -0.0913586
8.1 -0.0878227
8.11 -0.0843836
8.12 -0.0810218
8.13 -0.0777222
8.14 -0.0744636
8.15 -0.0712375
8.16 -0.0680405
8.17 -0.0648757
8.18 -0.0617521
8.19 -0.0586899
8.2 -0.0557121
8.21 -0.0528416
8.22 -0.0501069
8.23 -0.0475377
8.24 -0.0451633
8.25 -0.043012
8.26 -0.0411361
8.27 -0.0395257
8.28 -0.0381893
8.29 -0.0371266
8.3 -0.0363279
8.31 -0.0357733
8.32 -0.0354429
8.33 -0.0352903
8.34 -0.0352524
8.35 -0.0352716
8.36 -0.0352847
8.37 -0.0352256
8.38 -0.035027
8.39 -0.0345937
8.4 -0.0338799
8.41 -0.0328344
8.42 -0.0314139
8.43 -0.0295868
8.44 -0.0273348
8.45 -0.0246353
8.46 -0.0214927
8.47 -0.0179693
8.48 -0.0141115
8.49 -0.00997953
8.5 -0.00564592
8.51 -0.00119339
8.52 0.00328091
8.53 0.00766839
8.54 0.0118719
8.55 0.0157971
8.56 0.0193551
8.57 0.0224655
8.58 0.0250396
8.59 0.0269884
8.6 0.0283201
8.61 0.0290161
8.62 0.0290755
8.63 0.0285143
8.64 0.0273654
8.65 0.025635
8.66 0.0234246
8.67 0.0208243
8.68 0.0179149
8.69 0.0147809
8.7 0.0115071
8.71 0.00817561
8.72 0.00487177
8.73 0.00166243
8.74 -0.00140216
8.75 -0.0042863
8.76 -0.00697017
8.77 -0.00945051
8.78 -0.0117286
8.79 -0.013847
8.8 -0.0158614
8.81 -0.0178313
8.82 -0.0198261
8.83 -0.0219215
8.84 -0.0241993
8.85 -0.0267714
8.86 -0.0296904
8.87 -0.0330212
8.88 -0.0368176
8.89 -0.0411198
8.9 -0.0459526
8.91 -0.0513577
8.92 -0.0573134
8.93 -0.0637588
8.94 -0.070644
8.95 -0.0779042
8.96 -0.0854612
8.97 -0.093227
8.98 -0.101107
8.99 -0.108981
9 -0.116749
9.01 -0.124319
9.02 -0.131604
9.03 -0.138531
9.04 -0.145015
9.05 -0.151003
9.06 -0.156502
9.07 -0.161509
9.08 -0.16604
9.09 -0.170129
9.1 -0.173826
9.11 -0.177165
9.12 -0.180263
9.13 -0.183204
9.14 -0.186073
9.15 -0.188954
9.16 -0.191925
9.17 -0.195065
9.18 -0.198443
9.19 -0.202084
9.2 -0.206007
9.21 -0.210212
9.22 -0.214676
9.23 -0.219361
9.24 -0.224214
9.25 -0.229134
9.26 -0.234023
9.27 -0.238774
9.28 -0.243276
9.29 -0.247412
9.3 -0.251049
9.31 -0.254033
9.32 -0.256311
9.33 -0.257802
9.34 -0.258443
9.35 -0.25819
9.36 -0.257024
9.37 -0.254869
9.38 -0.251806
9.39 -0.247917
9.4 -0.243276
9.41 -0.237971
9.42 -0.232108
9.43 -0.225794
9.44 -0.219142
9.45 -0.212312
9.46 -0.205421
9.47 -0.198578
9.48 -0.191876
9.49 -0.185393
9.5 -0.179211
9.51 -0.173358
9.52 -0.167828
9.53 -0.162601
9.54 -0.157637
9.55 -0.152871
9.56 -0.148219
9.57 -0.143567
9.58 -0.138788
9.59 -0.133758
9.6 -0.128349
9.61 -0.122434
9.62 -0.115895
9.63 -0.108569
9.64 -0.100357
9.65 -0.0912279
9.66 -0.081134
9.67 -0.0700497
9.68 -0.0579745
9.69 -0.0449328
9.7 -0.0308753
9.71 -0.0159888
9.72 -0.000371363
9.73 0.0158639
9.74 0.0325913
9.75 0.0496761
9.76 0.0669829
9.77 0.0843525
9.78 0.101638
9.79 0.118716
9.8 0.135472
9.81 0.151808
9.82 0.167644
9.83 0.182853
9.84 0.197443
9.85 0.211401
9.86 0.224724
9.87 0.237426
9.88 0.249534
9.89 0.261065
9.9 0.272052
9.91 0.282587
9.92 0.29272
9.93 0.302495
9.94 0.311952
9.95 0.321123
9.96 0.330001
9.97 0.33861
9.98 0.346946
9.99 0.354985
10 0.362691
10.01 0.370015
10.02 0.376886
10.03 0.383199
10.04 0.388926
10.05 0.393997
10.06 0.398345
10.07 0.401911
10.08 0.404645
10.09 0.406434
10.1 0.407295
10.11 0.407257
10.12 0.406333
10.13 0.404556
10.14 0.401977
10.15 0.398652
10.16 0.394622
10.17 0.390058
10.18 0.385066
10.19 0.379763
10.2 0.374264
10.21 0.368687
10.22 0.363153
10.23 0.357782
10.24 0.352661
10.25 0.347868
10.26 0.343464
10.27 0.339494
10.28 0.335986
10.29 0.332993
10.3 0.33045
10.31 0.328322
10.32 0.326563
10.33 0.32511
10.34 0.323891
10.35 0.322832
10.36 0.321833
10.37 0.320799
10.38 0.319644
10.39 0.318287
10.4 0.316653
10.41 0.314674
10.42 0.312242
10.43 0.30935
10.44 0.305966
10.45 0.302068
10.46 0.297641
10.47 0.292682
10.48 0.287169
10.49 0.281103
10.5 0.274534
10.51 0.267478
10.52 0.259953
10.53 0.251973
10.54 0.24355
10.55 0.23465
10.56 0.225315
10.57 0.215549
10.58 0.205348
10.59 0.194701
10.6 0.183596
10.61 0.172002
10.62 0.159884
10.63 0.147269
10.64 0.13415
10.65 0.120526
10.66 0.106405
10.67 0.0918013
10.68 0.0767028
10.69 0.0611807
10.7 0.0452963
10.71 0.029109
10.72 0.0126875
10.73 -0.0038912
10.74 -0.0205435
10.75 -0.0371692
10.76 -0.0536738
10.77 -0.0699697
10.78 -0.0859736
10.79 -0.101609
10.8 -0.116809
10.81 -0.131475
10.82 -0.145583
10.83 -0.15913
10.84 -0.172108
10.85 -0.184529
10.86 -0.196417
10.87 -0.207807
10.88 -0.218723
10.89 -0.229282
10.9 -0.239561
10.91 -0.249639
10.92 -0.259599
10.93 -0.269521
10.94 -0.279489
10.95 -0.289576
10.96 -0.299833
10.97 -0.310296
10.98 -0.320987
10.99 -0.33191
11 -0.343049
11.01 -0.354384
11.02 -0.365834
11.03 -0.377326
11.04 -0.388772
11.05 -0.400074
11.06 -0.411123
11.07 -0.421776
11.08 -0.431901
11.09 -0.441406
11.1 -0.450186
11.11 -0.458142
11.12 -0.46519
11.13 -0.471258
11.14 -0.476176
11.15 -0.480013
11.16 -0.482764
11.17 -0.484435
11.18 -0.485049
11.19 -0.484644
11.2 -0.483231
11.21 -0.480864
11.22 -0.477684
11.23 -0.473771
11.24 -0.469202
11.25 -0.464058
11.26 -0.458411
11.27 -0.452288
11.28 -0.445784
11.29 -0.438948
11.3 -0.431805
11.31 -0.424368
11.32 -0.416637
11.33 -0.408586
11.34 -0.400169
11.35 -0.391372
11.36 -0.382152
11.37 -0.372459
11.38 -0.362243
11.39 -0.351456
11.4 -0.339995
11.41 -0.327858
11.42 -0.315038
11.43 -0.301526
11.44 -0.287322
11.45 -0.272445
11.46 -0.256913
11.47 -0.240743
11.48 -0.22406
11.49 -0.206942
11.5 -0.189479
11.51 -0.171769
11.52 -0.153915
11.53 -0.13603
11.54 -0.118235
11.55 -0.100632
11.56 -0.0833156
11.57 -0.0663725
11.58 -0.0498771
11.59 -0.0338988
11.6 -0.0185404
11.61 -0.00377717
11.62 0.0103758
11.63 0.0239175
11.64 0.0368592
11.65 0.0492236
11.66 0.0610089
11.67 0.0722687
11.68 0.0830742
11.69 0.0934705
11.7 0.103502
11.71 0.113208
11.72 0.122623
11.73 0.131748
11.74 0.140631
11.75 0.14928
11.76 0.157691
11.77 0.165852
11.78 0.173741
11.79 0.18131
11.8 0.188516
11.81 0.195335
11.82 0.201724
11.83 0.207641
11.84 0.213044
11.85 0.217897
11.86 0.222103
11.87 0.225696
11.88 0.228668
11.89 0.231016
11.9 0.232746
11.91 0.233873
11.92 0.234395
11.93 0.234333
11.94 0.233765
11.95 0.23273
11.96 0.231269
11.97 0.229419
11.98 0.227214
11.99 0.224652
12 0.221779
12.01 0.218608
12.02 0.215133
12.03 0.211338
12.04 0.207194
12.05 0.202643
12.06 0.197603
12.07 0.192042
12.08 0.185889
12.09 0.179069
12.1 0.171504
12.11 0.163118
12.12 0.153759
12.13 0.143407
12.14 0.132041
