# xPDFsuite Configuration #
[PDF]
wavelength = 0.1
dataformat = QA
inputfile = BiMsol6_insitu_700 C-00537.xy
backgroundfile = Quartz2mm-dist500-00000.xy
mode = xray
bgscale = 0.0042
composition = Bi2Fe4O9
outputtype = gr
qmaxinst = 24.998449118
qmin = 0.1
qmax = 21.4986662415
rmax = 80.0
rmin = 0.0
rstep = 0.01
rpoly = 0.9

[Misc]
inputdir = C:/Data/Seafile/CPH/Beamtime/Desy Oct 20/In situ data/Processed/BiMsol6/PDF
savedir = C:/Data/Seafile/CPH/Beamtime/Desy Oct 20/In situ data/PDF/BiMsol6
backgroundfilefull = C:/Data/Seafile/CPH/Beamtime/Desy Oct 20/In situ data/Processed/Standard_Empty_Cap/Quartz2mm-dist500-00000.xy

#### start data
#S 1
#L r($\AA$)  G($\AA^{-2}$)
0 0
0.01 0.00665159
0.02 0.0129277
0.03 0.0185069
0.04 0.0231008
0.05 0.0264674
0.06 0.0284219
0.07 0.0287623
0.08 0.0274297
0.09 0.0245722
0.1 0.020312
0.11 0.0148384
0.12 0.00839972
0.13 0.00129259
0.14 -0.00614999
0.15 -0.0135079
0.16 -0.0204269
0.17 -0.0265744
0.18 -0.0316523
0.19 -0.0354113
0.2 -0.0375953
0.21 -0.0380289
0.22 -0.0368132
0.23 -0.0340159
0.24 -0.0297861
0.25 -0.0243489
0.26 -0.0179969
0.27 -0.0110625
0.28 -0.00402615
0.29 0.00268471
0.3 0.00865522
0.31 0.013491
0.32 0.0168373
0.33 0.0183353
0.34 0.0176339
0.35 0.0147861
0.36 0.00978831
0.37 0.00274478
0.38 -0.00613125
0.39 -0.0165205
0.4 -0.0280536
0.41 -0.0400929
0.42 -0.0520131
0.43 -0.063179
0.44 -0.0729335
0.45 -0.0806227
0.46 -0.0855561
0.47 -0.0868454
0.48 -0.0842988
0.49 -0.0775587
0.5 -0.0663943
0.51 -0.0507159
0.52 -0.030585
0.53 -0.00594004
0.54 0.0226461
0.55 0.0544226
0.56 0.0886904
0.57 0.124634
0.58 0.161343
0.59 0.197827
0.6 0.232821
0.61 0.265348
0.62 0.294419
0.63 0.319112
0.64 0.3386
0.65 0.352179
0.66 0.358866
0.67 0.358278
0.68 0.350619
0.69 0.335918
0.7 0.314397
0.71 0.286461
0.72 0.252691
0.73 0.213341
0.74 0.169959
0.75 0.123565
0.76 0.0752329
0.77 0.0260754
0.78 -0.0227912
0.79 -0.0701554
0.8 -0.114812
0.81 -0.155963
0.82 -0.19283
0.83 -0.224782
0.84 -0.251351
0.85 -0.272239
0.86 -0.286732
0.87 -0.295448
0.88 -0.298734
0.89 -0.297012
0.9 -0.290837
0.91 -0.280874
0.92 -0.267788
0.93 -0.252422
0.94 -0.23584
0.95 -0.218871
0.96 -0.20231
0.97 -0.186887
0.98 -0.173251
0.99 -0.1622
1 -0.154031
1.01 -0.148949
1.02 -0.147084
1.03 -0.148436
1.04 -0.152881
1.05 -0.160251
1.06 -0.170304
1.07 -0.18235
1.08 -0.195896
1.09 -0.210414
1.1 -0.225362
1.11 -0.24021
1.12 -0.254372
1.13 -0.267376
1.14 -0.27888
1.15 -0.2886
1.16 -0.296337
1.17 -0.301987
1.18 -0.305503
1.19 -0.306814
1.2 -0.306305
1.21 -0.304221
1.22 -0.30086
1.23 -0.296555
1.24 -0.291662
1.25 -0.286552
1.26 -0.28162
1.27 -0.277184
1.28 -0.273505
1.29 -0.270789
1.3 -0.269177
1.31 -0.268747
1.32 -0.269615
1.33 -0.27156
1.34 -0.274431
1.35 -0.278023
1.36 -0.282088
1.37 -0.286345
1.38 -0.290474
1.39 -0.29413
1.4 -0.297044
1.41 -0.298966
1.42 -0.29969
1.43 -0.299064
1.44 -0.296997
1.45 -0.293306
1.46 -0.288209
1.47 -0.281846
1.48 -0.27441
1.49 -0.26615
1.5 -0.257359
1.51 -0.248373
1.52 -0.239594
1.53 -0.231379
1.54 -0.224062
1.55 -0.217947
1.56 -0.213295
1.57 -0.21031
1.58 -0.209321
1.59 -0.210233
1.6 -0.212986
1.61 -0.217468
1.62 -0.223492
1.63 -0.230803
1.64 -0.239104
1.65 -0.247994
1.66 -0.256988
1.67 -0.265655
1.68 -0.273564
1.69 -0.280296
1.7 -0.285465
1.71 -0.288532
1.72 -0.28931
1.73 -0.287659
1.74 -0.283465
1.75 -0.2767
1.76 -0.267419
1.77 -0.255709
1.78 -0.241685
1.79 -0.225873
1.8 -0.208636
1.81 -0.190386
1.82 -0.17156
1.83 -0.152611
1.84 -0.134048
1.85 -0.116338
1.86 -0.0998489
1.87 -0.084911
1.88 -0.0717909
1.89 -0.0606834
1.9 -0.0517379
1.91 -0.0451751
1.92 -0.0407097
1.93 -0.0382012
1.94 -0.0374413
1.95 -0.0381636
1.96 -0.0400556
1.97 -0.0428024
1.98 -0.0459725
1.99 -0.0491656
2 -0.0520371
2.01 -0.0542751
2.02 -0.0556126
2.03 -0.0558345
2.04 -0.0546491
2.05 -0.0521346
2.06 -0.0483143
2.07 -0.0432866
2.08 -0.0372215
2.09 -0.0303544
2.1 -0.0229686
2.11 -0.0154591
2.12 -0.00823004
2.13 -0.0016715
2.14 0.00382776
2.15 0.00789527
2.16 0.0101893
2.17 0.0101585
2.18 0.00776189
2.19 0.00285968
2.2 -0.0046285
2.21 -0.0147044
2.22 -0.0272902
2.23 -0.042326
2.24 -0.0595943
2.25 -0.0786172
2.26 -0.0990304
2.27 -0.120429
2.28 -0.142379
2.29 -0.164436
2.3 -0.186078
2.31 -0.20686
2.32 -0.226402
2.33 -0.244361
2.34 -0.260451
2.35 -0.274446
2.36 -0.286115
2.37 -0.295265
2.38 -0.302096
2.39 -0.306695
2.4 -0.309211
2.41 -0.309855
2.42 -0.308884
2.43 -0.306512
2.44 -0.303181
2.45 -0.299273
2.46 -0.295128
2.47 -0.291073
2.48 -0.287411
2.49 -0.284432
2.5 -0.28245
2.51 -0.281562
2.52 -0.281876
2.53 -0.283445
2.54 -0.286268
2.55 -0.29029
2.56 -0.295479
2.57 -0.301624
2.58 -0.308491
2.59 -0.315866
2.6 -0.323522
2.61 -0.331224
2.62 -0.338738
2.63 -0.345784
2.64 -0.352197
2.65 -0.357815
2.66 -0.362511
2.67 -0.366195
2.68 -0.368816
2.69 -0.370295
2.7 -0.37068
2.71 -0.370098
2.72 -0.368648
2.73 -0.366451
2.74 -0.363649
2.75 -0.36039
2.76 -0.356814
2.77 -0.35312
2.78 -0.349447
2.79 -0.345919
2.8 -0.342639
2.81 -0.339687
2.82 -0.337138
2.83 -0.335023
2.84 -0.333309
2.85 -0.331966
2.86 -0.330939
2.87 -0.330156
2.88 -0.329531
2.89 -0.328963
2.9 -0.328335
2.91 -0.327545
2.92 -0.326497
2.93 -0.325104
2.94 -0.323293
2.95 -0.320981
2.96 -0.318101
2.97 -0.314666
2.98 -0.310666
2.99 -0.306106
3 -0.300998
3.01 -0.295367
3.02 -0.289192
3.03 -0.282539
3.04 -0.27544
3.05 -0.267907
3.06 -0.259941
3.07 -0.251528
3.08 -0.242621
3.09 -0.233137
3.1 -0.223046
3.11 -0.212264
3.12 -0.200692
3.13 -0.188221
3.14 -0.174735
3.15 -0.16001
3.16 -0.143977
3.17 -0.126572
3.18 -0.107707
3.19 -0.0873173
3.2 -0.0653628
3.21 -0.0418018
3.22 -0.0165495
3.23 0.0101719
3.24 0.0382543
3.25 0.0675517
3.26 0.0978824
3.27 0.129031
3.28 0.160774
3.29 0.192783
3.3 0.22474
3.31 0.256339
3.32 0.287272
3.33 0.31723
3.34 0.345902
3.35 0.372822
3.36 0.397882
3.37 0.42086
3.38 0.441569
3.39 0.45986
3.4 0.475623
3.41 0.488623
3.42 0.498857
3.43 0.50649
3.44 0.51158
3.45 0.51422
3.46 0.514532
3.47 0.512662
3.48 0.508562
3.49 0.502662
3.5 0.495152
3.51 0.486223
3.52 0.476063
3.53 0.464853
3.54 0.452726
3.55 0.439851
3.56 0.426421
3.57 0.412559
3.58 0.398371
3.59 0.383946
3.6 0.369363
3.61 0.354682
3.62 0.339972
3.63 0.325282
3.64 0.310658
3.65 0.296143
3.66 0.281786
3.67 0.26765
3.68 0.253812
3.69 0.240324
3.7 0.227263
3.71 0.214716
3.72 0.202777
3.73 0.191545
3.74 0.181212
3.75 0.171843
3.76 0.163525
3.77 0.156363
3.78 0.150456
3.79 0.145892
3.8 0.142793
3.81 0.141314
3.82 0.141374
3.83 0.142997
3.84 0.146188
3.85 0.150936
3.86 0.157208
3.87 0.165069
3.88 0.174371
3.89 0.184975
3.9 0.196784
3.91 0.209687
3.92 0.223566
3.93 0.238311
3.94 0.253839
3.95 0.269938
3.96 0.286486
3.97 0.303358
3.98 0.320437
3.99 0.337613
4 0.35477
4.01 0.371796
4.02 0.388602
4.03 0.4051
4.04 0.421209
4.05 0.436851
4.06 0.451947
4.07 0.466353
4.08 0.480056
4.09 0.492985
4.1 0.505068
4.11 0.516232
4.12 0.526402
4.13 0.535436
4.14 0.543253
4.15 0.549843
4.16 0.555138
4.17 0.559072
4.18 0.56159
4.19 0.562639
4.2 0.562004
4.21 0.559817
4.22 0.556069
4.23 0.550754
4.24 0.543882
4.25 0.535475
4.26 0.525497
4.27 0.513978
4.28 0.501082
4.29 0.486878
4.3 0.471448
4.31 0.454877
4.32 0.437254
4.33 0.418582
4.34 0.399045
4.35 0.378748
4.36 0.357773
4.37 0.336199
4.38 0.314098
4.39 0.291521
4.4 0.268513
4.41 0.245159
4.42 0.2215
4.43 0.197572
4.44 0.173405
4.45 0.149028
4.46 0.124456
4.47 0.0997318
4.48 0.0748929
4.49 0.0499763
4.5 0.0250252
4.51 9.00447e-05
4.52 -0.0247665
4.53 -0.0494584
4.54 -0.073916
4.55 -0.0980541
4.56 -0.121781
4.57 -0.145002
4.58 -0.167617
4.59 -0.189462
4.6 -0.210456
4.61 -0.230536
4.62 -0.249616
4.63 -0.267623
4.64 -0.284495
4.65 -0.300164
4.66 -0.314494
4.67 -0.327594
4.68 -0.339473
4.69 -0.350156
4.7 -0.359685
4.71 -0.368116
4.72 -0.375458
4.73 -0.381829
4.74 -0.387374
4.75 -0.392193
4.76 -0.39639
4.77 -0.400071
4.78 -0.403336
4.79 -0.406257
4.8 -0.408964
4.81 -0.411532
4.82 -0.414024
4.83 -0.416489
4.84 -0.418963
4.85 -0.42147
4.86 -0.424018
4.87 -0.426598
4.88 -0.42919
4.89 -0.431768
4.9 -0.434298
4.91 -0.43674
4.92 -0.439032
4.93 -0.441141
4.94 -0.443026
4.95 -0.444651
4.96 -0.445982
4.97 -0.446991
4.98 -0.447642
4.99 -0.447909
5 -0.447812
5.01 -0.447348
5.02 -0.446522
5.03 -0.445339
5.04 -0.443809
5.05 -0.441907
5.06 -0.439669
5.07 -0.437106
5.08 -0.434217
5.09 -0.430998
5.1 -0.427438
5.11 -0.423507
5.12 -0.419163
5.13 -0.414407
5.14 -0.409207
5.15 -0.40353
5.16 -0.397343
5.17 -0.390613
5.18 -0.38326
5.19 -0.375295
5.2 -0.366722
5.21 -0.357541
5.22 -0.347764
5.23 -0.337415
5.24 -0.326521
5.25 -0.315113
5.26 -0.303311
5.27 -0.2912
5.28 -0.278875
5.29 -0.266443
5.3 -0.254017
5.31 -0.241733
5.32 -0.22972
5.33 -0.218089
5.34 -0.206949
5.35 -0.196399
5.36 -0.186527
5.37 -0.177417
5.38 -0.169204
5.39 -0.161838
5.4 -0.155335
5.41 -0.149685
5.42 -0.144865
5.43 -0.14083
5.44 -0.137562
5.45 -0.134964
5.46 -0.132913
5.47 -0.131313
5.48 -0.130067
5.49 -0.129077
5.5 -0.128248
5.51 -0.127489
5.52 -0.126708
5.53 -0.12584
5.54 -0.124834
5.55 -0.123653
5.56 -0.122276
5.57 -0.120685
5.58 -0.118888
5.59 -0.11692
5.6 -0.114813
5.61 -0.112603
5.62 -0.110333
5.63 -0.108043
5.64 -0.105778
5.65 -0.10357
5.66 -0.101442
5.67 -0.0994023
5.68 -0.0974469
5.69 -0.0955573
5.7 -0.0936987
5.71 -0.0918124
5.72 -0.0898301
5.73 -0.0876734
5.74 -0.0852548
5.75 -0.0824804
5.76 -0.0792536
5.77 -0.0754163
5.78 -0.0709107
5.79 -0.065669
5.8 -0.0596252
5.81 -0.0527302
5.82 -0.0449545
5.83 -0.036261
5.84 -0.0266258
5.85 -0.016169
5.86 -0.00495943
5.87 0.00691229
5.88 0.0193355
5.89 0.0321826
5.9 0.0453233
5.91 0.0585715
5.92 0.0717631
5.93 0.0847432
5.94 0.0973632
5.95 0.109485
5.96 0.120969
5.97 0.131646
5.98 0.141502
5.99 0.150486
6 0.158572
6.01 0.165763
6.02 0.172085
6.03 0.177535
6.04 0.182228
6.05 0.186294
6.06 0.189846
6.07 0.193003
6.08 0.19589
6.09 0.19863
6.1 0.201351
6.11 0.20417
6.12 0.207173
6.13 0.210428
6.14 0.213977
6.15 0.217839
6.16 0.222023
6.17 0.226481
6.18 0.23113
6.19 0.235879
6.2 0.240615
6.21 0.24521
6.22 0.249523
6.23 0.253334
6.24 0.256529
6.25 0.258958
6.26 0.260482
6.27 0.260973
6.28 0.260325
6.29 0.258382
6.3 0.255063
6.31 0.25042
6.32 0.244454
6.33 0.237197
6.34 0.228705
6.35 0.219061
6.36 0.208274
6.37 0.196584
6.38 0.184149
6.39 0.171121
6.4 0.15766
6.41 0.143926
6.42 0.130074
6.43 0.11627
6.44 0.102647
6.45 0.0893154
6.46 0.0763639
6.47 0.0638596
6.48 0.0518459
6.49 0.0403911
6.5 0.0294514
6.51 0.0189858
6.52 0.00894683
6.53 -0.000728162
6.54 -0.0101136
6.55 -0.0192882
6.56 -0.028343
6.57 -0.0373797
6.58 -0.0464776
6.59 -0.0557073
6.6 -0.0651271
6.61 -0.0747803
6.62 -0.0847159
6.63 -0.0949266
6.64 -0.105387
6.65 -0.116063
6.66 -0.1269
6.67 -0.13783
6.68 -0.148767
6.69 -0.159594
6.7 -0.170207
6.71 -0.180494
6.72 -0.190344
6.73 -0.199646
6.74 -0.208295
6.75 -0.216131
6.76 -0.223079
6.77 -0.2291
6.78 -0.234137
6.79 -0.238146
6.8 -0.241101
6.81 -0.242977
6.82 -0.243669
6.83 -0.24331
6.84 -0.241924
6.85 -0.239545
6.86 -0.236212
6.87 -0.231968
6.88 -0.226804
6.89 -0.220774
6.9 -0.213963
6.91 -0.206403
6.92 -0.198119
6.93 -0.189127
6.94 -0.179439
6.95 -0.168974
6.96 -0.157803
6.97 -0.145913
6.98 -0.133286
6.99 -0.1199
7 -0.105733
7.01 -0.0907202
7.02 -0.0748279
7.03 -0.0580982
7.04 -0.040527
7.05 -0.0221198
7.06 -0.00289323
7.07 0.0171243
7.08 0.0379632
7.09 0.0594935
7.1 0.0816338
7.11 0.1043
7.12 0.127399
7.13 0.150823
7.14 0.174465
7.15 0.198188
7.16 0.221854
7.17 0.245335
7.18 0.268505
7.19 0.291239
7.2 0.313419
7.21 0.33486
7.22 0.35549
7.23 0.375233
7.24 0.394006
7.25 0.411736
7.26 0.428359
7.27 0.443793
7.28 0.457916
7.29 0.470804
7.3 0.482434
7.31 0.492791
7.32 0.501865
7.33 0.509651
7.34 0.51604
7.35 0.52109
7.36 0.524846
7.37 0.527306
7.38 0.528465
7.39 0.528319
7.4 0.526838
7.41 0.523901
7.42 0.519629
7.43 0.514009
7.44 0.50703
7.45 0.498682
7.46 0.488956
7.47 0.477754
7.48 0.465111
7.49 0.451101
7.5 0.435746
7.51 0.419075
7.52 0.401128
7.53 0.381952
7.54 0.361499
7.55 0.339985
7.56 0.317504
7.57 0.294163
7.58 0.27008
7.59 0.245386
7.6 0.220199
7.61 0.194693
7.62 0.169047
7.63 0.143423
7.64 0.11798
7.65 0.0928785
7.66 0.0682774
7.67 0.044419
7.68 0.021392
7.69 -0.000673063
7.7 -0.0216542
7.71 -0.0414427
7.72 -0.0599447
7.73 -0.0770143
7.74 -0.092554
7.75 -0.106621
7.76 -0.119195
7.77 -0.130274
7.78 -0.139874
7.79 -0.148024
7.8 -0.154637
7.81 -0.159902
7.82 -0.163917
7.83 -0.166768
7.84 -0.16855
7.85 -0.16936
7.86 -0.169276
7.87 -0.168382
7.88 -0.16685
7.89 -0.164779
7.9 -0.162262
7.91 -0.159386
7.92 -0.156229
7.93 -0.152848
7.94 -0.149317
7.95 -0.145687
7.96 -0.141992
7.97 -0.138253
7.98 -0.134483
7.99 -0.130686
8 -0.126851
8.01 -0.122969
8.02 -0.119023
8.03 -0.114991
8.04 -0.110852
8.05 -0.106586
8.06 -0.102161
8.07 -0.0975693
8.08 -0.0928089
8.09 -0.08788
8.1 -0.0827906
8.11 -0.0775568
8.12 -0.0722022
8.13 -0.0667572
8.14 -0.0612761
8.15 -0.055808
8.16 -0.0504075
8.17 -0.0451325
8.18 -0.0400431
8.19 -0.0352202
8.2 -0.0307255
8.21 -0.0265994
8.22 -0.0228883
8.23 -0.0196307
8.24 -0.0168553
8.25 -0.0145816
8.26 -0.0128708
8.27 -0.0116556
8.28 -0.0109137
8.29 -0.0106104
8.3 -0.0106996
8.31 -0.0111253
8.32 -0.0118336
8.33 -0.012742
8.34 -0.0137576
8.35 -0.0148019
8.36 -0.0157972
8.37 -0.0166695
8.38 -0.0173503
8.39 -0.0177463
8.4 -0.0178302
8.41 -0.0175694
8.42 -0.0169429
8.43 -0.0159438
8.44 -0.0145804
8.45 -0.0128616
8.46 -0.0108234
8.47 -0.00854329
8.48 -0.00608532
8.49 -0.00352267
8.5 -0.000935337
8.51 0.00159232
8.52 0.00395134
8.53 0.00605913
8.54 0.00783845
8.55 0.00921583
8.56 0.0101267
8.57 0.0105171
8.58 0.0103252
8.59 0.00949197
8.6 0.00805418
8.61 0.0060154
8.62 0.00339276
8.63 0.000216014
8.64 -0.00347379
8.65 -0.00766102
8.66 -0.0122526
8.67 -0.01717
8.68 -0.022346
8.69 -0.0277135
8.7 -0.0332073
8.71 -0.0387668
8.72 -0.0443325
8.73 -0.0498552
8.74 -0.0553002
8.75 -0.0606433
8.76 -0.0658706
8.77 -0.0709784
8.78 -0.0759656
8.79 -0.0808549
8.8 -0.0856752
8.81 -0.0904566
8.82 -0.0952326
8.83 -0.100038
8.84 -0.10491
8.85 -0.109893
8.86 -0.115005
8.87 -0.120268
8.88 -0.125694
8.89 -0.131286
8.9 -0.13704
8.91 -0.14295
8.92 -0.148983
8.93 -0.155097
8.94 -0.161251
8.95 -0.167396
8.96 -0.173479
8.97 -0.179446
8.98 -0.185215
8.99 -0.190747
9 -0.195994
9.01 -0.200911
9.02 -0.205464
9.03 -0.209623
9.04 -0.21335
9.05 -0.216632
9.06 -0.219502
9.07 -0.221975
9.08 -0.224077
9.09 -0.22584
9.1 -0.227304
9.11 -0.228494
9.12 -0.229487
9.13 -0.230337
9.14 -0.231092
9.15 -0.231797
9.16 -0.232493
9.17 -0.233217
9.18 -0.233997
9.19 -0.234847
9.2 -0.235771
9.21 -0.236762
9.22 -0.237805
9.23 -0.238876
9.24 -0.239937
9.25 -0.240944
9.26 -0.241852
9.27 -0.242611
9.28 -0.243171
9.29 -0.243485
9.3 -0.243496
9.31 -0.243141
9.32 -0.242414
9.33 -0.24129
9.34 -0.239756
9.35 -0.237807
9.36 -0.235447
9.37 -0.232662
9.38 -0.2295
9.39 -0.22601
9.4 -0.222234
9.41 -0.218217
9.42 -0.214011
9.43 -0.209663
9.44 -0.205225
9.45 -0.200753
9.46 -0.19629
9.47 -0.191869
9.48 -0.187516
9.49 -0.183244
9.5 -0.179066
9.51 -0.17497
9.52 -0.170932
9.53 -0.166921
9.54 -0.162897
9.55 -0.15881
9.56 -0.154603
9.57 -0.150188
9.58 -0.145513
9.59 -0.140509
9.6 -0.135112
9.61 -0.129256
9.62 -0.122883
9.63 -0.115901
9.64 -0.108264
9.65 -0.0999702
9.66 -0.0909952
9.67 -0.081326
9.68 -0.0709598
9.69 -0.0599041
9.7 -0.0481019
9.71 -0.0356607
9.72 -0.0226185
9.73 -0.00901897
9.74 0.00508849
9.75 0.0196504
9.76 0.0346277
9.77 0.0499582
9.78 0.0655579
9.79 0.0813691
9.8 0.0973357
9.81 0.113404
9.82 0.129521
9.83 0.145635
9.84 0.161695
9.85 0.177657
9.86 0.193482
9.87 0.209129
9.88 0.22456
9.89 0.239726
9.9 0.254572
9.91 0.269079
9.92 0.283209
9.93 0.29692
9.94 0.31017
9.95 0.322916
9.96 0.335059
9.97 0.346588
9.98 0.357473
9.99 0.367672
10 0.377145
10.01 0.385856
10.02 0.393752
10.03 0.400754
10.04 0.406915
10.05 0.412226
10.06 0.416686
10.07 0.420301
10.08 0.423087
10.09 0.425006
10.1 0.426135
10.11 0.426548
10.12 0.426295
10.13 0.425435
10.14 0.42403
10.15 0.422142
10.16 0.419817
10.17 0.41717
10.18 0.414274
10.19 0.411197
10.2 0.408003
10.21 0.404752
10.22 0.401503
10.23 0.398309
10.24 0.395209
10.25 0.392232
10.26 0.389402
10.27 0.386732
10.28 0.384232
10.29 0.381916
10.3 0.379758
10.31 0.377741
10.32 0.375846
10.33 0.374048
10.34 0.372319
10.35 0.370628
10.36 0.368936
10.37 0.367208
10.38 0.365407
10.39 0.363497
10.4 0.361443
10.41 0.35921
10.42 0.356734
10.43 0.353999
10.44 0.350972
10.45 0.347619
10.46 0.343906
10.47 0.339798
10.48 0.335238
10.49 0.330178
10.5 0.324616
10.51 0.318517
10.52 0.311851
10.53 0.304587
10.54 0.296698
10.55 0.288091
10.56 0.278799
10.57 0.268818
10.58 0.258138
10.59 0.246755
10.6 0.234673
10.61 0.221879
10.62 0.208367
10.63 0.194221
10.64 0.179479
10.65 0.164187
10.66 0.148397
10.67 0.13217
10.68 0.115543
10.69 0.0986215
10.7 0.0814888
10.71 0.0642218
10.72 0.0468973
10.73 0.0295905
10.74 0.0123784
10.75 -0.00465241
10.76 -0.0214508
10.77 -0.0379637
10.78 -0.0541464
10.79 -0.0699631
10.8 -0.0853878
10.81 -0.100371
10.82 -0.114925
10.83 -0.129069
10.84 -0.142819
10.85 -0.156195
10.86 -0.169225
10.87 -0.18194
10.88 -0.194356
10.89 -0.206545
10.9 -0.218546
10.91 -0.230397
10.92 -0.242134
10.93 -0.253788
10.94 -0.265383
10.95 -0.27694
10.96 -0.288474
10.97 -0.299986
10.98 -0.311471
10.99 -0.322917
11 -0.334302
11.01 -0.345585
11.02 -0.356737
11.03 -0.367716
11.04 -0.378477
11.05 -0.38897
11.06 -0.399145
11.07 -0.408924
11.08 -0.418245
11.09 -0.42708
11.1 -0.43538
11.11 -0.443098
11.12 -0.450192
11.13 -0.456623
11.14 -0.462276
11.15 -0.467192
11.16 -0.471352
11.17 -0.474737
11.18 -0.477333
11.19 -0.479129
11.2 -0.480083
11.21 -0.480172
11.22 -0.479455
11.23 -0.477939
11.24 -0.475632
11.25 -0.472544
11.26 -0.468688
11.27 -0.464007
11.28 -0.458582
11.29 -0.452445
11.3 -0.445619
11.31 -0.438126
11.32 -0.429992
11.33 -0.42122
11.34 -0.411817
11.35 -0.401861
11.36 -0.391381
11.37 -0.380408
11.38 -0.368974
11.39 -0.357108
11.4 -0.34481
11.41 -0.332136
11.42 -0.319127
11.43 -0.30581
11.44 -0.292212
11.45 -0.278356
11.46 -0.264261
11.47 -0.249933
11.48 -0.235413
11.49 -0.220718
11.5 -0.205863
11.51 -0.190865
11.52 -0.175737
11.53 -0.160488
11.54 -0.145143
11.55 -0.129724
11.56 -0.114254
11.57 -0.0987594
11.58 -0.0832695
11.59 -0.0678194
11.6 -0.0524605
11.61 -0.0372327
11.62 -0.0221853
11.63 -0.00737171
11.64 0.0071514
11.65 0.0213246
11.66 0.0350554
11.67 0.0482799
11.68 0.0609598
11.69 0.0730384
11.7 0.0844634
11.71 0.0951887
11.72 0.105174
11.73 0.1143
11.74 0.122636
11.75 0.130174
11.76 0.136922
11.77 0.142896
11.78 0.148124
11.79 0.15261
11.8 0.156408
11.81 0.159622
11.82 0.16232
11.83 0.164573
11.84 0.166455
11.85 0.168042
11.86 0.169387
11.87 0.170588
11.88 0.171704
11.89 0.172783
11.9 0.173862
11.91 0.174965
11.92 0.176103
11.93 0.177267
11.94 0.178429
11.95 0.17955
11.96 0.180576
11.97 0.181441
11.98 0.182066
11.99 0.182325
12 0.18214
12.01 0.181421
12.02 0.180072
12.03 0.177999
12.04 0.175114
12.05 0.171308
12.06 0.166456
12.07 0.160582
12.08 0.15365
12.09 0.145641
12.1 0.136553
12.11 0.126399
12.12 0.115128
12.13 0.10285
12.14 0.0896647
12.15 0.0756505
12.16 0.0608964
12.17 0.0455
12.18 0.0295555
