# xPDFsuite Configuration #
[PDF]
wavelength = 0.1
dataformat = QA
inputfile = BiMsol6_insitu_700 C-00104.xy
backgroundfile = Quartz2mm-dist500-00000.xy
mode = xray
bgscale = 0.0042
composition = Bi2Fe4O9
outputtype = gr
qmaxinst = 24.998449118
qmin = 0.1
qmax = 21.4986662415
rmax = 80.0
rmin = 0.0
rstep = 0.01
rpoly = 0.9

[Misc]
inputdir = C:/Data/Seafile/CPH/Beamtime/Desy Oct 20/In situ data/Processed/BiMsol6/PDF
savedir = C:/Data/Seafile/CPH/Beamtime/Desy Oct 20/In situ data/PDF/BiMsol6
backgroundfilefull = C:/Data/Seafile/CPH/Beamtime/Desy Oct 20/In situ data/Processed/Standard_Empty_Cap/Quartz2mm-dist500-00000.xy

#### start data
#S 1
#L r($\AA$)  G($\AA^{-2}$)
0 0
0.01 0.00674996
0.02 0.013123
0.03 0.0187964
0.04 0.0234807
0.05 0.0269326
0.06 0.0289665
0.07 0.0293792
0.08 0.028111
0.09 0.0253103
0.1 0.0210991
0.11 0.0156667
0.12 0.00926211
0.13 0.00218232
0.14 -0.00523927
0.15 -0.0125808
0.16 -0.0194867
0.17 -0.0256229
0.18 -0.0306898
0.19 -0.0344364
0.2 -0.0366046
0.21 -0.037017
0.22 -0.035773
0.23 -0.0329388
0.24 -0.0286619
0.25 -0.0231659
0.26 -0.0167423
0.27 -0.00972117
0.28 -0.00258313
0.29 0.00424438
0.3 0.0103465
0.31 0.0153283
0.32 0.0188345
0.33 0.0205052
0.34 0.0199882
0.35 0.0173329
0.36 0.0125334
0.37 0.00569088
0.38 -0.00298493
0.39 -0.0131786
0.4 -0.0245257
0.41 -0.0363934
0.42 -0.0481608
0.43 -0.0591972
0.44 -0.0688506
0.45 -0.0764718
0.46 -0.0813756
0.47 -0.0826821
0.48 -0.0801991
0.49 -0.0735727
0.5 -0.0625746
0.51 -0.047117
0.52 -0.0272622
0.53 -0.00295285
0.54 0.0252414
0.55 0.0565746
0.56 0.0903515
0.57 0.125761
0.58 0.1619
0.59 0.197785
0.6 0.232158
0.61 0.264055
0.62 0.292497
0.63 0.316574
0.64 0.335469
0.65 0.348491
0.66 0.354671
0.67 0.35364
0.68 0.345607
0.69 0.330613
0.7 0.308886
0.71 0.280838
0.72 0.247053
0.73 0.2078
0.74 0.164614
0.75 0.118513
0.76 0.0705639
0.77 0.0218726
0.78 -0.0264551
0.79 -0.0732178
0.8 -0.117227
0.81 -0.157702
0.82 -0.193885
0.83 -0.225161
0.84 -0.25108
0.85 -0.271362
0.86 -0.285317
0.87 -0.293573
0.88 -0.29649
0.89 -0.294499
0.9 -0.288161
0.91 -0.278143
0.92 -0.265116
0.93 -0.249918
0.94 -0.233595
0.95 -0.216964
0.96 -0.2008
0.97 -0.185813
0.98 -0.172627
0.99 -0.16201
1 -0.15423
1.01 -0.14946
1.02 -0.147803
1.03 -0.149232
1.04 -0.153597
1.05 -0.160702
1.06 -0.170271
1.07 -0.181621
1.08 -0.194248
1.09 -0.207626
1.1 -0.221218
1.11 -0.234507
1.12 -0.246911
1.13 -0.257999
1.14 -0.267467
1.15 -0.27507
1.16 -0.280653
1.17 -0.284157
1.18 -0.285587
1.19 -0.284934
1.2 -0.282628
1.21 -0.27896
1.22 -0.27427
1.23 -0.26893
1.24 -0.263328
1.25 -0.257882
1.26 -0.252999
1.27 -0.248982
1.28 -0.246088
1.29 -0.244506
1.3 -0.244352
1.31 -0.245671
1.32 -0.248555
1.33 -0.252699
1.34 -0.257895
1.35 -0.263872
1.36 -0.270316
1.37 -0.276882
1.38 -0.283169
1.39 -0.288763
1.4 -0.293344
1.41 -0.296614
1.42 -0.298327
1.43 -0.2983
1.44 -0.296422
1.45 -0.292456
1.46 -0.286674
1.47 -0.279236
1.48 -0.270369
1.49 -0.260365
1.5 -0.249572
1.51 -0.238379
1.52 -0.227265
1.53 -0.216678
1.54 -0.207025
1.55 -0.198688
1.56 -0.192
1.57 -0.187233
1.58 -0.184815
1.59 -0.184681
1.6 -0.186802
1.61 -0.191093
1.62 -0.197378
1.63 -0.2054
1.64 -0.214861
1.65 -0.225342
1.66 -0.236276
1.67 -0.247175
1.68 -0.257541
1.69 -0.26688
1.7 -0.274725
1.71 -0.280445
1.72 -0.28376
1.73 -0.284451
1.74 -0.282329
1.75 -0.277298
1.76 -0.269357
1.77 -0.258532
1.78 -0.244878
1.79 -0.228942
1.8 -0.211092
1.81 -0.191753
1.82 -0.171395
1.83 -0.150512
1.84 -0.129648
1.85 -0.109359
1.86 -0.090103
1.87 -0.0722885
1.88 -0.0562651
1.89 -0.0423092
1.9 -0.0306518
1.91 -0.0216123
1.92 -0.0149515
1.93 -0.0105794
1.94 -0.008325
1.95 -0.00794557
1.96 -0.0091373
1.97 -0.0116041
1.98 -0.0148801
1.99 -0.0185063
2 -0.0220865
2.01 -0.0252457
2.02 -0.0276459
2.03 -0.0289944
2.04 -0.0289068
2.05 -0.0273745
2.06 -0.0243425
2.07 -0.0198368
2.08 -0.0139632
2.09 -0.00690329
2.1 0.00112614
2.11 0.00976066
2.12 0.0185773
2.13 0.0271775
2.14 0.0351486
2.15 0.0420789
2.16 0.047574
2.17 0.0510395
2.18 0.0523222
2.19 0.0511966
2.2 0.0474944
2.21 0.0411247
2.22 0.0320785
2.23 0.0203184
2.24 0.00596961
2.25 -0.0105323
2.26 -0.028871
2.27 -0.0486747
2.28 -0.0695281
2.29 -0.0909865
2.3 -0.112558
2.31 -0.133721
2.32 -0.154036
2.33 -0.173097
2.34 -0.190543
2.35 -0.206068
2.36 -0.21935
2.37 -0.230092
2.38 -0.238403
2.39 -0.244282
2.4 -0.247802
2.41 -0.249105
2.42 -0.248395
2.43 -0.245803
2.44 -0.241772
2.45 -0.236691
2.46 -0.230914
2.47 -0.224798
2.48 -0.218689
2.49 -0.212931
2.5 -0.207901
2.51 -0.203805
2.52 -0.200843
2.53 -0.199159
2.54 -0.198842
2.55 -0.199926
2.56 -0.202491
2.57 -0.206396
2.58 -0.211455
2.59 -0.217502
2.6 -0.224337
2.61 -0.231741
2.62 -0.239485
2.63 -0.247311
2.64 -0.254962
2.65 -0.262223
2.66 -0.268904
2.67 -0.274839
2.68 -0.279896
2.69 -0.283907
2.7 -0.28682
2.71 -0.288666
2.72 -0.289464
2.73 -0.289257
2.74 -0.288121
2.75 -0.286149
2.76 -0.283383
2.77 -0.280043
2.78 -0.276257
2.79 -0.272151
2.8 -0.267844
2.81 -0.263443
2.82 -0.259047
2.83 -0.254739
2.84 -0.250568
2.85 -0.246566
2.86 -0.242741
2.87 -0.239087
2.88 -0.235577
2.89 -0.23218
2.9 -0.228829
2.91 -0.225465
2.92 -0.222029
2.93 -0.218459
2.94 -0.214701
2.95 -0.210695
2.96 -0.206387
2.97 -0.201771
2.98 -0.196833
2.99 -0.191574
3 -0.186004
3.01 -0.180145
3.02 -0.174006
3.03 -0.167652
3.04 -0.16113
3.05 -0.154486
3.06 -0.147763
3.07 -0.141001
3.08 -0.134233
3.09 -0.127489
3.1 -0.12078
3.11 -0.114108
3.12 -0.107463
3.13 -0.100823
3.14 -0.0941578
3.15 -0.0874151
3.16 -0.0805426
3.17 -0.0734872
3.18 -0.0661906
3.19 -0.0585941
3.2 -0.0506412
3.21 -0.0422704
3.22 -0.0333968
3.23 -0.0240261
3.24 -0.0141335
3.25 -0.00370541
3.26 0.00726068
3.27 0.0187561
3.28 0.0307968
3.29 0.0433328
3.3 0.056303
3.31 0.0696621
3.32 0.0833608
3.33 0.0973475
3.34 0.111572
3.35 0.125998
3.36 0.140554
3.37 0.155202
3.38 0.169907
3.39 0.184642
3.4 0.199387
3.41 0.214128
3.42 0.228857
3.43 0.243572
3.44 0.258274
3.45 0.272966
3.46 0.287649
3.47 0.302323
3.48 0.31698
3.49 0.331607
3.5 0.346182
3.51 0.360674
3.52 0.375042
3.53 0.389235
3.54 0.403174
3.55 0.416769
3.56 0.429954
3.57 0.442637
3.58 0.454723
3.59 0.466111
3.6 0.4767
3.61 0.486287
3.62 0.49485
3.63 0.502311
3.64 0.508594
3.65 0.513629
3.66 0.517362
3.67 0.519696
3.68 0.520554
3.69 0.520032
3.7 0.518138
3.71 0.514896
3.72 0.510345
3.73 0.504534
3.74 0.497421
3.75 0.489174
3.76 0.479903
3.77 0.469698
3.78 0.458654
3.79 0.446866
3.8 0.434418
3.81 0.421389
3.82 0.407929
3.83 0.394132
3.84 0.380087
3.85 0.365881
3.86 0.351593
3.87 0.337307
3.88 0.323103
3.89 0.309047
3.9 0.295198
3.91 0.281613
3.92 0.268343
3.93 0.255441
3.94 0.242983
3.95 0.230967
3.96 0.21942
3.97 0.208361
3.98 0.197804
3.99 0.187755
4 0.178246
4.01 0.169249
4.02 0.160721
4.03 0.152629
4.04 0.144934
4.05 0.137588
4.06 0.130539
4.07 0.123742
4.08 0.117099
4.09 0.110541
4.1 0.103998
4.11 0.0974038
4.12 0.0906935
4.13 0.0837959
4.14 0.0766563
4.15 0.0692493
4.16 0.061552
4.17 0.0535555
4.18 0.0452662
4.19 0.0367058
4.2 0.0278914
4.21 0.0189087
4.22 0.0098286
4.23 0.000732395
4.24 -0.00828932
4.25 -0.0171395
4.26 -0.0256992
4.27 -0.0338464
4.28 -0.0415055
4.29 -0.0485892
4.3 -0.0550217
4.31 -0.0607413
4.32 -0.0657033
4.33 -0.0698011
4.34 -0.0731012
4.35 -0.0756369
4.36 -0.077451
4.37 -0.0786061
4.38 -0.0791833
4.39 -0.0792659
4.4 -0.078966
4.41 -0.0784416
4.42 -0.0778183
4.43 -0.0772219
4.44 -0.0767736
4.45 -0.0765865
4.46 -0.0768017
4.47 -0.0774865
4.48 -0.0786906
4.49 -0.0804509
4.5 -0.0827812
4.51 -0.0856711
4.52 -0.0890991
4.53 -0.0930278
4.54 -0.0973281
4.55 -0.101901
4.56 -0.106635
4.57 -0.111408
4.58 -0.116095
4.59 -0.120544
4.6 -0.124629
4.61 -0.12825
4.62 -0.131315
4.63 -0.133748
4.64 -0.135495
4.65 -0.136514
4.66 -0.136739
4.67 -0.136265
4.68 -0.135141
4.69 -0.133435
4.7 -0.131236
4.71 -0.128646
4.72 -0.125771
4.73 -0.122757
4.74 -0.119743
4.75 -0.116849
4.76 -0.11419
4.77 -0.111869
4.78 -0.109975
4.79 -0.108635
4.8 -0.107841
4.81 -0.107613
4.82 -0.107945
4.83 -0.108813
4.84 -0.11017
4.85 -0.11197
4.86 -0.11412
4.87 -0.1165
4.88 -0.119011
4.89 -0.121548
4.9 -0.124012
4.91 -0.126309
4.92 -0.128321
4.93 -0.130002
4.94 -0.131305
4.95 -0.132205
4.96 -0.132693
4.97 -0.132785
4.98 -0.132499
4.99 -0.131891
5 -0.131058
5.01 -0.130084
5.02 -0.129062
5.03 -0.128087
5.04 -0.127255
5.05 -0.126689
5.06 -0.126458
5.07 -0.126624
5.08 -0.127236
5.09 -0.128321
5.1 -0.129889
5.11 -0.131941
5.12 -0.134454
5.13 -0.13733
5.14 -0.140488
5.15 -0.143835
5.16 -0.147266
5.17 -0.150667
5.18 -0.153898
5.19 -0.156841
5.2 -0.159393
5.21 -0.161462
5.22 -0.162967
5.23 -0.163849
5.24 -0.164052
5.25 -0.163513
5.26 -0.162309
5.27 -0.160477
5.28 -0.158075
5.29 -0.155181
5.3 -0.15189
5.31 -0.148295
5.32 -0.144538
5.33 -0.140751
5.34 -0.137049
5.35 -0.133543
5.36 -0.130329
5.37 -0.127498
5.38 -0.125157
5.39 -0.123302
5.4 -0.121945
5.41 -0.121074
5.42 -0.120656
5.43 -0.120632
5.44 -0.120941
5.45 -0.121469
5.46 -0.122091
5.47 -0.122693
5.48 -0.123157
5.49 -0.123369
5.5 -0.123222
5.51 -0.122561
5.52 -0.121356
5.53 -0.119556
5.54 -0.117132
5.55 -0.114078
5.56 -0.110417
5.57 -0.106164
5.58 -0.101399
5.59 -0.0962486
5.6 -0.0908215
5.61 -0.0852383
5.62 -0.0796265
5.63 -0.0741155
5.64 -0.0688685
5.65 -0.0639901
5.66 -0.0595779
5.67 -0.0557131
5.68 -0.0524548
5.69 -0.0498375
5.7 -0.0478972
5.71 -0.0466271
5.72 -0.045928
5.73 -0.0457241
5.74 -0.0459182
5.75 -0.0463956
5.76 -0.0470286
5.77 -0.0476687
5.78 -0.0481598
5.79 -0.0483668
5.8 -0.048164
5.81 -0.0474401
5.82 -0.0461026
5.83 -0.0440571
5.84 -0.0412197
5.85 -0.0376392
5.86 -0.0333344
5.87 -0.0283517
5.88 -0.0227635
5.89 -0.0166653
5.9 -0.0101503
5.91 -0.00338972
5.92 0.00346158
5.93 0.010257
5.94 0.0168521
5.95 0.0231103
5.96 0.0288951
5.97 0.0340481
5.98 0.0385379
5.99 0.0423131
6 0.0453501
6.01 0.047654
6.02 0.0492586
6.03 0.0501838
6.04 0.0505524
6.05 0.0505036
6.06 0.0501665
6.07 0.049681
6.08 0.0491929
6.09 0.048851
6.1 0.0488385
6.11 0.0492621
6.12 0.0502289
6.13 0.0518245
6.14 0.0541093
6.15 0.0571161
6.16 0.0608931
6.17 0.0653986
6.18 0.0705322
6.19 0.0762062
6.2 0.0823101
6.21 0.0887148
6.22 0.0952769
6.23 0.101826
6.24 0.108193
6.25 0.114224
6.26 0.119778
6.27 0.124727
6.28 0.128961
6.29 0.132347
6.3 0.134811
6.31 0.136378
6.32 0.137051
6.33 0.136863
6.34 0.135871
6.35 0.134157
6.36 0.131771
6.37 0.128908
6.38 0.12571
6.39 0.122317
6.4 0.118871
6.41 0.11551
6.42 0.112376
6.43 0.109606
6.44 0.107275
6.45 0.10545
6.46 0.104178
6.47 0.103478
6.48 0.103345
6.49 0.103797
6.5 0.104731
6.51 0.106058
6.52 0.107685
6.53 0.109506
6.54 0.111409
6.55 0.113271
6.56 0.114953
6.57 0.116354
6.58 0.117376
6.59 0.117938
6.6 0.117975
6.61 0.117442
6.62 0.116263
6.63 0.114469
6.64 0.112103
6.65 0.109207
6.66 0.105843
6.67 0.102084
6.68 0.0980138
6.69 0.0937233
6.7 0.0893406
6.71 0.084965
6.72 0.0806917
6.73 0.0766081
6.74 0.0727912
6.75 0.0693327
6.76 0.0662761
6.77 0.063634
6.78 0.061417
6.79 0.059619
6.8 0.0582179
6.81 0.0571801
6.82 0.0564807
6.83 0.0560207
6.84 0.055733
6.85 0.0555473
6.86 0.055393
6.87 0.0552021
6.88 0.0549027
6.89 0.0544335
6.9 0.0537588
6.91 0.0528482
6.92 0.0516836
6.93 0.05026
6.94 0.0485841
6.95 0.0466512
6.96 0.0445207
6.97 0.0422323
6.98 0.0398312
6.99 0.0373656
7 0.0348852
7.01 0.0324424
7.02 0.0300888
7.03 0.0278589
7.04 0.0257818
7.05 0.0238775
7.06 0.022156
7.07 0.0206171
7.08 0.019266
7.09 0.0180633
7.1 0.0169756
7.11 0.0159654
7.12 0.0149902
7.13 0.0140045
7.14 0.0129581
7.15 0.0117962
7.16 0.0104841
7.17 0.00898828
7.18 0.00728271
7.19 0.00535068
7.2 0.00318555
7.21 0.000771628
7.22 -0.00185705
7.23 -0.00466662
7.24 -0.00761943
7.25 -0.0106696
7.26 -0.0137645
7.27 -0.0168446
7.28 -0.0198367
7.29 -0.0226822
7.3 -0.0253221
7.31 -0.0277019
7.32 -0.0297729
7.33 -0.0314941
7.34 -0.0328007
7.35 -0.0336874
7.36 -0.0341601
7.37 -0.0342222
7.38 -0.0338881
7.39 -0.0331823
7.4 -0.0321343
7.41 -0.0307683
7.42 -0.0291686
7.43 -0.0273909
7.44 -0.025494
7.45 -0.0235378
7.46 -0.0215819
7.47 -0.0196915
7.48 -0.0179255
7.49 -0.0163279
7.5 -0.0149389
7.51 -0.013792
7.52 -0.0129129
7.53 -0.0123213
7.54 -0.012059
7.55 -0.0120947
7.56 -0.0124227
7.57 -0.013031
7.58 -0.0139028
7.59 -0.015017
7.6 -0.0163605
7.61 -0.0179022
7.62 -0.0196012
7.63 -0.021429
7.64 -0.0233574
7.65 -0.0253589
7.66 -0.0274074
7.67 -0.0294782
7.68 -0.0315443
7.69 -0.033585
7.7 -0.0355814
7.71 -0.0375163
7.72 -0.0393741
7.73 -0.0411352
7.74 -0.0427826
7.75 -0.0443109
7.76 -0.0457097
7.77 -0.0469696
7.78 -0.0480823
7.79 -0.0490415
7.8 -0.0498261
7.81 -0.0504467
7.82 -0.0509064
7.83 -0.0512081
7.84 -0.0513579
7.85 -0.0513647
7.86 -0.0512367
7.87 -0.0509868
7.88 -0.0506445
7.89 -0.0502312
7.9 -0.0497704
7.91 -0.0492868
7.92 -0.0488055
7.93 -0.0483557
7.94 -0.0479613
7.95 -0.0476415
7.96 -0.0474124
7.97 -0.0472857
7.98 -0.0472674
7.99 -0.0473605
8 -0.0475637
8.01 -0.0478525
8.02 -0.048206
8.03 -0.048597
8.04 -0.0489935
8.05 -0.0493591
8.06 -0.0496458
8.07 -0.04981
8.08 -0.0498146
8.09 -0.0496218
8.1 -0.049198
8.11 -0.0485156
8.12 -0.0475501
8.13 -0.0462646
8.14 -0.0446895
8.15 -0.0428375
8.16 -0.0407324
8.17 -0.0384091
8.18 -0.0359131
8.19 -0.0332961
8.2 -0.0306337
8.21 -0.0280024
8.22 -0.0254766
8.23 -0.0231319
8.24 -0.0210421
8.25 -0.0192784
8.26 -0.0179527
8.27 -0.0170765
8.28 -0.0166876
8.29 -0.0168093
8.3 -0.0174493
8.31 -0.0185983
8.32 -0.0202547
8.33 -0.0223678
8.34 -0.0248449
8.35 -0.027608
8.36 -0.030567
8.37 -0.0336221
8.38 -0.0366667
8.39 -0.0395657
8.4 -0.042211
8.41 -0.0444992
8.42 -0.0463341
8.43 -0.0476309
8.44 -0.0483189
8.45 -0.0483131
8.46 -0.0475581
8.47 -0.0460936
8.48 -0.0439319
8.49 -0.0411064
8.5 -0.0376705
8.51 -0.0336956
8.52 -0.0292355
8.53 -0.0244408
8.54 -0.0194333
8.55 -0.0143321
8.56 -0.0092577
8.57 -0.00432845
8.58 0.000330933
8.59 0.00458819
8.6 0.00838126
8.61 0.0116418
8.62 0.0143202
8.63 0.0163871
8.64 0.0178338
8.65 0.0186225
8.66 0.018828
8.67 0.0185241
8.68 0.0177825
8.69 0.0166879
8.7 0.0153347
8.71 0.0138223
8.72 0.0122635
8.73 0.010772
8.74 0.00944234
8.75 0.00835974
8.76 0.00759694
8.77 0.00721183
8.78 0.00727922
8.79 0.0078074
8.8 0.00877824
8.81 0.0101728
8.82 0.0119547
8.83 0.0140723
8.84 0.0164627
8.85 0.0190576
8.86 0.021745
8.87 0.0244368
8.88 0.0270448
8.89 0.0294847
8.9 0.0316786
8.91 0.0335342
8.92 0.0349934
8.93 0.0360356
8.94 0.0366388
8.95 0.0367978
8.96 0.0365235
8.97 0.0358423
8.98 0.0347596
8.99 0.0333788
9 0.0317662
9.01 0.0299953
9.02 0.0281429
9.03 0.026287
9.04 0.0245109
9.05 0.022896
9.06 0.0214965
9.07 0.0203613
9.08 0.0195267
9.09 0.0190149
9.1 0.0188339
9.11 0.0190098
9.12 0.0194859
9.13 0.0202223
9.14 0.0211716
9.15 0.0222779
9.16 0.0234793
9.17 0.0247087
9.18 0.0258895
9.19 0.0269579
9.2 0.0278569
9.21 0.0285374
9.22 0.0289605
9.23 0.0290986
9.24 0.0289081
9.25 0.028412
9.26 0.0276317
9.27 0.0265947
9.28 0.0253395
9.29 0.0239142
9.3 0.0223725
9.31 0.0207806
9.32 0.0192103
9.33 0.0177237
9.34 0.016379
9.35 0.0152284
9.36 0.0143157
9.37 0.0136996
9.38 0.0133883
9.39 0.0133786
9.4 0.0136631
9.41 0.0142216
9.42 0.0150217
9.43 0.0160232
9.44 0.017177
9.45 0.018404
9.46 0.0196394
9.47 0.0208174
9.48 0.0218731
9.49 0.0227462
9.5 0.0233616
9.51 0.0236768
9.52 0.023671
9.53 0.0233254
9.54 0.0226347
9.55 0.021607
9.56 0.0202614
9.57 0.0186107
9.58 0.0167371
9.59 0.0146989
9.6 0.0125615
9.61 0.0103946
9.62 0.0082702
9.63 0.00627108
9.64 0.00447345
9.65 0.00293005
9.66 0.00169137
9.67 0.000796941
9.68 0.000273864
9.69 0.000135743
9.7 0.000424887
9.71 0.00107889
9.72 0.00206563
9.73 0.00334158
9.74 0.00485284
9.75 0.00653718
9.76 0.00832783
9.77 0.0101426
9.78 0.0119031
9.79 0.0135404
9.8 0.0149904
9.81 0.0161972
9.82 0.0171144
9.83 0.0176713
9.84 0.0178762
9.85 0.017729
9.86 0.0172392
9.87 0.0164302
9.88 0.0153375
9.89 0.0140012
9.9 0.0124804
9.91 0.0108581
9.92 0.0092039
9.93 0.00758912
9.94 0.00608398
9.95 0.00475513
9.96 0.0036902
9.97 0.00292921
9.98 0.0025051
9.99 0.00244446
10 0.00276073
10.01 0.00345372
10.02 0.00451931
10.03 0.00594471
10.04 0.00765581
10.05 0.00959967
10.06 0.0117148
10.07 0.0139334
10.08 0.0161832
10.09 0.0183809
10.1 0.0204467
10.11 0.0223141
10.12 0.0239212
10.13 0.0252143
10.14 0.0261494
10.15 0.0266866
10.16 0.0267715
10.17 0.0264395
10.18 0.0256996
10.19 0.0245731
10.2 0.0230929
10.21 0.0213022
10.22 0.019239
10.23 0.0169778
10.24 0.0145952
10.25 0.0121582
10.26 0.00973404
10.27 0.00738777
10.28 0.00518204
10.29 0.00319812
10.3 0.00146504
10.31 1.95165e-05
10.32 -0.00111163
10.33 -0.00191198
10.34 -0.0023757
10.35 -0.00248848
10.36 -0.0022698
10.37 -0.00176487
10.38 -0.00100795
10.39 -3.98764e-05
10.4 0.00109333
10.41 0.00234201
10.42 0.00365569
10.43 0.00497034
10.44 0.00623518
10.45 0.00740255
10.46 0.00842891
10.47 0.00927589
10.48 0.00989944
10.49 0.0102666
10.5 0.0103756
10.51 0.0102172
10.52 0.00978949
10.53 0.00909733
10.54 0.0081522
10.55 0.00694983
10.56 0.00553658
10.57 0.00394406
10.58 0.0022036
10.59 0.000348954
10.6 -0.00158465
10.61 -0.00356149
10.62 -0.00554121
10.63 -0.00748648
10.64 -0.00936465
10.65 -0.0111454
10.66 -0.0128013
10.67 -0.014308
10.68 -0.0156275
10.69 -0.0167522
10.7 -0.0176746
10.71 -0.018386
10.72 -0.018882
10.73 -0.0191618
10.74 -0.0192227
10.75 -0.0190593
10.76 -0.0187016
10.77 -0.0181632
10.78 -0.0174607
10.79 -0.0166131
10.8 -0.0156419
10.81 -0.0145643
10.82 -0.0134129
10.83 -0.0122175
10.84 -0.011005
10.85 -0.0098025
10.86 -0.00863688
10.87 -0.00753565
10.88 -0.00653418
10.89 -0.0056482
10.9 -0.00489804
10.91 -0.00430123
10.92 -0.00387215
10.93 -0.00362164
10.94 -0.00356963
10.95 -0.00371501
10.96 -0.00404626
10.97 -0.0045566
10.98 -0.00523507
10.99 -0.00606667
11 -0.00703317
11.01 -0.00812156
11.02 -0.0092914
11.03 -0.0105148
11.04 -0.0117621
11.05 -0.013003
11.06 -0.0142069
11.07 -0.015338
11.08 -0.016363
11.09 -0.01726
11.1 -0.0180052
11.11 -0.0185782
11.12 -0.0189622
11.13 -0.0191445
11.14 -0.0190927
11.15 -0.0188251
11.16 -0.0183444
11.17 -0.0176563
11.18 -0.0167704
11.19 -0.0157
11.2 -0.0144549
11.21 -0.0130542
11.22 -0.0115318
11.23 -0.00991167
11.24 -0.00821867
11.25 -0.00647829
11.26 -0.00471599
11.27 -0.00295953
11.28 -0.00123516
11.29 0.000434802
11.3 0.00202962
11.31 0.00353044
11.32 0.0049204
11.33 0.00617992
11.34 0.00728862
11.35 0.00824726
11.36 0.00904824
11.37 0.00968603
11.38 0.0101571
11.39 0.0104598
11.4 0.0105797
11.41 0.0105294
11.42 0.0103178
11.43 0.00995077
11.44 0.0094358
11.45 0.00878201
11.46 0.00799743
11.47 0.00708843
11.48 0.00608124
11.49 0.00499196
11.5 0.00383825
11.51 0.00263912
11.52 0.00141485
11.53 0.000188178
11.54 -0.00101567
11.55 -0.00217423
11.56 -0.00326517
11.57 -0.00426679
11.58 -0.00515843
11.59 -0.00591911
11.6 -0.00651691
11.61 -0.0069522
11.62 -0.00721484
11.63 -0.00729843
11.64 -0.0072006
11.65 -0.00692331
11.66 -0.0064623
11.67 -0.00583347
11.68 -0.00506206
11.69 -0.00416861
11.7 -0.00317725
11.71 -0.00211523
11.72 -0.00101216
11.73 9.79743e-05
11.74 0.00117907
11.75 0.00219945
11.76 0.00312876
11.77 0.00393897
11.78 0.0046052
11.79 0.00509658
11.8 0.00539401
11.81 0.00549865
11.82 0.00540709
11.83 0.00512196
11.84 0.00465197
