# xPDFsuite Configuration #
[PDF]
wavelength = 0.1
dataformat = QA
inputfile = BiMsol6_insitu_700 C-00129.xy
backgroundfile = Quartz2mm-dist500-00000.xy
mode = xray
bgscale = 0.0042
composition = Bi2Fe4O9
outputtype = gr
qmaxinst = 24.998449118
qmin = 0.1
qmax = 21.4986662415
rmax = 80.0
rmin = 0.0
rstep = 0.01
rpoly = 0.9

[Misc]
inputdir = C:/Data/Seafile/CPH/Beamtime/Desy Oct 20/In situ data/Processed/BiMsol6/PDF
savedir = C:/Data/Seafile/CPH/Beamtime/Desy Oct 20/In situ data/PDF/BiMsol6
backgroundfilefull = C:/Data/Seafile/CPH/Beamtime/Desy Oct 20/In situ data/Processed/Standard_Empty_Cap/Quartz2mm-dist500-00000.xy

#### start data
#S 1
#L r($\AA$)  G($\AA^{-2}$)
0 0
0.01 0.00621347
0.02 0.0120757
0.03 0.0172863
0.04 0.0215757
0.05 0.0247179
0.06 0.026541
0.07 0.0268572
0.08 0.025613
0.09 0.0229485
0.1 0.0189796
0.11 0.0138852
0.12 0.00789955
0.13 0.00130162
0.14 -0.0055941
0.15 -0.0123951
0.16 -0.01877
0.17 -0.0244082
0.18 -0.0290322
0.19 -0.032411
0.2 -0.0343077
0.21 -0.0345628
0.22 -0.033276
0.23 -0.0305162
0.24 -0.0264286
0.25 -0.0212298
0.26 -0.0151995
0.27 -0.00865761
0.28 -0.00205697
0.29 0.00419944
0.3 0.00972091
0.31 0.0141374
0.32 0.0171178
0.33 0.0183279
0.34 0.0174429
0.35 0.0145229
0.36 0.00957416
0.37 0.00270528
0.38 -0.00587126
0.39 -0.0158425
0.4 -0.0268429
0.41 -0.03826
0.42 -0.0494942
0.43 -0.0599356
0.44 -0.0689557
0.45 -0.0759302
0.46 -0.0802004
0.47 -0.0809175
0.48 -0.0779112
0.49 -0.0708478
0.5 -0.0595162
0.51 -0.0438415
0.52 -0.0238944
0.53 0.000370173
0.54 0.0283891
0.55 0.0594304
0.56 0.0928117
0.57 0.127739
0.58 0.163329
0.59 0.198622
0.6 0.232385
0.61 0.263682
0.62 0.291561
0.63 0.315133
0.64 0.333601
0.65 0.346289
0.66 0.352249
0.67 0.351117
0.68 0.343098
0.69 0.328228
0.7 0.306726
0.71 0.27899
0.72 0.245587
0.73 0.206765
0.74 0.164031
0.75 0.118374
0.76 0.0708395
0.77 0.022507
0.78 -0.0255388
0.79 -0.0721207
0.8 -0.116068
0.81 -0.156602
0.82 -0.192968
0.83 -0.224549
0.84 -0.250886
0.85 -0.271686
0.86 -0.286247
0.87 -0.295162
0.88 -0.298764
0.89 -0.297454
0.9 -0.291763
0.91 -0.282328
0.92 -0.269784
0.93 -0.254936
0.94 -0.238818
0.95 -0.222228
0.96 -0.20593
0.97 -0.190631
0.98 -0.176956
0.99 -0.165669
1 -0.157067
1.01 -0.151351
1.02 -0.148653
1.03 -0.148979
1.04 -0.152214
1.05 -0.158205
1.06 -0.166721
1.07 -0.177117
1.08 -0.188926
1.09 -0.20165
1.1 -0.214781
1.11 -0.227823
1.12 -0.240228
1.13 -0.251557
1.14 -0.261496
1.15 -0.269788
1.16 -0.276258
1.17 -0.280822
1.18 -0.283451
1.19 -0.284104
1.2 -0.283152
1.21 -0.280842
1.22 -0.277468
1.23 -0.273358
1.24 -0.268855
1.25 -0.264327
1.26 -0.260145
1.27 -0.256597
1.28 -0.253921
1.29 -0.252298
1.3 -0.251843
1.31 -0.252608
1.32 -0.25468
1.33 -0.257808
1.34 -0.261816
1.35 -0.266476
1.36 -0.271517
1.37 -0.27664
1.38 -0.281498
1.39 -0.285731
1.4 -0.289068
1.41 -0.291252
1.42 -0.292075
1.43 -0.291385
1.44 -0.289096
1.45 -0.285017
1.46 -0.279399
1.47 -0.272397
1.48 -0.264224
1.49 -0.255152
1.5 -0.245499
1.51 -0.235627
1.52 -0.225968
1.53 -0.216912
1.54 -0.208819
1.55 -0.20202
1.56 -0.1968
1.57 -0.193385
1.58 -0.19214
1.59 -0.192974
1.6 -0.19583
1.61 -0.200603
1.62 -0.207103
1.63 -0.215068
1.64 -0.224193
1.65 -0.234063
1.66 -0.244155
1.67 -0.254008
1.68 -0.26316
1.69 -0.271156
1.7 -0.277573
1.71 -0.281823
1.72 -0.28368
1.73 -0.282971
1.74 -0.279547
1.75 -0.27335
1.76 -0.26441
1.77 -0.252785
1.78 -0.238563
1.79 -0.222285
1.8 -0.204318
1.81 -0.185083
1.82 -0.165035
1.83 -0.144649
1.84 -0.124453
1.85 -0.104962
1.86 -0.0865901
1.87 -0.0697107
1.88 -0.0546344
1.89 -0.0416003
1.9 -0.0308025
1.91 -0.0225164
1.92 -0.0164836
1.93 -0.0125932
1.94 -0.0106601
1.95 -0.0104341
1.96 -0.0116114
1.97 -0.013893
1.98 -0.0168333
1.99 -0.0200032
2 -0.023034
2.01 -0.025583
2.02 -0.0273473
2.03 -0.0280717
2.04 -0.0274198
2.05 -0.0254171
2.06 -0.0220428
2.07 -0.0173525
2.08 -0.0114765
2.09 -0.00461512
2.1 0.00299166
2.11 0.0109758
2.12 0.0189342
2.13 0.0264834
2.14 0.0332336
2.15 0.0388034
2.16 0.042835
2.17 0.0447745
2.18 0.0445262
2.19 0.0419141
2.2 0.0368193
2.21 0.0291997
2.22 0.0190915
2.23 0.00651068
2.24 -0.00837168
2.25 -0.0251115
2.26 -0.0433758
2.27 -0.0627859
2.28 -0.0829298
2.29 -0.103376
2.3 -0.123633
2.31 -0.143239
2.32 -0.161805
2.33 -0.178976
2.34 -0.194449
2.35 -0.207978
2.36 -0.219311
2.37 -0.228228
2.38 -0.234893
2.39 -0.239362
2.4 -0.24176
2.41 -0.242268
2.42 -0.241125
2.43 -0.238515
2.44 -0.234869
2.45 -0.230559
2.46 -0.225918
2.47 -0.221273
2.48 -0.216929
2.49 -0.213182
2.5 -0.21035
2.51 -0.208553
2.52 -0.207914
2.53 -0.208505
2.54 -0.210342
2.55 -0.213388
2.56 -0.217631
2.57 -0.222879
2.58 -0.228912
2.59 -0.235527
2.6 -0.242506
2.61 -0.249623
2.62 -0.25665
2.63 -0.263316
2.64 -0.269446
2.65 -0.274875
2.66 -0.27947
2.67 -0.283133
2.68 -0.285805
2.69 -0.287399
2.7 -0.287951
2.71 -0.287571
2.72 -0.286348
2.73 -0.28439
2.74 -0.281825
2.75 -0.278791
2.76 -0.275408
2.77 -0.271867
2.78 -0.268293
2.79 -0.264797
2.8 -0.261468
2.81 -0.258375
2.82 -0.255571
2.83 -0.25307
2.84 -0.250836
2.85 -0.248823
2.86 -0.246965
2.87 -0.245181
2.88 -0.243375
2.89 -0.241421
2.9 -0.239215
2.91 -0.23666
2.92 -0.233667
2.93 -0.230163
2.94 -0.226089
2.95 -0.221385
2.96 -0.216019
2.97 -0.210053
2.98 -0.203526
2.99 -0.196499
3 -0.189049
3.01 -0.181268
3.02 -0.173247
3.03 -0.165124
3.04 -0.15701
3.05 -0.149006
3.06 -0.141201
3.07 -0.133671
3.08 -0.126482
3.09 -0.119691
3.1 -0.113271
3.11 -0.107203
3.12 -0.101442
3.13 -0.0959199
3.14 -0.0905507
3.15 -0.0852241
3.16 -0.0798048
3.17 -0.0741656
3.18 -0.068179
3.19 -0.0617211
3.2 -0.0546761
3.21 -0.0469247
3.22 -0.0383143
3.23 -0.028854
3.24 -0.0185082
3.25 -0.00726635
3.26 0.00485705
3.27 0.0178228
3.28 0.03162
3.29 0.0461275
3.3 0.0612083
3.31 0.0767465
3.32 0.092619
3.33 0.1087
3.34 0.124863
3.35 0.140976
3.36 0.156928
3.37 0.17263
3.38 0.188011
3.39 0.20302
3.4 0.217627
3.41 0.231794
3.42 0.24554
3.43 0.258918
3.44 0.271973
3.45 0.284762
3.46 0.297346
3.47 0.309791
3.48 0.322159
3.49 0.334516
3.5 0.346907
3.51 0.359358
3.52 0.371879
3.53 0.38446
3.54 0.397068
3.55 0.409636
3.56 0.422083
3.57 0.43431
3.58 0.446201
3.59 0.457627
3.6 0.46845
3.61 0.478431
3.62 0.487483
3.63 0.495476
3.64 0.502283
3.65 0.507792
3.66 0.511906
3.67 0.514492
3.68 0.515442
3.69 0.514851
3.7 0.51273
3.71 0.509112
3.72 0.504057
3.73 0.497647
3.74 0.489878
3.75 0.480972
3.76 0.471091
3.77 0.460375
3.78 0.448969
3.79 0.437015
3.8 0.424642
3.81 0.411979
3.82 0.399174
3.83 0.386326
3.84 0.373517
3.85 0.360815
3.86 0.348268
3.87 0.335926
3.88 0.323797
3.89 0.311874
3.9 0.300149
3.91 0.288603
3.92 0.277212
3.93 0.265954
3.94 0.254808
3.95 0.243741
3.96 0.232736
3.97 0.221786
3.98 0.210888
3.99 0.20005
4 0.189297
4.01 0.178652
4.02 0.168146
4.03 0.157814
4.04 0.147695
4.05 0.137829
4.06 0.128255
4.07 0.119045
4.08 0.11019
4.09 0.101709
4.1 0.093608
4.11 0.0858851
4.12 0.0785263
4.13 0.0715258
4.14 0.0648413
4.15 0.0584088
4.16 0.0521772
4.17 0.0460909
4.18 0.040093
4.19 0.0341274
4.2 0.0281343
4.21 0.022067
4.22 0.0158911
4.23 0.00958351
4.24 0.00313389
4.25 -0.00345432
4.26 -0.0101678
4.27 -0.01697
4.28 -0.0238047
4.29 -0.0306129
4.3 -0.0373267
4.31 -0.0438718
4.32 -0.0501709
4.33 -0.0561056
4.34 -0.061623
4.35 -0.0666631
4.36 -0.0711713
4.37 -0.0751063
4.38 -0.0784422
4.39 -0.0811475
4.4 -0.0832112
4.41 -0.084714
4.42 -0.0857066
4.43 -0.0862557
4.44 -0.0864422
4.45 -0.0863586
4.46 -0.0861004
4.47 -0.085797
4.48 -0.0855587
4.49 -0.0854872
4.5 -0.0856762
4.51 -0.0862079
4.52 -0.0871619
4.53 -0.0886209
4.54 -0.090571
4.55 -0.093015
4.56 -0.0959341
4.57 -0.0992884
4.58 -0.103018
4.59 -0.107062
4.6 -0.1113
4.61 -0.115615
4.62 -0.119892
4.63 -0.124017
4.64 -0.127874
4.65 -0.131347
4.66 -0.134288
4.67 -0.136655
4.68 -0.138387
4.69 -0.139442
4.7 -0.1398
4.71 -0.139464
4.72 -0.138415
4.73 -0.136727
4.74 -0.134503
4.75 -0.131834
4.76 -0.128823
4.77 -0.125585
4.78 -0.12224
4.79 -0.118927
4.8 -0.115774
4.81 -0.112893
4.82 -0.110384
4.83 -0.108333
4.84 -0.106809
4.85 -0.105897
4.86 -0.105629
4.87 -0.105971
4.88 -0.106906
4.89 -0.108398
4.9 -0.11039
4.91 -0.112814
4.92 -0.115616
4.93 -0.118661
4.94 -0.121851
4.95 -0.125091
4.96 -0.128287
4.97 -0.131356
4.98 -0.134207
4.99 -0.136765
5 -0.138999
5.01 -0.140878
5.02 -0.14239
5.03 -0.143537
5.04 -0.144334
5.05 -0.144785
5.06 -0.144965
5.07 -0.144931
5.08 -0.144742
5.09 -0.144458
5.1 -0.144141
5.11 -0.143849
5.12 -0.143645
5.13 -0.143567
5.14 -0.143645
5.15 -0.143898
5.16 -0.144333
5.17 -0.144945
5.18 -0.145728
5.19 -0.146641
5.2 -0.147639
5.21 -0.148676
5.22 -0.149703
5.23 -0.150666
5.24 -0.151509
5.25 -0.152166
5.26 -0.152607
5.27 -0.152797
5.28 -0.15271
5.29 -0.152332
5.3 -0.151657
5.31 -0.150673
5.32 -0.149411
5.33 -0.147912
5.34 -0.146213
5.35 -0.144356
5.36 -0.14239
5.37 -0.140361
5.38 -0.138323
5.39 -0.136323
5.4 -0.134399
5.41 -0.132581
5.42 -0.130888
5.43 -0.129332
5.44 -0.127919
5.45 -0.126633
5.46 -0.125442
5.47 -0.124312
5.48 -0.123203
5.49 -0.122067
5.5 -0.120853
5.51 -0.11949
5.52 -0.117939
5.53 -0.116155
5.54 -0.1141
5.55 -0.111747
5.56 -0.109076
5.57 -0.106064
5.58 -0.102718
5.59 -0.099081
5.6 -0.0951868
5.61 -0.0910811
5.62 -0.0868189
5.63 -0.0824623
5.64 -0.0780836
5.65 -0.073762
5.66 -0.0695661
5.67 -0.0655601
5.68 -0.0618012
5.69 -0.0583371
5.7 -0.0552196
5.71 -0.0524825
5.72 -0.0501052
5.73 -0.0480759
5.74 -0.0463679
5.75 -0.04494
5.76 -0.0437378
5.77 -0.0427039
5.78 -0.0417421
5.79 -0.0407682
5.8 -0.0396989
5.81 -0.0384525
5.82 -0.0369518
5.83 -0.0351149
5.84 -0.0328572
5.85 -0.0301655
5.86 -0.0270143
5.87 -0.023395
5.88 -0.0193165
5.89 -0.0148053
5.9 -0.00987647
5.91 -0.0046201
5.92 0.000876508
5.93 0.00652798
5.94 0.0122421
5.95 0.0179232
5.96 0.0234708
5.97 0.0287659
5.98 0.0337406
5.99 0.0383246
6 0.0424616
6.01 0.0461119
6.02 0.0492536
6.03 0.0518467
6.04 0.0539297
6.05 0.0555641
6.06 0.0568066
6.07 0.0577288
6.08 0.0584141
6.09 0.0589548
6.1 0.0594571
6.11 0.0600338
6.12 0.0607811
6.13 0.0617885
6.14 0.0631348
6.15 0.0648853
6.16 0.0671204
6.17 0.0698678
6.18 0.0731087
6.19 0.0768291
6.2 0.0809946
6.21 0.0855525
6.22 0.0904328
6.23 0.0955675
6.24 0.100822
6.25 0.106089
6.26 0.111261
6.27 0.116227
6.28 0.120881
6.29 0.125101
6.3 0.128782
6.31 0.131884
6.32 0.134356
6.33 0.136165
6.34 0.137299
6.35 0.137764
6.36 0.137524
6.37 0.13669
6.38 0.135335
6.39 0.133534
6.4 0.131377
6.41 0.128955
6.42 0.126364
6.43 0.12371
6.44 0.121097
6.45 0.118606
6.46 0.11631
6.47 0.114269
6.48 0.112525
6.49 0.111138
6.5 0.110096
6.51 0.109379
6.52 0.108963
6.53 0.108809
6.54 0.108866
6.55 0.109074
6.56 0.10936
6.57 0.109642
6.58 0.109847
6.59 0.109905
6.6 0.109755
6.61 0.109342
6.62 0.108593
6.63 0.107489
6.64 0.106026
6.65 0.104204
6.66 0.102036
6.67 0.099546
6.68 0.0967686
6.69 0.0937403
6.7 0.0905456
6.71 0.0872474
6.72 0.0839108
6.73 0.0806007
6.74 0.0773795
6.75 0.0743184
6.76 0.0714687
6.77 0.0688611
6.78 0.0665226
6.79 0.0644681
6.8 0.0627011
6.81 0.0612148
6.82 0.0600118
6.83 0.0590297
6.84 0.0582282
6.85 0.057561
6.86 0.0569778
6.87 0.0564267
6.88 0.0558521
6.89 0.0551992
6.9 0.0544278
6.91 0.0535035
6.92 0.0524004
6.93 0.0511024
6.94 0.0496032
6.95 0.0478859
6.96 0.0459897
6.97 0.0439401
6.98 0.0417697
6.99 0.0395164
7 0.0372221
7.01 0.0349328
7.02 0.0326983
7.03 0.0305571
7.04 0.0285431
7.05 0.026683
7.06 0.0249951
7.07 0.023488
7.08 0.0221772
7.09 0.0210311
7.1 0.0200219
7.11 0.019115
7.12 0.0182679
7.13 0.0174315
7.14 0.0165488
7.15 0.0155526
7.16 0.0143927
7.17 0.0130182
7.18 0.0113844
7.19 0.00945471
7.2 0.00720279
7.21 0.00458314
7.22 0.00161969
7.23 -0.00166234
7.24 -0.00523189
7.25 -0.00904411
7.26 -0.0130413
7.27 -0.017155
7.28 -0.0212974
7.29 -0.0253718
7.3 -0.0292871
7.31 -0.0329517
7.32 -0.0362762
7.33 -0.0391763
7.34 -0.0415304
7.35 -0.0432903
7.36 -0.0444274
7.37 -0.0449109
7.38 -0.0447274
7.39 -0.0438821
7.4 -0.0423886
7.41 -0.0402471
7.42 -0.0375852
7.43 -0.0344825
7.44 -0.0310319
7.45 -0.0273373
7.46 -0.0235099
7.47 -0.0196734
7.48 -0.0159619
7.49 -0.0124892
7.5 -0.00936244
7.51 -0.00667899
7.52 -0.00452372
7.53 -0.00297033
7.54 -0.00214423
7.55 -0.00200632
7.56 -0.00256584
7.57 -0.00381233
7.58 -0.00571605
7.59 -0.00822907
7.6 -0.0113139
7.61 -0.0148767
7.62 -0.0187923
7.63 -0.0229583
7.64 -0.0272674
7.65 -0.0316102
7.66 -0.0358786
7.67 -0.0399386
7.68 -0.0437058
7.69 -0.0470991
7.7 -0.0500497
7.71 -0.0525037
7.72 -0.0544239
7.73 -0.0557635
7.74 -0.0565102
7.75 -0.0567215
7.76 -0.0564326
7.77 -0.0556929
7.78 -0.0545646
7.79 -0.0531201
7.8 -0.0514247
7.81 -0.0495935
7.82 -0.0477176
7.83 -0.0458832
7.84 -0.0441717
7.85 -0.0426581
7.86 -0.0414194
7.87 -0.0405297
7.88 -0.0400043
7.89 -0.039866
7.9 -0.0401229
7.91 -0.0407678
7.92 -0.0417787
7.93 -0.0431448
7.94 -0.0447889
7.95 -0.0466397
7.96 -0.0486264
7.97 -0.0506719
7.98 -0.0526959
7.99 -0.0546119
8 -0.0563178
8.01 -0.0577503
8.02 -0.0588427
8.03 -0.0595377
8.04 -0.0597896
8.05 -0.0595651
8.06 -0.0588059
8.07 -0.0575296
8.08 -0.05577
8.09 -0.0535565
8.1 -0.0509323
8.11 -0.0479531
8.12 -0.0446832
8.13 -0.0411906
8.14 -0.0375886
8.15 -0.0339659
8.16 -0.030413
8.17 -0.027019
8.18 -0.0238697
8.19 -0.0210711
8.2 -0.0186972
8.21 -0.0167884
8.22 -0.0153893
8.23 -0.0145302
8.24 -0.0142269
8.25 -0.0144813
8.26 -0.0153346
8.27 -0.0166894
8.28 -0.0184978
8.29 -0.0206996
8.3 -0.0232235
8.31 -0.0259898
8.32 -0.0289153
8.33 -0.0318953
8.34 -0.0348291
8.35 -0.037626
8.36 -0.0401998
8.37 -0.0424705
8.38 -0.0443667
8.39 -0.0457745
8.4 -0.0466868
8.41 -0.0470751
8.42 -0.0469215
8.43 -0.0462225
8.44 -0.0449887
8.45 -0.0432228
8.46 -0.0409561
8.47 -0.0382758
8.48 -0.0352417
8.49 -0.0319208
8.5 -0.028385
8.51 -0.0247091
8.52 -0.0209693
8.53 -0.0172519
8.54 -0.0136259
8.55 -0.0101533
8.56 -0.00688798
8.57 -0.00387463
8.58 -0.00115835
8.59 0.00122052
8.6 0.00327686
8.61 0.00501221
8.62 0.0064384
8.63 0.00757661
8.64 0.00845618
8.65 0.00909746
8.66 0.00956007
8.67 0.00989545
8.68 0.0101494
8.69 0.010367
8.7 0.0105904
8.71 0.0108599
8.72 0.0112169
8.73 0.0116807
8.74 0.0122678
8.75 0.0129868
8.76 0.0138381
8.77 0.0148144
8.78 0.0159079
8.79 0.01709
8.8 0.0183288
8.81 0.0195932
8.82 0.0208502
8.83 0.0220661
8.84 0.0232068
8.85 0.024229
8.86 0.0251159
8.87 0.0258475
8.88 0.02641
8.89 0.0267965
8.9 0.0270072
8.91 0.0270393
8.92 0.0269125
8.93 0.0266576
8.94 0.0263018
8.95 0.0258765
8.96 0.0254156
8.97 0.0249544
8.98 0.0245358
8.99 0.0241914
9 0.0239499
9.01 0.0238352
9.02 0.0238651
9.03 0.0240505
9.04 0.0244032
9.05 0.0249184
9.06 0.0255719
9.07 0.0263424
9.08 0.0272023
9.09 0.0281183
9.1 0.0290532
9.11 0.0299603
9.12 0.0307964
9.13 0.0315219
9.14 0.0320994
9.15 0.0324961
9.16 0.0326848
9.17 0.0326349
9.18 0.032326
9.19 0.0317743
9.2 0.0309874
9.21 0.0299822
9.22 0.0287839
9.23 0.0274253
9.24 0.0259388
9.25 0.0243838
9.26 0.0228116
9.27 0.0212725
9.28 0.019816
9.29 0.0184894
9.3 0.0173421
9.31 0.0164265
9.32 0.0157544
9.33 0.0153438
9.34 0.0152034
9.35 0.0153314
9.36 0.0157159
9.37 0.0163521
9.38 0.0171913
9.39 0.0181846
9.4 0.0192844
9.41 0.0204384
9.42 0.0215918
9.43 0.0226864
9.44 0.023653
9.45 0.0244485
9.46 0.0250292
9.47 0.0253589
9.48 0.0254107
9.49 0.0251674
9.5 0.0246009
9.51 0.0237276
9.52 0.0225795
9.53 0.0211858
9.54 0.0195849
9.55 0.0178231
9.56 0.0159527
9.57 0.0140331
9.58 0.0121345
9.59 0.0103162
9.6 0.0086346
9.61 0.00714162
9.62 0.00588246
9.63 0.00491275
9.64 0.00425993
9.65 0.00392228
9.66 0.00390167
9.67 0.00418843
9.68 0.00476166
9.69 0.00559002
9.7 0.0066519
9.71 0.00786842
9.72 0.00918325
9.73 0.010537
9.74 0.0118689
9.75 0.0131191
9.76 0.0142212
9.77 0.0151141
9.78 0.0157657
9.79 0.016143
9.8 0.0162239
9.81 0.0159971
9.82 0.0154633
9.83 0.0146065
9.84 0.0134819
9.85 0.0121303
9.86 0.0105972
9.87 0.00893583
9.88 0.00720459
9.89 0.00546776
9.9 0.00379942
9.91 0.00226075
9.92 0.00090939
9.93 -0.00020281
9.94 -0.00103153
9.95 -0.00154148
9.96 -0.00167423
9.97 -0.00144026
9.98 -0.000848624
9.99 8.83511e-05
10 0.00134732
10.01 0.00289475
10.02 0.00469364
10.03 0.00669767
10.04 0.00882859
10.05 0.0110256
10.06 0.0132266
10.07 0.0153697
10.08 0.0173959
10.09 0.0192317
10.1 0.0208312
10.11 0.0221612
10.12 0.0231909
10.13 0.0238989
10.14 0.0242737
10.15 0.0243075
10.16 0.0239838
10.17 0.0233547
10.18 0.0224471
10.19 0.0212944
10.2 0.0199352
10.21 0.018412
10.22 0.0167645
10.23 0.0150478
10.24 0.0133114
10.25 0.0115973
10.26 0.0099437
10.27 0.00838442
10.28 0.00694875
10.29 0.00567593
10.3 0.0045662
10.31 0.00362759
10.32 0.00286211
10.33 0.00226611
10.34 0.00183092
10.35 0.00155139
10.36 0.0014076
10.37 0.00137165
10.38 0.00142253
10.39 0.00153868
10.4 0.00169882
10.41 0.00188261
10.42 0.00206996
10.43 0.00224247
10.44 0.00238647
10.45 0.00249085
10.46 0.00254708
10.47 0.00254901
10.48 0.0024898
10.49 0.0023662
10.5 0.00218208
10.51 0.00193829
10.52 0.00163635
10.53 0.00127803
10.54 0.000865079
10.55 0.000393713
10.56 -0.000130301
10.57 -0.000705578
10.58 -0.00133187
10.59 -0.00200909
10.6 -0.00273708
10.61 -0.0035171
10.62 -0.00434954
10.63 -0.00522758
10.64 -0.00614684
10.65 -0.00710102
10.66 -0.00808169
10.67 -0.00907816
10.68 -0.0100763
10.69 -0.0110584
10.7 -0.0120067
10.71 -0.0129019
10.72 -0.0137238
10.73 -0.0144515
10.74 -0.0150611
10.75 -0.0155223
10.76 -0.015829
10.77 -0.0159674
10.78 -0.0159274
10.79 -0.0157031
10.8 -0.0152938
10.81 -0.0146905
10.82 -0.0139133
10.83 -0.0129864
10.84 -0.0119326
10.85 -0.01078
10.86 -0.00956078
10.87 -0.0083111
10.88 -0.00707529
10.89 -0.00589597
10.9 -0.00481324
10.91 -0.00386572
10.92 -0.0030893
10.93 -0.00251584
10.94 -0.00218918
10.95 -0.00212676
10.96 -0.00232828
10.97 -0.00279674
10.98 -0.00352677
10.99 -0.00450456
11 -0.00570895
11.01 -0.00712675
11.02 -0.00869441
11.03 -0.0103674
11.04 -0.0120968
11.05 -0.0138306
11.06 -0.0155151
11.07 -0.0170879
11.08 -0.0184893
11.09 -0.0196787
11.1 -0.0206143
11.11 -0.0212607
11.12 -0.0215904
11.13 -0.0215844
11.14 -0.0211948
11.15 -0.0204592
11.16 -0.0193918
11.17 -0.0180139
11.18 -0.0163551
11.19 -0.0144526
11.2 -0.0123434
11.21 -0.0100802
11.22 -0.00773003
11.23 -0.00534744
11.24 -0.0029871
11.25 -0.000701999
11.26 0.00145803
11.27 0.00342681
11.28 0.00517569
11.29 0.00667717
11.3 0.00790839
11.31 0.00885465
11.32 0.00950958
11.33 0.00986518
11.34 0.00992059
11.35 0.00971825
11.36 0.00928313
11.37 0.00864528
11.38 0.00783869
11.39 0.00690003
11.4 0.00586255
11.41 0.00477458
11.42 0.00367522
11.43 0.00259849
11.44 0.00157493
11.45 0.000630813
11.46 -0.000209571
11.47 -0.000920621
11.48 -0.00150284
11.49 -0.00195239
11.5 -0.00227054
11.51 -0.00246322
11.52 -0.00254046
11.53 -0.00250911
11.54 -0.00239153
11.55 -0.00220991
11.56 -0.0019831
11.57 -0.0017299
11.58 -0.00146823
11.59 -0.00121481
11.6 -0.0009875
11.61 -0.000796228
11.62 -0.000649216
11.63 -0.000551716
11.64 -0.000506028
11.65 -0.000511649
11.66 -0.000568352
11.67 -0.000669073
11.68 -0.000803968
11.69 -0.000964488
11.7 -0.00114145
11.71 -0.00132553
11.72 -0.00150768
11.73 -0.00167762
11.74 -0.00182894
11.75 -0.0019562
11.76 -0.00205548
11.77 -0.0021245
11.78 -0.00216247
11.79 -0.00216851
11.8 -0.00214471
11.81 -0.00209596
