# xPDFsuite Configuration #
[PDF]
wavelength = 0.1
dataformat = QA
inputfile = BiMsol6_insitu_700 C-00136.xy
backgroundfile = Quartz2mm-dist500-00000.xy
mode = xray
bgscale = 0.0042
composition = Bi2Fe4O9
outputtype = gr
qmaxinst = 24.998449118
qmin = 0.1
qmax = 21.4986662415
rmax = 80.0
rmin = 0.0
rstep = 0.01
rpoly = 0.9

[Misc]
inputdir = C:/Data/Seafile/CPH/Beamtime/Desy Oct 20/In situ data/Processed/BiMsol6/PDF
savedir = C:/Data/Seafile/CPH/Beamtime/Desy Oct 20/In situ data/PDF/BiMsol6
backgroundfilefull = C:/Data/Seafile/CPH/Beamtime/Desy Oct 20/In situ data/Processed/Standard_Empty_Cap/Quartz2mm-dist500-00000.xy

#### start data
#S 1
#L r($\AA$)  G($\AA^{-2}$)
0 0
0.01 0.00617548
0.02 0.0120033
0.03 0.0171858
0.04 0.0214562
0.05 0.0245903
0.06 0.0264174
0.07 0.0267509
0.08 0.0255367
0.09 0.0229127
0.1 0.0189924
0.11 0.0139519
0.12 0.00802192
0.13 0.00147771
0.14 -0.0053711
0.15 -0.0121355
0.16 -0.0184873
0.17 -0.0241184
0.18 -0.0287532
0.19 -0.0321614
0.2 -0.0341067
0.21 -0.0344283
0.22 -0.0332219
0.23 -0.0305526
0.24 -0.0265609
0.25 -0.021458
0.26 -0.0155181
0.27 -0.00905341
0.28 -0.00251144
0.29 0.00370961
0.3 0.00922315
0.31 0.0136621
0.32 0.0166969
0.33 0.0179944
0.34 0.0172291
0.35 0.0144545
0.36 0.00967113
0.37 0.00298043
0.38 -0.00541368
0.39 -0.0152078
0.4 -0.026049
0.41 -0.0373358
0.42 -0.0484781
0.43 -0.0588756
0.44 -0.0679078
0.45 -0.0749568
0.46 -0.0793696
0.47 -0.0803045
0.48 -0.0775827
0.49 -0.0708663
0.5 -0.0599368
0.51 -0.0447088
0.52 -0.0252405
0.53 -0.00147163
0.54 0.0260545
0.55 0.056625
0.56 0.0895762
0.57 0.124133
0.58 0.15943
0.59 0.194524
0.6 0.228208
0.61 0.259547
0.62 0.287594
0.63 0.311465
0.64 0.33036
0.65 0.343599
0.66 0.35023
0.67 0.349871
0.68 0.342703
0.69 0.328741
0.7 0.308178
0.71 0.281388
0.72 0.24891
0.73 0.210958
0.74 0.169015
0.75 0.124047
0.76 0.0770777
0.77 0.02917
0.78 -0.018605
0.79 -0.0650876
0.8 -0.109113
0.81 -0.14989
0.82 -0.186654
0.83 -0.218778
0.84 -0.245783
0.85 -0.267358
0.86 -0.282779
0.87 -0.292604
0.88 -0.297137
0.89 -0.296748
0.9 -0.29194
0.91 -0.283325
0.92 -0.271507
0.93 -0.257266
0.94 -0.241624
0.95 -0.225369
0.96 -0.209261
0.97 -0.194001
0.98 -0.180221
0.99 -0.168682
1 -0.159704
1.01 -0.153511
1.02 -0.150255
1.03 -0.149966
1.04 -0.152556
1.05 -0.157894
1.06 -0.165784
1.07 -0.1756
1.08 -0.186898
1.09 -0.1992
1.1 -0.212011
1.11 -0.224845
1.12 -0.23717
1.13 -0.248544
1.14 -0.258645
1.15 -0.267206
1.16 -0.274043
1.17 -0.279054
1.18 -0.282195
1.19 -0.283404
1.2 -0.283027
1.21 -0.28129
1.22 -0.278465
1.23 -0.27486
1.24 -0.270804
1.25 -0.266642
1.26 -0.262736
1.27 -0.25937
1.28 -0.256779
1.29 -0.255146
1.3 -0.25459
1.31 -0.255169
1.32 -0.256975
1.33 -0.259781
1.34 -0.263427
1.35 -0.2677
1.36 -0.272348
1.37 -0.277087
1.38 -0.28159
1.39 -0.285514
1.4 -0.288596
1.41 -0.290591
1.42 -0.291296
1.43 -0.290564
1.44 -0.288309
1.45 -0.284345
1.46 -0.278908
1.47 -0.272145
1.48 -0.264257
1.49 -0.255504
1.5 -0.246189
1.51 -0.23666
1.52 -0.227331
1.53 -0.218578
1.54 -0.210747
1.55 -0.204156
1.56 -0.199079
1.57 -0.195736
1.58 -0.194476
1.59 -0.19521
1.6 -0.197882
1.61 -0.202388
1.62 -0.208542
1.63 -0.216086
1.64 -0.224722
1.65 -0.234041
1.66 -0.243537
1.67 -0.252761
1.68 -0.26126
1.69 -0.268594
1.7 -0.27435
1.71 -0.277956
1.72 -0.279199
1.73 -0.277915
1.74 -0.273968
1.75 -0.267307
1.76 -0.257973
1.77 -0.246037
1.78 -0.231598
1.79 -0.215198
1.8 -0.19721
1.81 -0.178059
1.82 -0.158204
1.83 -0.138123
1.84 -0.118353
1.85 -0.0994033
1.86 -0.0816821
1.87 -0.065557
1.88 -0.0513319
1.89 -0.0392368
1.9 -0.0294549
1.91 -0.0222513
1.92 -0.0173426
1.93 -0.0145989
1.94 -0.0138137
1.95 -0.0147139
1.96 -0.0169713
1.97 -0.020255
1.98 -0.0240919
1.99 -0.028032
2 -0.0316832
2.01 -0.034682
2.02 -0.0367073
2.03 -0.0374886
2.04 -0.0366554
2.05 -0.0342533
2.06 -0.0302631
2.07 -0.0247487
2.08 -0.0178546
2.09 -0.00980119
2.1 -0.000848052
2.11 0.00860003
2.12 0.0180937
2.13 0.0272084
2.14 0.0355103
2.15 0.0425727
2.16 0.0479923
2.17 0.0511498
2.18 0.0519194
2.19 0.0500899
2.2 0.0455117
2.21 0.0381186
2.22 0.0279308
2.23 0.0149424
2.24 -0.000680172
2.25 -0.0184565
2.26 -0.0380307
2.27 -0.0589918
2.28 -0.0808876
2.29 -0.103239
2.3 -0.125505
2.31 -0.147152
2.32 -0.167726
2.33 -0.186811
2.34 -0.204043
2.35 -0.219123
2.36 -0.231732
2.37 -0.241588
2.38 -0.248842
2.39 -0.253529
2.4 -0.255758
2.41 -0.255713
2.42 -0.25364
2.43 -0.24972
2.44 -0.244441
2.45 -0.238233
2.46 -0.231484
2.47 -0.22458
2.48 -0.217894
2.49 -0.211792
2.5 -0.206675
2.51 -0.202731
2.52 -0.200147
2.53 -0.199051
2.54 -0.19951
2.55 -0.201525
2.56 -0.205147
2.57 -0.210186
2.58 -0.216407
2.59 -0.223599
2.6 -0.231522
2.61 -0.239916
2.62 -0.248511
2.63 -0.257004
2.64 -0.265126
2.65 -0.272651
2.66 -0.279379
2.67 -0.285148
2.68 -0.289836
2.69 -0.293282
2.7 -0.295467
2.71 -0.296468
2.72 -0.296337
2.73 -0.295164
2.74 -0.293065
2.75 -0.290176
2.76 -0.286596
2.77 -0.282576
2.78 -0.278272
2.79 -0.273837
2.8 -0.269404
2.81 -0.26509
2.82 -0.261001
2.83 -0.25721
2.84 -0.253731
2.85 -0.250564
2.86 -0.247683
2.87 -0.245037
2.88 -0.242556
2.89 -0.240147
2.9 -0.237696
2.91 -0.235095
2.92 -0.232242
2.93 -0.229039
2.94 -0.225401
2.95 -0.221234
2.96 -0.216463
2.97 -0.211104
2.98 -0.205154
2.99 -0.198633
3 -0.191584
3.01 -0.184068
3.02 -0.176133
3.03 -0.167911
3.04 -0.159509
3.05 -0.151028
3.06 -0.142568
3.07 -0.13422
3.08 -0.126074
3.09 -0.118213
3.1 -0.110663
3.11 -0.103441
3.12 -0.096546
3.13 -0.0899524
3.14 -0.0836136
3.15 -0.0774713
3.16 -0.0714183
3.17 -0.0653477
3.18 -0.0591494
3.19 -0.052709
3.2 -0.0459121
3.21 -0.038637
3.22 -0.0307289
3.23 -0.0221515
3.24 -0.0128387
3.25 -0.00274458
3.26 0.00815533
3.27 0.0198631
3.28 0.0324133
3.29 0.0457308
3.3 0.0597152
3.31 0.0742838
3.32 0.0893409
3.33 0.104781
3.34 0.120497
3.35 0.136378
3.36 0.152291
3.37 0.168137
3.38 0.183829
3.39 0.199291
3.4 0.214466
3.41 0.22929
3.42 0.243741
3.43 0.257834
3.44 0.271583
3.45 0.285013
3.46 0.298161
3.47 0.311071
3.48 0.323773
3.49 0.336342
3.5 0.348817
3.51 0.361234
3.52 0.373612
3.53 0.385958
3.54 0.398258
3.55 0.410476
3.56 0.422561
3.57 0.434442
3.58 0.44603
3.59 0.45722
3.6 0.467894
3.61 0.477845
3.62 0.486982
3.63 0.495179
3.64 0.502303
3.65 0.50823
3.66 0.512849
3.67 0.516
3.68 0.517546
3.69 0.517545
3.7 0.515972
3.71 0.512826
3.72 0.508133
3.73 0.501944
3.74 0.494211
3.75 0.485145
3.76 0.4749
3.77 0.463616
3.78 0.451439
3.79 0.438528
3.8 0.42503
3.81 0.411105
3.82 0.396954
3.83 0.382722
3.84 0.368545
3.85 0.354541
3.86 0.340814
3.87 0.327483
3.88 0.314603
3.89 0.302202
3.9 0.290302
3.91 0.27891
3.92 0.268015
3.93 0.257599
3.94 0.247657
3.95 0.238093
3.96 0.228853
3.97 0.219881
3.98 0.211117
3.99 0.202503
4 0.193989
4.01 0.185515
4.02 0.177036
4.03 0.168518
4.04 0.159934
4.05 0.151267
4.06 0.142505
4.07 0.133638
4.08 0.124683
4.09 0.115654
4.1 0.106568
4.11 0.0974501
4.12 0.0883251
4.13 0.0792255
4.14 0.0701865
4.15 0.0612379
4.16 0.0524109
4.17 0.0437361
4.18 0.0352432
4.19 0.0269608
4.2 0.0189455
4.21 0.011199
4.22 0.00374353
4.23 -0.00339944
4.24 -0.0102104
4.25 -0.0166717
4.26 -0.0227497
4.27 -0.0284228
4.28 -0.0337069
4.29 -0.0385959
4.3 -0.0430879
4.31 -0.0471846
4.32 -0.0508925
4.33 -0.0541864
4.34 -0.0571185
4.35 -0.0597182
4.36 -0.0620147
4.37 -0.0640423
4.38 -0.0658407
4.39 -0.0674483
4.4 -0.0689143
4.41 -0.0703031
4.42 -0.0716665
4.43 -0.0730558
4.44 -0.0745207
4.45 -0.0761075
4.46 -0.077876
4.47 -0.0798538
4.48 -0.0820618
4.49 -0.0845163
4.5 -0.0872234
4.51 -0.0901791
4.52 -0.0933737
4.53 -0.0967899
4.54 -0.100368
4.55 -0.104062
4.56 -0.107814
4.57 -0.111565
4.58 -0.115249
4.59 -0.118781
4.6 -0.122091
4.61 -0.125121
4.62 -0.127811
4.63 -0.130109
4.64 -0.131974
4.65 -0.133366
4.66 -0.134222
4.67 -0.134587
4.68 -0.134472
4.69 -0.133898
4.7 -0.132903
4.71 -0.131532
4.72 -0.129826
4.73 -0.127867
4.74 -0.125742
4.75 -0.123526
4.76 -0.121296
4.77 -0.119125
4.78 -0.117086
4.79 -0.115268
4.8 -0.11371
4.81 -0.112454
4.82 -0.111531
4.83 -0.110962
4.84 -0.110754
4.85 -0.110922
4.86 -0.11145
4.87 -0.112287
4.88 -0.113399
4.89 -0.114744
4.9 -0.116276
4.91 -0.117949
4.92 -0.119718
4.93 -0.121526
4.94 -0.123331
4.95 -0.125099
4.96 -0.126803
4.97 -0.128422
4.98 -0.129942
4.99 -0.131358
5 -0.132684
5.01 -0.133932
5.02 -0.135123
5.03 -0.136279
5.04 -0.137425
5.05 -0.138591
5.06 -0.139802
5.07 -0.141076
5.08 -0.14243
5.09 -0.14387
5.1 -0.145397
5.11 -0.147005
5.12 -0.148678
5.13 -0.150382
5.14 -0.152085
5.15 -0.153747
5.16 -0.155324
5.17 -0.156769
5.18 -0.158014
5.19 -0.159019
5.2 -0.159748
5.21 -0.160166
5.22 -0.160246
5.23 -0.159969
5.24 -0.159321
5.25 -0.158282
5.26 -0.156906
5.27 -0.155222
5.28 -0.153271
5.29 -0.151104
5.3 -0.148776
5.31 -0.146348
5.32 -0.143896
5.33 -0.141488
5.34 -0.139186
5.35 -0.137044
5.36 -0.13511
5.37 -0.133422
5.38 -0.132031
5.39 -0.130917
5.4 -0.130072
5.41 -0.129474
5.42 -0.129087
5.43 -0.128862
5.44 -0.128742
5.45 -0.128646
5.46 -0.128494
5.47 -0.128209
5.48 -0.127714
5.49 -0.126938
5.5 -0.125816
5.51 -0.124244
5.52 -0.122224
5.53 -0.119737
5.54 -0.116777
5.55 -0.113356
5.56 -0.109505
5.57 -0.105253
5.58 -0.100671
5.59 -0.0958628
5.6 -0.0909156
5.61 -0.0859248
5.62 -0.0809882
5.63 -0.0762029
5.64 -0.0716968
5.65 -0.067536
5.66 -0.0637861
5.67 -0.0604993
5.68 -0.0577093
5.69 -0.0554302
5.7 -0.0536759
5.71 -0.0524246
5.72 -0.0515858
5.73 -0.051087
5.74 -0.0508398
5.75 -0.0507428
5.76 -0.0506858
5.77 -0.0505342
5.78 -0.050165
5.79 -0.0494695
5.8 -0.0483466
5.81 -0.0467091
5.82 -0.0444865
5.83 -0.0416069
5.84 -0.0380087
5.85 -0.0337495
5.86 -0.0288575
5.87 -0.0233852
5.88 -0.0174074
5.89 -0.0110194
5.9 -0.00431905
5.91 0.00253448
5.92 0.00939667
5.93 0.0161294
5.94 0.0225973
5.95 0.0286724
5.96 0.0342259
5.97 0.0391046
5.98 0.0432874
5.99 0.0467277
6 0.0494051
6.01 0.0513271
6.02 0.0525288
6.03 0.0530294
6.04 0.0529528
6.05 0.0524402
6.06 0.051622
6.07 0.0506409
6.08 0.0496467
6.09 0.0487943
6.1 0.0482759
6.11 0.0482085
6.12 0.0487114
6.13 0.0498835
6.14 0.0517996
6.15 0.0545077
6.16 0.0580779
6.17 0.0624842
6.18 0.0676344
6.19 0.0734517
6.2 0.0798336
6.21 0.0866553
6.22 0.0937742
6.23 0.101031
6.24 0.10823
6.25 0.115205
6.26 0.121794
6.27 0.127847
6.28 0.133229
6.29 0.137775
6.3 0.141376
6.31 0.144023
6.32 0.145689
6.33 0.146373
6.34 0.146105
6.35 0.144943
6.36 0.142895
6.37 0.140156
6.38 0.136865
6.39 0.13316
6.4 0.129189
6.41 0.1251
6.42 0.121047
6.43 0.117192
6.44 0.113652
6.45 0.11053
6.46 0.107908
6.47 0.105845
6.48 0.104374
6.49 0.10356
6.5 0.103337
6.51 0.103645
6.52 0.104417
6.53 0.105571
6.54 0.107006
6.55 0.108618
6.56 0.110281
6.57 0.111866
6.58 0.113266
6.59 0.11438
6.6 0.115119
6.61 0.11541
6.62 0.115154
6.63 0.114339
6.64 0.112971
6.65 0.111062
6.66 0.108641
6.67 0.105757
6.68 0.102465
6.69 0.0988268
6.7 0.0949679
6.71 0.0909798
6.72 0.0869554
6.73 0.0829853
6.74 0.0791541
6.75 0.0755581
6.76 0.0722621
6.77 0.0693026
6.78 0.0667102
6.79 0.0644996
6.8 0.0626691
6.81 0.0612043
6.82 0.0601013
6.83 0.0592738
6.84 0.0586651
6.85 0.0582113
6.86 0.0578448
6.87 0.0574968
6.88 0.0570934
6.89 0.056564
6.9 0.0558592
6.91 0.0549363
6.92 0.0537637
6.93 0.0523222
6.94 0.0506056
6.95 0.0485917
6.96 0.0463329
6.97 0.0438624
6.98 0.041221
6.99 0.0384566
7 0.0356215
7.01 0.0327718
7.02 0.0299698
7.03 0.0272654
7.04 0.0247025
7.05 0.0223171
7.06 0.0201361
7.07 0.0181761
7.08 0.0164654
7.09 0.0149755
7.1 0.0136842
7.11 0.0125629
7.12 0.0115746
7.13 0.010676
7.14 0.00981908
7.15 0.00894629
7.16 0.00800571
7.17 0.00695115
7.18 0.00574168
7.19 0.00434366
7.2 0.00273231
7.21 0.000871723
7.22 -0.00122448
7.23 -0.00353931
7.24 -0.00605011
7.25 -0.00872356
7.26 -0.0115167
7.27 -0.0143787
7.28 -0.0172446
7.29 -0.0200466
7.3 -0.0227215
7.31 -0.0252067
7.32 -0.0274435
7.33 -0.0293785
7.34 -0.0309353
7.35 -0.0320907
7.36 -0.0328356
7.37 -0.0331602
7.38 -0.0330676
7.39 -0.0325729
7.4 -0.0316981
7.41 -0.0304602
7.42 -0.0289473
7.43 -0.0272185
7.44 -0.0253385
7.45 -0.0233761
7.46 -0.0214015
7.47 -0.0194932
7.48 -0.0177255
7.49 -0.0161555
7.5 -0.0148362
7.51 -0.013812
7.52 -0.0131176
7.53 -0.0127795
7.54 -0.01285
7.55 -0.0132887
7.56 -0.0140847
7.57 -0.0152175
7.58 -0.016658
7.59 -0.0183701
7.6 -0.0203226
7.61 -0.0224614
7.62 -0.0247248
7.63 -0.0270637
7.64 -0.0294302
7.65 -0.0317789
7.66 -0.0340685
7.67 -0.0362483
7.68 -0.0382959
7.69 -0.040189
7.7 -0.0419111
7.71 -0.0434522
7.72 -0.0448084
7.73 -0.0459729
7.74 -0.0469502
7.75 -0.0477647
7.76 -0.0484311
7.77 -0.0489663
7.78 -0.0493883
7.79 -0.0497157
7.8 -0.0499603
7.81 -0.0501471
7.82 -0.0502922
7.83 -0.0504083
7.84 -0.0505057
7.85 -0.0505924
7.86 -0.0506741
7.87 -0.0507541
7.88 -0.0508338
7.89 -0.0509126
7.9 -0.0509884
7.91 -0.0510584
7.92 -0.051119
7.93 -0.0511646
7.94 -0.0511916
7.95 -0.0511961
7.96 -0.0511741
7.97 -0.0511216
7.98 -0.0510344
7.99 -0.0509074
8 -0.0507327
8.01 -0.0505089
8.02 -0.0502305
8.03 -0.0498916
8.04 -0.0494854
8.05 -0.0490046
8.06 -0.0484345
8.07 -0.0477695
8.08 -0.0470053
8.09 -0.0461351
8.1 -0.0451534
8.11 -0.0440565
8.12 -0.0428415
8.13 -0.0415005
8.14 -0.0400516
8.15 -0.0385052
8.16 -0.0368759
8.17 -0.0351828
8.18 -0.0334496
8.19 -0.0317055
8.2 -0.0299876
8.21 -0.0283322
8.22 -0.0267769
8.23 -0.0253605
8.24 -0.0241217
8.25 -0.0230982
8.26 -0.0223553
8.27 -0.0218958
8.28 -0.0217418
8.29 -0.0219079
8.3 -0.0224002
8.31 -0.0232155
8.32 -0.0243566
8.33 -0.0257957
8.34 -0.0274776
8.35 -0.0293561
8.36 -0.0313761
8.37 -0.0334751
8.38 -0.0355842
8.39 -0.0376155
8.4 -0.0394926
8.41 -0.0411415
8.42 -0.0424906
8.43 -0.0434738
8.44 -0.0440325
8.45 -0.0440945
8.46 -0.0436051
8.47 -0.0425783
8.48 -0.0410076
8.49 -0.0389017
8.5 -0.0362841
8.51 -0.0331928
8.52 -0.0296445
8.53 -0.0257462
8.54 -0.0215829
8.55 -0.0172396
8.56 -0.0128061
8.57 -0.00837522
8.58 -0.00404551
8.59 7.35726e-05
8.6 0.00391045
8.61 0.00739367
8.62 0.0104633
8.63 0.0130728
8.64 0.0151901
8.65 0.0167548
8.66 0.0177984
8.67 0.0183563
8.68 0.018463
8.69 0.0181666
8.7 0.0175269
8.71 0.0166088
8.72 0.0154849
8.73 0.0142609
8.74 0.0130181
8.75 0.011836
8.76 0.0107886
8.77 0.00994256
8.78 0.00937807
8.79 0.00913529
8.8 0.00923179
8.81 0.00968203
8.82 0.0104862
8.83 0.0116305
8.84 0.0130913
8.85 0.0148492
8.86 0.0168205
8.87 0.0189461
8.88 0.0211621
8.89 0.0234019
8.9 0.0255989
8.91 0.027678
8.92 0.0295737
8.93 0.031242
8.94 0.0326426
8.95 0.0337455
8.96 0.0345323
8.97 0.0349965
8.98 0.0351089
8.99 0.0349268
9 0.0344801
9.01 0.0338071
9.02 0.0329528
9.03 0.0319671
9.04 0.0309009
9.05 0.0298146
9.06 0.0287622
9.07 0.0277892
9.08 0.0269342
9.09 0.0262285
9.1 0.025694
9.11 0.025363
9.12 0.0252184
9.13 0.0252481
9.14 0.0254329
9.15 0.0257455
9.16 0.0261522
9.17 0.0266147
9.18 0.0270855
9.19 0.0275183
9.2 0.0278723
9.21 0.0281101
9.22 0.0281998
9.23 0.0281165
9.24 0.0278244
9.25 0.0273309
9.26 0.0266447
9.27 0.0257798
9.28 0.0247594
9.29 0.023615
9.3 0.0223834
9.31 0.0211125
9.32 0.0198567
9.33 0.0186645
9.34 0.0175829
9.35 0.016656
9.36 0.0159223
9.37 0.0154341
9.38 0.0152037
9.39 0.0152338
9.4 0.0155235
9.41 0.0160611
9.42 0.0168244
9.43 0.0177836
9.44 0.0189023
9.45 0.0201117
9.46 0.0213555
9.47 0.0225749
9.48 0.0237098
9.49 0.0247022
9.5 0.0254793
9.51 0.0259934
9.52 0.0262159
9.53 0.0261194
9.54 0.0256879
9.55 0.0249177
9.56 0.0238147
9.57 0.0223738
9.58 0.0206664
9.59 0.0187388
9.6 0.016646
9.61 0.0144496
9.62 0.0122157
9.63 0.0100188
9.64 0.00793623
9.65 0.00602908
9.66 0.00435453
9.67 0.00296157
9.68 0.00188909
9.69 0.00116445
9.7 0.000844486
9.71 0.000886937
9.72 0.00127595
9.73 0.00198369
9.74 0.00297082
9.75 0.00418796
9.76 0.00558297
9.77 0.00708362
9.78 0.00861161
9.79 0.0100991
9.8 0.0114808
9.81 0.0126958
9.82 0.0136908
9.83 0.0143902
9.84 0.0147836
9.85 0.014857
9.86 0.0146058
9.87 0.014039
9.88 0.0131783
9.89 0.0120495
9.9 0.0106979
9.91 0.00919944
9.92 0.00761753
9.93 0.00601966
9.94 0.00447505
9.95 0.00305211
9.96 0.00183884
9.97 0.000886829
9.98 0.000239748
9.99 -6.46688e-05
10 -6.69917e-07
10.01 0.000444503
10.02 0.00128072
10.03 0.0025112
10.04 0.00407144
10.05 0.00591835
10.06 0.00799833
10.07 0.0102491
10.08 0.0126018
10.09 0.0149791
10.1 0.0172952
10.11 0.0194756
10.12 0.0214506
10.13 0.0231566
10.14 0.024538
10.15 0.0255418
10.16 0.0260983
10.17 0.0262262
10.18 0.0259201
10.19 0.0251872
10.2 0.0240474
10.21 0.0225321
10.22 0.0206631
10.23 0.0185081
10.24 0.0161418
10.25 0.0136283
10.26 0.0110341
10.27 0.00842622
10.28 0.00587086
10.29 0.00344823
10.3 0.00120575
10.31 -0.000809275
10.32 -0.00255797
10.33 -0.00401066
10.34 -0.00514735
10.35 -0.0059383
10.36 -0.0063855
10.37 -0.00651882
10.38 -0.00635767
10.39 -0.00592866
10.4 -0.00526433
10.41 -0.00440195
10.42 -0.00336916
10.43 -0.00222988
10.44 -0.00102775
10.45 0.000195219
10.46 0.00139912
10.47 0.00254702
10.48 0.00359991
10.49 0.00452301
10.5 0.0052999
10.51 0.00591253
10.52 0.00634764
10.53 0.00659656
10.54 0.00665487
10.55 0.0065029
10.56 0.006161
10.57 0.00563864
10.58 0.00494471
10.59 0.00409001
10.6 0.00308685
10.61 0.00194431
10.62 0.000674172
10.63 -0.000697378
10.64 -0.00215384
10.65 -0.00367791
10.66 -0.00525136
10.67 -0.00685506
10.68 -0.00846773
10.69 -0.0100647
10.7 -0.0116231
10.71 -0.0131193
10.72 -0.0145289
10.73 -0.015827
10.74 -0.0169841
10.75 -0.0179623
10.76 -0.0187512
10.77 -0.0193295
10.78 -0.0196787
10.79 -0.0197837
10.8 -0.0196339
10.81 -0.0192026
10.82 -0.0185018
10.83 -0.0175493
10.84 -0.0163596
10.85 -0.014954
10.86 -0.0133607
10.87 -0.0116123
10.88 -0.00974539
10.89 -0.00782133
10.9 -0.00589051
10.91 -0.00400574
10.92 -0.00222087
10.93 -0.000589219
10.94 0.000820528
10.95 0.001959
10.96 0.00279611
10.97 0.00329879
10.98 0.0034425
10.99 0.00321227
11 0.00260182
11.01 0.00157935
11.02 0.00020788
11.03 -0.00148143
11.04 -0.00344739
11.05 -0.00563969
11.06 -0.00800023
11.07 -0.0104665
11.08 -0.0129585
11.09 -0.0153992
11.1 -0.0177175
11.11 -0.0198446
11.12 -0.0217163
11.13 -0.0232748
11.14 -0.024426
11.15 -0.0251662
11.16 -0.0254725
11.17 -0.0253315
11.18 -0.0247426
11.19 -0.0237175
11.2 -0.0222628
11.21 -0.0204112
11.22 -0.0182396
11.23 -0.0158043
11.24 -0.0131678
11.25 -0.0103973
11.26 -0.0075622
11.27 -0.00473945
11.28 -0.00200315
11.29 0.000584781
11.3 0.00296852
11.31 0.00510015
11.32 0.00694095
11.33 0.00845026
11.34 0.00959349
11.35 0.010393
11.36 0.010855
11.37 0.0109959
11.38 0.0108408
11.39 0.0104223
11.4 0.00976347
11.41 0.00892711
11.42 0.00796607
11.43 0.0069274
11.44 0.00585686
11.45 0.00479733
11.46 0.00378948
11.47 0.00287551
11.48 0.00207477
11.49 0.00140459
11.5 0.000874804
11.51 0.000487796
11.52 0.000238888
11.53 0.000125445
11.54 0.00012302
11.55 0.000204569
11.56 0.000345264
11.57 0.000518854
11.58 0.000699024
11.59 0.000860158
11.6 0.000973605
11.61 0.00102402
11.62 0.000998324
11.63 0.000888739
11.64 0.000693072
11.65 0.000414783
11.66 5.88606e-05
11.67 -0.000356912
11.68 -0.000809709
11.69 -0.00127735
11.7 -0.00173572
11.71 -0.00215995
11.72 -0.00252551
11.73 -0.00279821
11.74 -0.00296659
11.75 -0.00301605
11.76 -0.00293703
11.77 -0.0027255
11.78 -0.00238338
11.79 -0.00191264
11.8 -0.00132928
11.81 -0.000661313
11.82 6.63032e-05
