# xPDFsuite Configuration #
[PDF]
wavelength = 0.1
dataformat = QA
inputfile = BiMsol6_insitu_700 C-00011.xy
backgroundfile = Quartz2mm-dist500-00000.xy
mode = xray
bgscale = 0.0042
composition = Bi2Fe4O9
outputtype = gr
qmaxinst = 24.998449118
qmin = 0.1
qmax = 21.4986662415
rmax = 80.0
rmin = 0.0
rstep = 0.01
rpoly = 0.9

[Misc]
inputdir = C:/Data/Seafile/CPH/Beamtime/Desy Oct 20/In situ data/Processed/BiMsol6/PDF
savedir = C:/Data/Seafile/CPH/Beamtime/Desy Oct 20/In situ data/PDF/BiMsol6
backgroundfilefull = C:/Data/Seafile/CPH/Beamtime/Desy Oct 20/In situ data/Processed/Standard_Empty_Cap/Quartz2mm-dist500-00000.xy

#### start data
#S 1
#L r($\AA$)  G($\AA^{-2}$)
0 0
0.01 0.00718861
0.02 0.0139786
0.03 0.0200287
0.04 0.0250324
0.05 0.0287323
0.06 0.0309313
0.07 0.0314137
0.08 0.030115
0.09 0.0271908
0.1 0.0227688
0.11 0.0170476
0.12 0.0102887
0.13 0.00280498
0.14 -0.00505391
0.15 -0.0128417
0.16 -0.0201826
0.17 -0.0267235
0.18 -0.0321466
0.19 -0.036185
0.2 -0.0385642
0.21 -0.0390931
0.22 -0.0378725
0.23 -0.0349679
0.24 -0.0305302
0.25 -0.0247907
0.26 -0.0180518
0.27 -0.0106545
0.28 -0.00310278
0.29 0.00415529
0.3 0.0106847
0.31 0.0160707
0.32 0.0199385
0.33 0.0219087
0.34 0.0216084
0.35 0.0190819
0.36 0.0143163
0.37 0.00741024
0.38 -0.00142482
0.39 -0.0118674
0.4 -0.0235483
0.41 -0.0358144
0.42 -0.0480242
0.43 -0.0595269
0.44 -0.0696487
0.45 -0.077718
0.46 -0.0830264
0.47 -0.0846657
0.48 -0.0824304
0.49 -0.0759517
0.5 -0.0649899
0.51 -0.0494504
0.52 -0.0293932
0.53 -0.00475486
0.54 0.0238826
0.55 0.0557556
0.56 0.0901521
0.57 0.126242
0.58 0.163098
0.59 0.199715
0.6 0.234803
0.61 0.267374
0.62 0.296426
0.63 0.321026
0.64 0.340341
0.65 0.353662
0.66 0.360004
0.67 0.35899
0.68 0.350837
0.69 0.33559
0.7 0.313486
0.71 0.284949
0.72 0.25058
0.73 0.210658
0.74 0.166754
0.75 0.119905
0.76 0.0712022
0.77 0.0217734
0.78 -0.027255
0.79 -0.0746594
0.8 -0.119232
0.81 -0.160185
0.82 -0.19675
0.83 -0.22831
0.84 -0.254412
0.85 -0.274778
0.86 -0.288716
0.87 -0.296871
0.88 -0.299614
0.89 -0.297389
0.9 -0.290769
0.91 -0.280435
0.92 -0.267069
0.93 -0.251523
0.94 -0.234854
0.95 -0.217887
0.96 -0.201403
0.97 -0.186115
0.98 -0.172651
0.99 -0.16178
1 -0.153767
1.01 -0.148783
1.02 -0.146926
1.03 -0.148166
1.04 -0.152351
1.05 -0.159281
1.06 -0.168682
1.07 -0.179869
1.08 -0.192343
1.09 -0.205581
1.1 -0.219053
1.11 -0.23225
1.12 -0.244606
1.13 -0.255696
1.14 -0.26523
1.15 -0.27297
1.16 -0.278772
1.17 -0.282587
1.18 -0.284424
1.19 -0.284288
1.2 -0.282596
1.21 -0.279636
1.22 -0.275737
1.23 -0.271261
1.24 -0.266577
1.25 -0.262086
1.26 -0.258167
1.27 -0.255097
1.28 -0.253106
1.29 -0.252359
1.3 -0.252944
1.31 -0.254885
1.32 -0.258233
1.33 -0.262684
1.34 -0.268016
1.35 -0.273957
1.36 -0.280191
1.37 -0.28638
1.38 -0.292128
1.39 -0.297042
1.4 -0.300838
1.41 -0.303247
1.42 -0.304054
1.43 -0.303113
1.44 -0.300347
1.45 -0.295566
1.46 -0.289071
1.47 -0.281053
1.48 -0.271761
1.49 -0.261508
1.5 -0.250652
1.51 -0.2396
1.52 -0.22883
1.53 -0.218764
1.54 -0.209793
1.55 -0.202271
1.56 -0.196502
1.57 -0.192724
1.58 -0.191326
1.59 -0.192196
1.6 -0.195266
1.61 -0.200414
1.62 -0.207434
1.63 -0.216039
1.64 -0.225904
1.65 -0.236586
1.66 -0.247532
1.67 -0.258257
1.68 -0.268278
1.69 -0.277123
1.7 -0.284354
1.71 -0.289371
1.72 -0.291947
1.73 -0.291907
1.74 -0.289108
1.75 -0.283496
1.76 -0.27511
1.77 -0.264018
1.78 -0.250317
1.79 -0.234557
1.8 -0.217112
1.81 -0.198404
1.82 -0.17889
1.83 -0.159038
1.84 -0.139366
1.85 -0.120373
1.86 -0.102455
1.87 -0.0859617
1.88 -0.0711796
1.89 -0.058321
1.9 -0.0475499
1.91 -0.0390972
1.92 -0.032696
1.93 -0.0282154
1.94 -0.0254553
1.95 -0.0241564
1.96 -0.0240126
1.97 -0.0247151
1.98 -0.0258394
1.99 -0.026992
2 -0.0278359
2.01 -0.0280668
2.02 -0.0274266
2.03 -0.0257098
2.04 -0.0226414
2.05 -0.0183053
2.06 -0.0127353
2.07 -0.00603938
2.08 0.00160358
2.09 0.00995083
2.1 0.0187075
2.11 0.027475
2.12 0.0358555
2.13 0.0434618
2.14 0.0499113
2.15 0.0548403
2.16 0.0579189
2.17 0.0586049
2.18 0.0568821
2.19 0.0526295
2.2 0.0457858
2.21 0.0363687
2.22 0.0244748
2.23 0.0101843
2.24 -0.00626603
2.25 -0.0243902
2.26 -0.0438152
2.27 -0.0641306
2.28 -0.0849028
2.29 -0.105689
2.3 -0.125967
2.31 -0.145312
2.32 -0.163361
2.33 -0.179787
2.34 -0.194325
2.35 -0.20677
2.36 -0.216914
2.37 -0.224588
2.38 -0.230012
2.39 -0.233286
2.4 -0.234575
2.41 -0.234098
2.42 -0.232119
2.43 -0.228861
2.44 -0.224758
2.45 -0.220177
2.46 -0.215445
2.47 -0.210874
2.48 -0.206748
2.49 -0.203337
2.5 -0.200928
2.51 -0.199595
2.52 -0.199425
2.53 -0.200453
2.54 -0.202662
2.55 -0.205985
2.56 -0.210376
2.57 -0.215626
2.58 -0.221508
2.59 -0.227819
2.6 -0.234345
2.61 -0.240871
2.62 -0.247185
2.63 -0.253037
2.64 -0.258291
2.65 -0.262814
2.66 -0.266507
2.67 -0.269305
2.68 -0.271181
2.69 -0.272083
2.7 -0.272074
2.71 -0.271276
2.72 -0.269788
2.73 -0.267723
2.74 -0.265207
2.75 -0.262367
2.76 -0.259324
2.77 -0.256225
2.78 -0.253172
2.79 -0.250247
2.8 -0.247509
2.81 -0.244994
2.82 -0.242725
2.83 -0.240686
2.84 -0.238822
2.85 -0.237075
2.86 -0.235371
2.87 -0.233627
2.88 -0.231754
2.89 -0.229631
2.9 -0.227188
2.91 -0.224358
2.92 -0.221084
2.93 -0.217328
2.94 -0.213071
2.95 -0.208297
2.96 -0.20302
2.97 -0.197329
2.98 -0.19129
2.99 -0.184986
3 -0.178508
3.01 -0.171956
3.02 -0.165441
3.03 -0.159068
3.04 -0.15292
3.05 -0.147068
3.06 -0.141565
3.07 -0.136441
3.08 -0.131717
3.09 -0.12739
3.1 -0.123379
3.11 -0.119614
3.12 -0.116003
3.13 -0.112436
3.14 -0.108791
3.15 -0.104905
3.16 -0.100637
3.17 -0.0958596
3.18 -0.0904474
3.19 -0.0842878
3.2 -0.0772852
3.21 -0.0693451
3.22 -0.0603409
3.23 -0.050345
3.24 -0.0393674
3.25 -0.0274441
3.26 -0.0146363
3.27 -0.0010273
3.28 0.0133231
3.29 0.0282583
3.3 0.0436198
3.31 0.0592752
3.32 0.0750939
3.33 0.090952
3.34 0.106736
3.35 0.122322
3.36 0.13765
3.37 0.15267
3.38 0.167358
3.39 0.18171
3.4 0.195748
3.41 0.209502
3.42 0.223045
3.43 0.236471
3.44 0.249867
3.45 0.263323
3.46 0.276929
3.47 0.290766
3.48 0.304947
3.49 0.319491
3.5 0.334424
3.51 0.349747
3.52 0.365435
3.53 0.381431
3.54 0.397659
3.55 0.413989
3.56 0.430264
3.57 0.446321
3.58 0.461977
3.59 0.47704
3.6 0.491311
3.61 0.504463
3.62 0.516372
3.63 0.52687
3.64 0.535793
3.65 0.542998
3.66 0.54837
3.67 0.551744
3.68 0.552991
3.69 0.552248
3.7 0.549537
3.71 0.544912
3.72 0.538459
3.73 0.530289
3.74 0.520407
3.75 0.5091
3.76 0.496583
3.77 0.483038
3.78 0.468655
3.79 0.453623
3.8 0.438116
3.81 0.422316
3.82 0.406418
3.83 0.390566
3.84 0.374883
3.85 0.359476
3.86 0.34443
3.87 0.329852
3.88 0.315773
3.89 0.302202
3.9 0.289153
3.91 0.276621
3.92 0.264596
3.93 0.253064
3.94 0.242032
3.95 0.231419
3.96 0.221194
3.97 0.211322
3.98 0.201772
3.99 0.192514
4 0.183535
4.01 0.174801
4.02 0.166276
4.03 0.15794
4.04 0.149771
4.05 0.14175
4.06 0.133856
4.07 0.126075
4.08 0.118372
4.09 0.11072
4.1 0.103094
4.11 0.0954663
4.12 0.0878094
4.13 0.0800916
4.14 0.0722848
4.15 0.0643718
4.16 0.0563372
4.17 0.0481721
4.18 0.0398755
4.19 0.0314551
4.2 0.0229199
4.21 0.0143143
4.22 0.00567998
4.23 -0.00293168
4.24 -0.0114604
4.25 -0.0198384
4.26 -0.0279768
4.27 -0.035781
4.28 -0.0431892
4.29 -0.0501261
4.3 -0.0565219
4.31 -0.0623154
4.32 -0.0674563
4.33 -0.0718355
4.34 -0.0754931
4.35 -0.078441
4.36 -0.0806988
4.37 -0.082305
4.38 -0.083316
4.39 -0.0837887
4.4 -0.0838077
4.41 -0.0835167
4.42 -0.0830272
4.43 -0.0824555
4.44 -0.0819183
4.45 -0.0815293
4.46 -0.0814267
4.47 -0.0816975
4.48 -0.0824102
4.49 -0.0836212
4.5 -0.0853661
4.51 -0.0876583
4.52 -0.090501
4.53 -0.0938854
4.54 -0.0977022
4.55 -0.101871
4.56 -0.106293
4.57 -0.110859
4.58 -0.115449
4.59 -0.119918
4.6 -0.124131
4.61 -0.127974
4.62 -0.131338
4.63 -0.134131
4.64 -0.136277
4.65 -0.13771
4.66 -0.138338
4.67 -0.138232
4.68 -0.137419
4.69 -0.13595
4.7 -0.133896
4.71 -0.13135
4.72 -0.128404
4.73 -0.125207
4.74 -0.121908
4.75 -0.118639
4.76 -0.11553
4.77 -0.112704
4.78 -0.110274
4.79 -0.108395
4.8 -0.107088
4.81 -0.106401
4.82 -0.106355
4.83 -0.106948
4.84 -0.108152
4.85 -0.109947
4.86 -0.11225
4.87 -0.114936
4.88 -0.117902
4.89 -0.121034
4.9 -0.124218
4.91 -0.127339
4.92 -0.130257
4.93 -0.132885
4.94 -0.135143
4.95 -0.136969
4.96 -0.138321
4.97 -0.139179
4.98 -0.139524
4.99 -0.139375
5 -0.138819
5.01 -0.137922
5.02 -0.136769
5.03 -0.135452
5.04 -0.134073
5.05 -0.132749
5.06 -0.131588
5.07 -0.130679
5.08 -0.130103
5.09 -0.129924
5.1 -0.130188
5.11 -0.130938
5.12 -0.132198
5.13 -0.133904
5.14 -0.136012
5.15 -0.138458
5.16 -0.14116
5.17 -0.144025
5.18 -0.146941
5.19 -0.149784
5.2 -0.152439
5.21 -0.154801
5.22 -0.156774
5.23 -0.158274
5.24 -0.159217
5.25 -0.159513
5.26 -0.159192
5.27 -0.158254
5.28 -0.156724
5.29 -0.154648
5.3 -0.152091
5.31 -0.149111
5.32 -0.145834
5.33 -0.142384
5.34 -0.138872
5.35 -0.13541
5.36 -0.132104
5.37 -0.129056
5.38 -0.12639
5.39 -0.124138
5.4 -0.122343
5.41 -0.121026
5.42 -0.120183
5.43 -0.11979
5.44 -0.119822
5.45 -0.120194
5.46 -0.120797
5.47 -0.121533
5.48 -0.122293
5.49 -0.122963
5.5 -0.123432
5.51 -0.123547
5.52 -0.12324
5.53 -0.122432
5.54 -0.121061
5.55 -0.119088
5.56 -0.116494
5.57 -0.113251
5.58 -0.109392
5.59 -0.10501
5.6 -0.10018
5.61 -0.0949951
5.62 -0.0895587
5.63 -0.0839848
5.64 -0.0784023
5.65 -0.0729422
5.66 -0.0677152
5.67 -0.0628216
5.68 -0.0583474
5.69 -0.0543608
5.7 -0.0509343
5.71 -0.04811
5.72 -0.0458442
5.73 -0.0441101
5.74 -0.0428586
5.75 -0.0420211
5.76 -0.041512
5.77 -0.0412435
5.78 -0.0410756
5.79 -0.0408895
5.8 -0.0405713
5.81 -0.0400126
5.82 -0.0391144
5.83 -0.0377746
5.84 -0.0358925
5.85 -0.0334618
5.86 -0.0304609
5.87 -0.0268909
5.88 -0.0227752
5.89 -0.0181589
5.9 -0.0130761
5.91 -0.00764525
5.92 -0.00197771
5.93 0.00381967
5.94 0.00963579
5.95 0.0153596
5.96 0.0208779
5.97 0.0260601
5.98 0.0308458
5.99 0.0351709
6 0.0389905
6.01 0.0422805
6.02 0.0450388
6.03 0.0472497
6.04 0.0489796
6.05 0.0503146
6.06 0.051335
6.07 0.052134
6.08 0.0528131
6.09 0.0534799
6.1 0.0542626
6.11 0.0552609
6.12 0.0565661
6.13 0.0582561
6.14 0.0603926
6.15 0.0630185
6.16 0.0661883
6.17 0.0698935
6.18 0.0740787
6.19 0.0786953
6.2 0.0836753
6.21 0.0889336
6.22 0.0943716
6.23 0.099875
6.24 0.105309
6.25 0.110555
6.26 0.115501
6.27 0.12004
6.28 0.124075
6.29 0.127491
6.3 0.13021
6.31 0.132231
6.32 0.133537
6.33 0.134131
6.34 0.134036
6.35 0.133298
6.36 0.131925
6.37 0.130061
6.38 0.127806
6.39 0.12526
6.4 0.12253
6.41 0.119722
6.42 0.116944
6.43 0.11431
6.44 0.111901
6.45 0.109785
6.46 0.108018
6.47 0.106639
6.48 0.105666
6.49 0.10514
6.5 0.105011
6.51 0.105234
6.52 0.105761
6.53 0.10653
6.54 0.107472
6.55 0.10851
6.56 0.109557
6.57 0.110526
6.58 0.111342
6.59 0.111937
6.6 0.112251
6.61 0.112235
6.62 0.111818
6.63 0.110994
6.64 0.109766
6.65 0.108141
6.66 0.106136
6.67 0.103779
6.68 0.101104
6.69 0.0981424
6.7 0.0949777
6.71 0.0916661
6.72 0.088265
6.73 0.0848308
6.74 0.0814168
6.75 0.0780805
6.76 0.0748678
6.77 0.0718094
6.78 0.0689315
6.79 0.0662526
6.8 0.0637831
6.81 0.0615276
6.82 0.059502
6.83 0.0576716
6.84 0.0560208
6.85 0.0545302
6.86 0.0531783
6.87 0.0519427
6.88 0.0508054
6.89 0.0497412
6.9 0.048726
6.91 0.0477431
6.92 0.0467783
6.93 0.0458204
6.94 0.0448604
6.95 0.0438905
6.96 0.0429066
6.97 0.0419053
6.98 0.0408838
6.99 0.0398387
7 0.0387658
7.01 0.0376577
7.02 0.0365048
7.03 0.0352996
7.04 0.0340302
7.05 0.0326828
7.06 0.0312424
7.07 0.0296929
7.08 0.0280039
7.09 0.0261697
7.1 0.024179
7.11 0.0220217
7.12 0.0196914
7.13 0.0171862
7.14 0.0145034
7.15 0.0116482
7.16 0.00865125
7.17 0.00553591
7.18 0.00233157
7.19 -0.000926981
7.2 -0.00420028
7.21 -0.00743829
7.22 -0.0105916
7.23 -0.0136144
7.24 -0.0164606
7.25 -0.0190866
7.26 -0.0214524
7.27 -0.023514
7.28 -0.0252203
7.29 -0.0265795
7.3 -0.0275812
7.31 -0.0282239
7.32 -0.0285151
7.33 -0.0284711
7.34 -0.0280943
7.35 -0.0274362
7.36 -0.0265483
7.37 -0.0254758
7.38 -0.024267
7.39 -0.0229722
7.4 -0.021642
7.41 -0.0203322
7.42 -0.01909
7.43 -0.0179553
7.44 -0.016962
7.45 -0.0161372
7.46 -0.0155008
7.47 -0.0150794
7.48 -0.0148723
7.49 -0.0148654
7.5 -0.0150475
7.51 -0.015402
7.52 -0.0159077
7.53 -0.016541
7.54 -0.0172827
7.55 -0.0180928
7.56 -0.0189454
7.57 -0.0198173
7.58 -0.0206881
7.59 -0.021542
7.6 -0.0223651
7.61 -0.0231508
7.62 -0.0239006
7.63 -0.0246186
7.64 -0.0253135
7.65 -0.0259969
7.66 -0.0266831
7.67 -0.0273915
7.68 -0.0281378
7.69 -0.0289366
7.7 -0.0298006
7.71 -0.0307397
7.72 -0.0317597
7.73 -0.0328663
7.74 -0.0340572
7.75 -0.0353176
7.76 -0.0366345
7.77 -0.0379907
7.78 -0.0393658
7.79 -0.0407373
7.8 -0.0420761
7.81 -0.0433578
7.82 -0.0445604
7.83 -0.0456639
7.84 -0.0466514
7.85 -0.0475107
7.86 -0.0482292
7.87 -0.0487992
7.88 -0.0492366
7.89 -0.0495515
7.9 -0.0497587
7.91 -0.0498772
7.92 -0.0499288
7.93 -0.0499355
7.94 -0.0499271
7.95 -0.0499274
7.96 -0.0499565
7.97 -0.0500307
7.98 -0.0501607
7.99 -0.0503531
8 -0.0506087
8.01 -0.0509107
8.02 -0.0512413
8.03 -0.0515758
8.04 -0.0518836
8.05 -0.0521298
8.06 -0.052265
8.07 -0.0522482
8.08 -0.0520447
8.09 -0.0516186
8.1 -0.0509393
8.11 -0.049983
8.12 -0.0487303
8.13 -0.0471508
8.14 -0.0452842
8.15 -0.0431522
8.16 -0.0407886
8.17 -0.0382389
8.18 -0.0355594
8.19 -0.0328168
8.2 -0.0300971
8.21 -0.0274827
8.22 -0.0250546
8.23 -0.022893
8.24 -0.0210739
8.25 -0.0196675
8.26 -0.0187898
8.27 -0.0184344
8.28 -0.0186275
8.29 -0.0193778
8.3 -0.0206757
8.31 -0.0224925
8.32 -0.0248034
8.33 -0.0275316
8.34 -0.0305629
8.35 -0.0337976
8.36 -0.0371255
8.37 -0.0404288
8.38 -0.0435866
8.39 -0.0464361
8.4 -0.0488779
8.41 -0.0508094
8.42 -0.0521393
8.43 -0.0527926
8.44 -0.0527138
8.45 -0.0518336
8.46 -0.0501225
8.47 -0.0476553
8.48 -0.0444746
8.49 -0.0406455
8.5 -0.0362533
8.51 -0.0314007
8.52 -0.0261841
8.53 -0.0207739
8.54 -0.015311
8.55 -0.0099304
8.56 -0.00476314
8.57 6.83877e-05
8.58 0.00443568
8.59 0.00820872
8.6 0.0113578
8.61 0.0138373
8.62 0.0156252
8.63 0.0167237
8.64 0.0171593
8.65 0.0169338
8.66 0.0161644
8.67 0.0149613
8.68 0.0134305
8.69 0.0116869
8.7 0.00985084
8.71 0.00804662
8.72 0.0064156
8.73 0.00505824
8.74 0.00406629
8.75 0.00351459
8.76 0.00345846
8.77 0.00393166
8.78 0.00498548
8.79 0.00658346
8.8 0.00866312
8.81 0.0111638
8.82 0.0140071
8.83 0.0170997
8.84 0.0203373
8.85 0.0235974
8.86 0.0267528
8.87 0.0296926
8.88 0.032313
8.89 0.0345217
8.9 0.0362413
8.91 0.0373738
8.92 0.0378847
8.93 0.0377914
8.94 0.0371051
8.95 0.0358588
8.96 0.0341063
8.97 0.0319199
8.98 0.0293605
8.99 0.0265808
9 0.0236925
9.01 0.020811
9.02 0.0180506
9.03 0.0155208
9.04 0.0133444
9.05 0.0116235
9.06 0.0104022
9.07 0.00972719
9.08 0.00962411
9.09 0.0100967
9.1 0.0111269
9.11 0.0127242
9.12 0.0147702
9.13 0.0171789
9.14 0.0198564
9.15 0.0226989
9.16 0.0255966
9.17 0.0284304
9.18 0.0310706
9.19 0.0334222
9.2 0.0353958
9.21 0.0369161
9.22 0.037925
9.23 0.0383833
9.24 0.0382174
9.25 0.0374758
9.26 0.0361984
9.27 0.0344321
9.28 0.0322408
9.29 0.0297033
9.3 0.0269048
9.31 0.0239494
9.32 0.0209608
9.33 0.0180417
9.34 0.0152908
9.35 0.0127987
9.36 0.0106453
9.37 0.00893562
9.38 0.00770202
9.39 0.006959
9.4 0.00671595
9.41 0.00696385
9.42 0.00767592
9.43 0.00881633
9.44 0.0103457
9.45 0.0121515
9.46 0.0141526
9.47 0.0162625
9.48 0.0183928
9.49 0.0204564
9.5 0.0223537
9.51 0.0240048
9.52 0.0253546
9.53 0.0263533
9.54 0.0269652
9.55 0.0271696
9.56 0.026957
9.57 0.0263002
9.58 0.0252711
9.59 0.0239092
9.6 0.0222645
9.61 0.0203953
9.62 0.0183655
9.63 0.0162407
9.64 0.0140991
9.65 0.0120096
9.66 0.0100315
9.67 0.0082166
9.68 0.00660822
9.69 0.00523942
9.7 0.00416391
9.71 0.00336163
9.72 0.0028291
9.73 0.00255306
9.74 0.00251118
9.75 0.00267351
9.76 0.00301065
9.77 0.00347816
9.78 0.00402339
9.79 0.00460497
9.8 0.00518409
9.81 0.00572616
9.82 0.00620233
9.83 0.00657996
9.84 0.00685295
9.85 0.0070187
9.86 0.00708158
9.87 0.00705368
9.88 0.006954
9.89 0.00680673
9.9 0.00664523
9.91 0.00650547
9.92 0.00642093
9.93 0.00642411
9.94 0.00654493
9.95 0.00680917
9.96 0.00725377
9.97 0.00788132
9.98 0.00869211
9.99 0.00968243
10 0.0108406
10.01 0.0121475
10.02 0.0135792
10.03 0.0151038
10.04 0.0166724
10.05 0.0182439
10.06 0.0197754
10.07 0.0212242
10.08 0.0225495
10.09 0.0236976
10.1 0.02464
10.11 0.0253574
10.12 0.0258319
10.13 0.0260531
10.14 0.0260188
10.15 0.0257305
10.16 0.025185
10.17 0.0244292
10.18 0.0234911
10.19 0.0224034
10.2 0.0212025
10.21 0.0199263
10.22 0.0186138
10.23 0.0173086
10.24 0.0160468
10.25 0.0148591
10.26 0.0137715
10.27 0.0128044
10.28 0.0119731
10.29 0.0113002
10.3 0.0107705
10.31 0.0103778
10.32 0.0101104
10.33 0.00995212
10.34 0.00988282
10.35 0.00988217
10.36 0.00992163
10.37 0.00997272
10.38 0.0100114
10.39 0.0100153
10.4 0.00996479
10.41 0.00984351
10.42 0.00962834
10.43 0.00931973
10.44 0.00891461
10.45 0.00841344
10.46 0.00782017
10.47 0.00714178
10.48 0.00638449
10.49 0.00555985
10.5 0.00468492
10.51 0.00377163
10.52 0.00283113
10.53 0.00187321
10.54 0.000905852
10.55 -6.51671e-05
10.56 -0.00103614
10.57 -0.00200648
10.58 -0.0029777
10.59 -0.00395295
10.6 -0.00493652
10.61 -0.00593386
10.62 -0.00695081
10.63 -0.00798946
10.64 -0.00905115
10.65 -0.0101347
10.66 -0.0112357
10.67 -0.0123465
10.68 -0.0134541
10.69 -0.0145409
10.7 -0.0155873
10.71 -0.0165707
10.72 -0.0174661
10.73 -0.018247
10.74 -0.018882
10.75 -0.019331
10.76 -0.0195833
10.77 -0.019619
10.78 -0.0194224
10.79 -0.0189837
10.8 -0.0182996
10.81 -0.0173562
10.82 -0.0161786
10.83 -0.0147983
10.84 -0.0132456
10.85 -0.011558
10.86 -0.00978003
10.87 -0.00796176
10.88 -0.00616566
10.89 -0.00445196
10.9 -0.00287809
10.91 -0.00149996
10.92 -0.000369985
10.93 0.000464703
10.94 0.000938803
10.95 0.00102484
10.96 0.000721036
10.97 2.04408e-05
10.98 -0.00107196
10.99 -0.00253902
11 -0.00435296
11.01 -0.00649999
11.02 -0.00888823
11.03 -0.0114552
11.04 -0.0141317
11.05 -0.0168433
11.06 -0.0195129
11.07 -0.0220517
11.08 -0.0243724
11.09 -0.0264129
11.1 -0.0281107
11.11 -0.0294119
11.12 -0.0302734
11.13 -0.030664
11.14 -0.0305108
11.15 -0.0298622
11.16 -0.0287338
11.17 -0.0271513
11.18 -0.0251523
11.19 -0.0227857
11.2 -0.0200985
11.21 -0.0171608
11.22 -0.0140662
11.23 -0.0108893
11.24 -0.00770519
11.25 -0.00458679
11.26 -0.00160305
11.27 0.00115803
11.28 0.00365324
11.29 0.00584326
11.3 0.0076957
11.31 0.00918931
11.32 0.0103142
11.33 0.0110591
11.34 0.0114224
11.35 0.0114583
11.36 0.011199
11.37 0.0106831
11.38 0.00995464
11.39 0.00906034
11.4 0.00804248
11.41 0.00696139
11.42 0.00586503
11.43 0.00479406
11.44 0.0037838
11.45 0.00286326
11.46 0.0020575
11.47 0.00139063
11.48 0.000856911
11.49 0.00045417
11.5 0.00017369
11.51 1.05295e-06
11.52 -8.28287e-05
11.53 -9.73886e-05
11.54 -7.33422e-05
11.55 -3.86717e-05
11.56 -1.79181e-05
11.57 -3.34549e-05
11.58 -0.000104386
11.59 -0.000246683
11.6 -0.000478164
11.61 -0.000794217
11.62 -0.00119214
11.63 -0.00166369
11.64 -0.00219541
11.65 -0.00276923
11.66 -0.0033629
11.67 -0.00394736
11.68 -0.004495
11.69 -0.00497886
11.7 -0.00537295
11.71 -0.00565346
11.72 -0.0057995
11.73 -0.00577636
11.74 -0.00559015
11.75 -0.00523687
11.76 -0.00471857
11.77 -0.00404348
11.78 -0.00322581
11.79 -0.00228003
11.8 -0.00123471
11.81 -0.000127108
11.82 0.00101013
11.83 0.00214269
