# xPDFsuite Configuration #
[PDF]
wavelength = 0.1
dataformat = QA
inputfile = BiMsol6_insitu_700 C-00553.xy
backgroundfile = Quartz2mm-dist500-00000.xy
mode = xray
bgscale = 0.0042
composition = Bi2Fe4O9
outputtype = gr
qmaxinst = 24.998449118
qmin = 0.1
qmax = 21.4986662415
rmax = 80.0
rmin = 0.0
rstep = 0.01
rpoly = 0.9

[Misc]
inputdir = C:/Data/Seafile/CPH/Beamtime/Desy Oct 20/In situ data/Processed/BiMsol6/PDF
savedir = C:/Data/Seafile/CPH/Beamtime/Desy Oct 20/In situ data/PDF/BiMsol6
backgroundfilefull = C:/Data/Seafile/CPH/Beamtime/Desy Oct 20/In situ data/Processed/Standard_Empty_Cap/Quartz2mm-dist500-00000.xy

#### start data
#S 1
#L r($\AA$)  G($\AA^{-2}$)
0 0
0.01 0.00588416
0.02 0.0114292
0.03 0.0163453
0.04 0.0203724
0.05 0.023293
0.06 0.024942
0.07 0.0251397
0.08 0.0238364
0.09 0.0211691
0.1 0.0172518
0.11 0.0122596
0.12 0.00642073
0.13 6.43872e-06
0.14 -0.00667615
0.15 -0.0132488
0.16 -0.0193916
0.17 -0.0248057
0.18 -0.0292248
0.19 -0.0324286
0.2 -0.0341923
0.21 -0.034367
0.22 -0.0330555
0.23 -0.0303307
0.24 -0.0263396
0.25 -0.0212981
0.26 -0.0154831
0.27 -0.00921348
0.28 -0.00292978
0.29 0.00297586
0.3 0.00812379
0.31 0.0121561
0.32 0.0147544
0.33 0.0155982
0.34 0.0143781
0.35 0.0111642
0.36 0.00597219
0.37 -0.00108123
0.38 -0.00977801
0.39 -0.019802
0.4 -0.0307818
0.41 -0.0421114
0.42 -0.053199
0.43 -0.0634433
0.44 -0.0722261
0.45 -0.0789357
0.46 -0.0829272
0.47 -0.0833687
0.48 -0.0801061
0.49 -0.0728203
0.5 -0.0613139
0.51 -0.0455238
0.52 -0.0255302
0.53 -0.00130056
0.54 0.0266006
0.55 0.0574457
0.56 0.090557
0.57 0.12515
0.58 0.160352
0.59 0.19522
0.6 0.228541
0.61 0.259404
0.62 0.28688
0.63 0.310106
0.64 0.328309
0.65 0.340838
0.66 0.346776
0.67 0.345781
0.68 0.338068
0.69 0.323682
0.7 0.302849
0.71 0.275971
0.72 0.243607
0.73 0.206016
0.74 0.164667
0.75 0.120525
0.76 0.0746081
0.77 0.0279641
0.78 -0.0183582
0.79 -0.0632222
0.8 -0.105504
0.81 -0.144466
0.82 -0.179392
0.83 -0.209704
0.84 -0.234978
0.85 -0.254953
0.86 -0.268981
0.87 -0.277656
0.88 -0.281318
0.89 -0.280375
0.9 -0.275357
0.91 -0.266895
0.92 -0.255618
0.93 -0.24232
0.94 -0.227982
0.95 -0.213372
0.96 -0.19922
0.97 -0.186191
0.98 -0.174872
0.99 -0.165986
1 -0.159782
1.01 -0.156421
1.02 -0.156
1.03 -0.158491
1.04 -0.163752
1.05 -0.171599
1.06 -0.181771
1.07 -0.193623
1.08 -0.20668
1.09 -0.220442
1.1 -0.234402
1.11 -0.248068
1.12 -0.260886
1.13 -0.272439
1.14 -0.282435
1.15 -0.29063
1.16 -0.296867
1.17 -0.301076
1.18 -0.303243
1.19 -0.303336
1.2 -0.301749
1.21 -0.298742
1.22 -0.294619
1.23 -0.289717
1.24 -0.28439
1.25 -0.279009
1.26 -0.273957
1.27 -0.26953
1.28 -0.265973
1.29 -0.263476
1.3 -0.262164
1.31 -0.2621
1.32 -0.263387
1.33 -0.265787
1.34 -0.269138
1.35 -0.273227
1.36 -0.277799
1.37 -0.282572
1.38 -0.287221
1.39 -0.291404
1.4 -0.29485
1.41 -0.29731
1.42 -0.298581
1.43 -0.29851
1.44 -0.297005
1.45 -0.293879
1.46 -0.289347
1.47 -0.28354
1.48 -0.276643
1.49 -0.268893
1.5 -0.260572
1.51 -0.251997
1.52 -0.243551
1.53 -0.235582
1.54 -0.22841
1.55 -0.222324
1.56 -0.217576
1.57 -0.214361
1.58 -0.212991
1.59 -0.213383
1.6 -0.215484
1.61 -0.219191
1.62 -0.224334
1.63 -0.230673
1.64 -0.237934
1.65 -0.245746
1.66 -0.253658
1.67 -0.261271
1.68 -0.268185
1.69 -0.274015
1.7 -0.278404
1.71 -0.280857
1.72 -0.281204
1.73 -0.279319
1.74 -0.275102
1.75 -0.26853
1.76 -0.259657
1.77 -0.248567
1.78 -0.235374
1.79 -0.220557
1.8 -0.204453
1.81 -0.187439
1.82 -0.169914
1.83 -0.152288
1.84 -0.135023
1.85 -0.118538
1.86 -0.103159
1.87 -0.0891769
1.88 -0.0768251
1.89 -0.0662693
1.9 -0.0576331
1.91 -0.0510998
1.92 -0.0464052
1.93 -0.0434137
1.94 -0.0419304
1.95 -0.041711
1.96 -0.0424727
1.97 -0.0439299
1.98 -0.0457034
1.99 -0.0474477
2 -0.048869
2.01 -0.0497064
2.02 -0.0497431
2.03 -0.0488125
2.04 -0.0466921
2.05 -0.043478
2.06 -0.039222
2.07 -0.0340426
2.08 -0.0281203
2.09 -0.0216916
2.1 -0.0150457
2.11 -0.00855546
2.12 -0.00257745
2.13 0.0025368
2.14 0.00644399
2.15 0.00882257
2.16 0.00938554
2.17 0.00764649
2.18 0.00362522
2.19 -0.00276353
2.2 -0.0115498
2.21 -0.0226905
2.22 -0.0360705
2.23 -0.0515864
2.24 -0.0689917
2.25 -0.0878244
2.26 -0.107724
2.27 -0.128302
2.28 -0.149149
2.29 -0.169855
2.3 -0.189925
2.31 -0.208989
2.32 -0.226724
2.33 -0.242847
2.34 -0.25713
2.35 -0.26941
2.36 -0.279516
2.37 -0.287322
2.38 -0.293058
2.39 -0.296846
2.4 -0.29886
2.41 -0.299325
2.42 -0.298503
2.43 -0.296628
2.44 -0.294105
2.45 -0.291273
2.46 -0.288437
2.47 -0.285877
2.48 -0.283847
2.49 -0.282583
2.5 -0.282334
2.51 -0.283134
2.52 -0.285037
2.53 -0.288046
2.54 -0.292114
2.55 -0.297148
2.56 -0.303065
2.57 -0.309643
2.58 -0.316649
2.59 -0.323874
2.6 -0.331102
2.61 -0.33812
2.62 -0.34472
2.63 -0.35065
2.64 -0.355811
2.65 -0.360089
2.66 -0.363409
2.67 -0.365732
2.68 -0.367057
2.69 -0.367359
2.7 -0.366734
2.71 -0.365336
2.72 -0.363289
2.73 -0.360735
2.74 -0.357821
2.75 -0.354698
2.76 -0.351522
2.77 -0.348444
2.78 -0.345576
2.79 -0.343009
2.8 -0.340809
2.81 -0.339012
2.82 -0.337651
2.83 -0.336705
2.84 -0.336098
2.85 -0.335762
2.86 -0.335607
2.87 -0.335534
2.88 -0.335435
2.89 -0.335174
2.9 -0.334646
2.91 -0.333757
2.92 -0.332424
2.93 -0.330578
2.94 -0.328171
2.95 -0.325148
2.96 -0.32148
2.97 -0.317227
2.98 -0.312416
2.99 -0.30709
3 -0.301299
3.01 -0.295097
3.02 -0.288508
3.03 -0.28161
3.04 -0.274445
3.05 -0.26703
3.06 -0.259364
3.07 -0.251424
3.08 -0.243149
3.09 -0.234436
3.1 -0.225214
3.11 -0.215363
3.12 -0.204747
3.13 -0.193217
3.14 -0.180619
3.15 -0.166681
3.16 -0.1513
3.17 -0.134384
3.18 -0.115824
3.19 -0.0955346
3.2 -0.0734672
3.21 -0.049572
3.22 -0.0237545
3.23 0.00372838
3.24 0.0327472
3.25 0.0631292
3.26 0.0946602
3.27 0.127088
3.28 0.160151
3.29 0.19347
3.3 0.226688
3.31 0.25946
3.32 0.29144
3.33 0.32229
3.34 0.351668
3.35 0.379069
3.36 0.404394
3.37 0.427417
3.38 0.447955
3.39 0.465868
3.4 0.481065
3.41 0.493327
3.42 0.502686
3.43 0.509349
3.44 0.513413
3.45 0.515007
3.46 0.514294
3.47 0.511455
3.48 0.506492
3.49 0.499858
3.5 0.491767
3.51 0.482432
3.52 0.472051
3.53 0.460813
3.54 0.448861
3.55 0.436356
3.56 0.423467
3.57 0.410292
3.58 0.396913
3.59 0.383391
3.6 0.369768
3.61 0.35607
3.62 0.342324
3.63 0.328542
3.64 0.314734
3.65 0.300915
3.66 0.287103
3.67 0.273328
3.68 0.25964
3.69 0.246092
3.7 0.232754
3.71 0.219711
3.72 0.20706
3.73 0.194913
3.74 0.18346
3.75 0.172799
3.76 0.16305
3.77 0.154343
3.78 0.146808
3.79 0.140564
3.8 0.135766
3.81 0.13261
3.82 0.131046
3.83 0.131128
3.84 0.132894
3.85 0.136355
3.86 0.141506
3.87 0.148447
3.88 0.157042
3.89 0.16716
3.9 0.178709
3.91 0.191587
3.92 0.205677
3.93 0.220871
3.94 0.237096
3.95 0.25411
3.96 0.271775
3.97 0.289951
3.98 0.308501
3.99 0.327293
4 0.346194
4.01 0.365058
4.02 0.383762
4.03 0.402189
4.04 0.420229
4.05 0.437774
4.06 0.454713
4.07 0.470862
4.08 0.48619
4.09 0.5006
4.1 0.514
4.11 0.526298
4.12 0.537407
4.13 0.547163
4.14 0.555479
4.15 0.562361
4.16 0.567746
4.17 0.571584
4.18 0.573834
4.19 0.574466
4.2 0.57328
4.21 0.570456
4.22 0.566017
4.23 0.559994
4.24 0.55243
4.25 0.543383
4.26 0.532856
4.27 0.520915
4.28 0.507743
4.29 0.493432
4.3 0.478076
4.31 0.461768
4.32 0.444598
4.33 0.426582
4.34 0.40787
4.35 0.38854
4.36 0.368647
4.37 0.348236
4.38 0.327337
4.39 0.305956
4.4 0.284087
4.41 0.261769
4.42 0.238998
4.43 0.21577
4.44 0.192078
4.45 0.167921
4.46 0.143263
4.47 0.118149
4.48 0.092621
4.49 0.0667215
4.5 0.0405092
4.51 0.0140596
4.52 -0.0125358
4.53 -0.039154
4.54 -0.0656563
4.55 -0.0919029
4.56 -0.117745
4.57 -0.143028
4.58 -0.167594
4.59 -0.191207
4.6 -0.21374
4.61 -0.23509
4.62 -0.255141
4.63 -0.273796
4.64 -0.29098
4.65 -0.30662
4.66 -0.320565
4.67 -0.332983
4.68 -0.343917
4.69 -0.353436
4.7 -0.361634
4.71 -0.368627
4.72 -0.374485
4.73 -0.379401
4.74 -0.383582
4.75 -0.38719
4.76 -0.390381
4.77 -0.393307
4.78 -0.396104
4.79 -0.398907
4.8 -0.401821
4.81 -0.40492
4.82 -0.408251
4.83 -0.411835
4.84 -0.41567
4.85 -0.419738
4.86 -0.42398
4.87 -0.42831
4.88 -0.432642
4.89 -0.436878
4.9 -0.440916
4.91 -0.444654
4.92 -0.447937
4.93 -0.450709
4.94 -0.452898
4.95 -0.454443
4.96 -0.455302
4.97 -0.455456
4.98 -0.454868
4.99 -0.453549
5 -0.451588
5.01 -0.449045
5.02 -0.44599
5.03 -0.442502
5.04 -0.438669
5.05 -0.434558
5.06 -0.430284
5.07 -0.425925
5.08 -0.421542
5.09 -0.417182
5.1 -0.412875
5.11 -0.408634
5.12 -0.404447
5.13 -0.400275
5.14 -0.396067
5.15 -0.391753
5.16 -0.387254
5.17 -0.38248
5.18 -0.377296
5.19 -0.371618
5.2 -0.365371
5.21 -0.358477
5.22 -0.350874
5.23 -0.34252
5.24 -0.333375
5.25 -0.323396
5.26 -0.31269
5.27 -0.301322
5.28 -0.289381
5.29 -0.276981
5.3 -0.264256
5.31 -0.251355
5.32 -0.238475
5.33 -0.225791
5.34 -0.213478
5.35 -0.201703
5.36 -0.190623
5.37 -0.18039
5.38 -0.171223
5.39 -0.16312
5.4 -0.156138
5.41 -0.150305
5.42 -0.145617
5.43 -0.14204
5.44 -0.13957
5.45 -0.138082
5.46 -0.137402
5.47 -0.137391
5.48 -0.137896
5.49 -0.138758
5.5 -0.139817
5.51 -0.140903
5.52 -0.141856
5.53 -0.142549
5.54 -0.142876
5.55 -0.142754
5.56 -0.142127
5.57 -0.140934
5.58 -0.139173
5.59 -0.136905
5.6 -0.134182
5.61 -0.131075
5.62 -0.127667
5.63 -0.124053
5.64 -0.120332
5.65 -0.116619
5.66 -0.113005
5.67 -0.109563
5.68 -0.106351
5.69 -0.103403
5.7 -0.100744
5.71 -0.0983584
5.72 -0.0961783
5.73 -0.0941291
5.74 -0.0921134
5.75 -0.0900134
5.76 -0.0876954
5.77 -0.0849647
5.78 -0.0816824
5.79 -0.0777087
5.8 -0.0729052
5.81 -0.0671489
5.82 -0.0603371
5.83 -0.0523545
5.84 -0.0430929
5.85 -0.0326453
5.86 -0.0210443
5.87 -0.00835867
5.88 0.00530776
5.89 0.0198183
5.9 0.0350484
5.91 0.0507425
5.92 0.0666666
5.93 0.0825966
5.94 0.0983052
5.95 0.113569
5.96 0.128156
5.97 0.141788
5.98 0.154369
5.99 0.16577
6 0.175895
6.01 0.184689
6.02 0.192135
6.03 0.198164
6.04 0.202897
6.05 0.206497
6.06 0.209104
6.07 0.210881
6.08 0.212011
6.09 0.212685
6.1 0.213101
6.11 0.213494
6.12 0.214043
6.13 0.214905
6.14 0.216212
6.15 0.218062
6.16 0.220561
6.17 0.223725
6.18 0.227494
6.19 0.231804
6.2 0.236553
6.21 0.241606
6.22 0.246797
6.23 0.251908
6.24 0.256719
6.25 0.261014
6.26 0.264577
6.27 0.267202
6.28 0.268695
6.29 0.268811
6.3 0.267372
6.31 0.264364
6.32 0.259727
6.33 0.253439
6.34 0.245516
6.35 0.236019
6.36 0.224901
6.37 0.212452
6.38 0.198857
6.39 0.184305
6.4 0.169006
6.41 0.153175
6.42 0.137027
6.43 0.120805
6.44 0.104727
6.45 0.0889741
6.46 0.0737014
6.47 0.0590363
6.48 0.0450748
6.49 0.0319548
6.5 0.0196469
6.51 0.00812057
6.52 -0.00266796
6.53 -0.0127895
6.54 -0.0223377
6.55 -0.0314143
6.56 -0.0401427
6.57 -0.0486922
6.58 -0.0571931
6.59 -0.0657685
6.6 -0.0745292
6.61 -0.0835688
6.62 -0.0929936
6.63 -0.102835
6.64 -0.113096
6.65 -0.123762
6.66 -0.134792
6.67 -0.146119
6.68 -0.157654
6.69 -0.169274
6.7 -0.18083
6.71 -0.192177
6.72 -0.203164
6.73 -0.213641
6.74 -0.223458
6.75 -0.232407
6.76 -0.240367
6.77 -0.247267
6.78 -0.253018
6.79 -0.257554
6.8 -0.260829
6.81 -0.26281
6.82 -0.26337
6.83 -0.262672
6.84 -0.260759
6.85 -0.257686
6.86 -0.253519
6.87 -0.248332
6.88 -0.24215
6.89 -0.235065
6.9 -0.227201
6.91 -0.21862
6.92 -0.209377
6.93 -0.199512
6.94 -0.189051
6.95 -0.177943
6.96 -0.166248
6.97 -0.153952
6.98 -0.141026
6.99 -0.127434
7 -0.113135
7.01 -0.0980432
7.02 -0.0820944
7.03 -0.0653005
7.04 -0.0476302
7.05 -0.0290631
7.06 -0.00959207
7.07 0.0107746
7.08 0.0320969
7.09 0.0542457
7.1 0.0771426
7.11 0.100704
7.12 0.124828
7.13 0.149401
7.14 0.174301
7.15 0.199377
7.16 0.224459
7.17 0.249399
7.18 0.274048
7.19 0.298261
7.2 0.321896
7.21 0.344748
7.22 0.366732
7.23 0.387762
7.24 0.407748
7.25 0.426614
7.26 0.444299
7.27 0.46072
7.28 0.475762
7.29 0.489515
7.3 0.501966
7.31 0.513111
7.32 0.522949
7.33 0.531482
7.34 0.538609
7.35 0.54439
7.36 0.548867
7.37 0.552036
7.38 0.553884
7.39 0.554394
7.4 0.55352
7.41 0.551116
7.42 0.547289
7.43 0.542007
7.44 0.535239
7.45 0.526957
7.46 0.517136
7.47 0.505653
7.48 0.492538
7.49 0.477871
7.5 0.461677
7.51 0.443994
7.52 0.424876
7.53 0.404387
7.54 0.382495
7.55 0.35946
7.56 0.335408
7.57 0.310478
7.58 0.284823
7.59 0.258605
7.6 0.231982
7.61 0.205157
7.62 0.178328
7.63 0.151672
7.64 0.12536
7.65 0.0995564
7.66 0.0744168
7.67 0.0501905
7.68 0.0269321
7.69 0.00474929
7.7 -0.016262
7.71 -0.0360221
7.72 -0.0544681
7.73 -0.0714872
7.74 -0.0870167
7.75 -0.10114
7.76 -0.11386
7.77 -0.125191
7.78 -0.13516
7.79 -0.143802
7.8 -0.151036
7.81 -0.15703
7.82 -0.16186
7.83 -0.165588
7.84 -0.168277
7.85 -0.169992
7.86 -0.17077
7.87 -0.170648
7.88 -0.169766
7.89 -0.168188
7.9 -0.165978
7.91 -0.163198
7.92 -0.15991
7.93 -0.15614
7.94 -0.151978
7.95 -0.147492
7.96 -0.142736
7.97 -0.13776
7.98 -0.132612
7.99 -0.127336
8 -0.121973
8.01 -0.116571
8.02 -0.111166
8.03 -0.105785
8.04 -0.100456
8.05 -0.0951997
8.06 -0.0900415
8.07 -0.0849922
8.08 -0.0800568
8.09 -0.0752403
8.1 -0.070545
8.11 -0.0659711
8.12 -0.0615185
8.13 -0.0571948
8.14 -0.0529851
8.15 -0.0488876
8.16 -0.0449018
8.17 -0.0410293
8.18 -0.0372739
8.19 -0.0336514
8.2 -0.0301707
8.21 -0.0268386
8.22 -0.0236706
8.23 -0.0206842
8.24 -0.017898
8.25 -0.0153324
8.26 -0.0130348
8.27 -0.0109968
8.28 -0.00923321
8.29 -0.0077547
8.3 -0.00656762
8.31 -0.00567285
8.32 -0.00508074
8.33 -0.00477789
8.34 -0.00472667
8.35 -0.0049002
8.36 -0.00526542
8.37 -0.00578382
8.38 -0.00641232
8.39 -0.0071062
8.4 -0.00780578
8.41 -0.00846236
8.42 -0.00902968
8.43 -0.0094652
8.44 -0.00973184
8.45 -0.00978956
8.46 -0.00960945
8.47 -0.00919747
8.48 -0.00855599
8.49 -0.00769886
8.5 -0.00665156
8.51 -0.00545093
8.52 -0.00413984
8.53 -0.00279192
8.54 -0.00147637
8.55 -0.00026635
8.56 0.000761252
8.57 0.0015281
8.58 0.00194252
8.59 0.00190101
8.6 0.00136665
8.61 0.000282072
8.62 -0.00139941
8.63 -0.00371221
8.64 -0.00667719
8.65 -0.0103575
8.66 -0.0147034
8.67 -0.0196682
8.68 -0.0252111
8.69 -0.0312788
8.7 -0.0378068
8.71 -0.0447284
8.72 -0.0519738
8.73 -0.0594226
8.74 -0.0669882
8.75 -0.0745859
8.76 -0.0821351
8.77 -0.0895616
8.78 -0.0967812
8.79 -0.10374
8.8 -0.110406
8.81 -0.116754
8.82 -0.122768
8.83 -0.128448
8.84 -0.133804
8.85 -0.138834
8.86 -0.143607
8.87 -0.148166
8.88 -0.152558
8.89 -0.156835
8.9 -0.161049
8.91 -0.165249
8.92 -0.169488
8.93 -0.173802
8.94 -0.178219
8.95 -0.182758
8.96 -0.187426
8.97 -0.19222
8.98 -0.197134
8.99 -0.202124
9 -0.207153
9.01 -0.212173
9.02 -0.217132
9.03 -0.221971
9.04 -0.226617
9.05 -0.230999
9.06 -0.235072
9.07 -0.238783
9.08 -0.242086
9.09 -0.244946
9.1 -0.247334
9.11 -0.249182
9.12 -0.250534
9.13 -0.251404
9.14 -0.251814
9.15 -0.251794
9.16 -0.251383
9.17 -0.250618
9.18 -0.249548
9.19 -0.248257
9.2 -0.246801
9.21 -0.245236
9.22 -0.243617
9.23 -0.241989
9.24 -0.240401
9.25 -0.238885
9.26 -0.237462
9.27 -0.236142
9.28 -0.234926
9.29 -0.233807
9.3 -0.23277
9.31 -0.231787
9.32 -0.23082
9.33 -0.229831
9.34 -0.228782
9.35 -0.22763
9.36 -0.226337
9.37 -0.224847
9.38 -0.223136
9.39 -0.221183
9.4 -0.218972
9.41 -0.216491
9.42 -0.213738
9.43 -0.210713
9.44 -0.207412
9.45 -0.20388
9.46 -0.200142
9.47 -0.196225
9.48 -0.19216
9.49 -0.187975
9.5 -0.183692
9.51 -0.179338
9.52 -0.174933
9.53 -0.170483
9.54 -0.165989
9.55 -0.161438
9.56 -0.156811
9.57 -0.152062
9.58 -0.147156
9.59 -0.142045
9.6 -0.136671
9.61 -0.130971
9.62 -0.12488
9.63 -0.118299
9.64 -0.111155
9.65 -0.103412
9.66 -0.0950162
9.67 -0.0859206
9.68 -0.0760886
9.69 -0.0654957
9.7 -0.0540408
9.71 -0.0418171
9.72 -0.0288457
9.73 -0.0151608
9.74 -0.000809466
9.75 0.0141486
9.76 0.0296661
9.77 0.0456568
9.78 0.061998
9.79 0.0785972
9.8 0.0953599
9.81 0.112192
9.82 0.129002
9.83 0.145684
9.84 0.162159
9.85 0.178361
9.86 0.194228
9.87 0.20971
9.88 0.224768
9.89 0.239352
9.9 0.253426
9.91 0.267016
9.92 0.280119
9.93 0.292742
9.94 0.304893
9.95 0.316583
9.96 0.327782
9.97 0.338534
9.98 0.348856
9.99 0.35875
10 0.368213
10.01 0.377236
10.02 0.385789
10.03 0.393817
10.04 0.401333
10.05 0.408303
10.06 0.414687
10.07 0.420447
10.08 0.425544
10.09 0.429877
10.1 0.433444
10.11 0.43624
10.12 0.438248
10.13 0.439459
10.14 0.439872
10.15 0.43949
10.16 0.438281
10.17 0.436366
10.18 0.4338
10.19 0.43065
10.2 0.426994
10.21 0.422918
10.22 0.418501
10.23 0.413863
10.24 0.409121
10.25 0.404372
10.26 0.399715
10.27 0.395238
10.28 0.391025
10.29 0.387186
10.3 0.383742
10.31 0.380732
10.32 0.378174
10.33 0.376073
10.34 0.374414
10.35 0.373188
10.36 0.372338
10.37 0.371774
10.38 0.371416
10.39 0.371177
10.4 0.370958
10.41 0.370655
10.42 0.370127
10.43 0.369279
10.44 0.368007
10.45 0.366212
10.46 0.363805
10.47 0.360703
10.48 0.356797
10.49 0.352009
10.5 0.34635
10.51 0.339797
10.52 0.332339
10.53 0.323979
10.54 0.314732
10.55 0.304543
10.56 0.293532
10.57 0.281763
10.58 0.269291
10.59 0.256181
10.6 0.242498
10.61 0.228292
10.62 0.213624
10.63 0.198597
10.64 0.183275
10.65 0.167716
10.66 0.151972
10.67 0.136092
10.68 0.120113
10.69 0.104082
10.7 0.0880293
10.71 0.0719798
10.72 0.0559534
10.73 0.0399661
10.74 0.0240326
10.75 0.0081686
10.76 -0.00762208
10.77 -0.0233313
10.78 -0.0389511
10.79 -0.0544729
10.8 -0.0698872
10.81 -0.0851732
10.82 -0.100322
10.83 -0.115326
10.84 -0.130169
10.85 -0.144838
10.86 -0.159317
10.87 -0.173586
10.88 -0.187611
10.89 -0.2014
10.9 -0.214941
10.91 -0.228223
10.92 -0.24124
10.93 -0.253985
10.94 -0.266436
10.95 -0.278599
10.96 -0.290488
10.97 -0.302106
10.98 -0.313459
10.99 -0.32455
11 -0.335384
11.01 -0.345938
11.02 -0.356243
11.03 -0.366299
11.04 -0.376102
11.05 -0.385645
11.06 -0.394919
11.07 -0.40389
11.08 -0.412535
11.09 -0.420844
11.1 -0.42879
11.11 -0.436337
11.12 -0.443448
11.13 -0.450083
11.14 -0.456138
11.15 -0.461617
11.16 -0.466479
11.17 -0.470682
11.18 -0.474182
11.19 -0.476941
11.2 -0.478887
11.21 -0.479963
11.22 -0.480203
11.23 -0.479586
11.24 -0.478102
11.25 -0.475744
11.26 -0.472515
11.27 -0.468337
11.28 -0.463298
11.29 -0.457435
11.3 -0.450776
11.31 -0.443351
11.32 -0.435197
11.33 -0.426329
11.34 -0.416763
11.35 -0.406598
11.36 -0.395877
11.37 -0.384642
11.38 -0.372934
11.39 -0.360793
11.4 -0.348224
11.41 -0.335291
11.42 -0.322037
11.43 -0.30849
11.44 -0.294679
11.45 -0.280626
11.46 -0.26635
11.47 -0.251862
11.48 -0.237201
11.49 -0.222386
11.5 -0.207436
11.51 -0.192373
11.52 -0.177217
11.53 -0.161988
11.54 -0.146717
11.55 -0.131436
11.56 -0.116175
11.57 -0.100968
11.58 -0.0858496
11.59 -0.0708613
11.6 -0.0560638
11.61 -0.0414854
11.62 -0.0271697
11.63 -0.0131604
11.64 0.000498742
11.65 0.013765
11.66 0.0265659
11.67 0.0388639
11.68 0.0506468
11.69 0.0618837
11.7 0.0725479
11.71 0.082618
11.72 0.0920763
11.73 0.100841
11.74 0.10898
11.75 0.116494
11.76 0.123391
11.77 0.129685
11.78 0.135392
11.79 0.140506
11.8 0.145054
11.81 0.149099
11.82 0.152674
11.83 0.155813
11.84 0.158548
11.85 0.160913
11.86 0.162908
11.87 0.164599
11.88 0.166015
11.89 0.16718
11.9 0.168113
11.91 0.168826
11.92 0.169321
11.93 0.169595
11.94 0.169658
11.95 0.169502
11.96 0.169111
11.97 0.168465
11.98 0.167539
11.99 0.166268
12 0.164638
12.01 0.162617
12.02 0.160163
12.03 0.157233
12.04 0.153783
12.05 0.14975
12.06 0.145053
12.07 0.139699
12.08 0.133651
12.09 0.126874
12.1 0.11934
12.11 0.111025
12.12 0.10184
12.13 0.0918206
12.14 0.0809896
12.15 0.0693548
12.16 0.0569321
