# xPDFsuite Configuration #
[PDF]
wavelength = 0.1
dataformat = QA
inputfile = BiMsol6_insitu_700 C-00486.xy
backgroundfile = Quartz2mm-dist500-00000.xy
mode = xray
bgscale = 0.0042
composition = Bi2Fe4O9
outputtype = gr
qmaxinst = 24.998449118
qmin = 0.1
qmax = 21.4986662415
rmax = 80.0
rmin = 0.0
rstep = 0.01
rpoly = 0.9

[Misc]
inputdir = C:/Data/Seafile/CPH/Beamtime/Desy Oct 20/In situ data/Processed/BiMsol6/PDF
savedir = C:/Data/Seafile/CPH/Beamtime/Desy Oct 20/In situ data/PDF/BiMsol6
backgroundfilefull = C:/Data/Seafile/CPH/Beamtime/Desy Oct 20/In situ data/Processed/Standard_Empty_Cap/Quartz2mm-dist500-00000.xy

#### start data
#S 1
#L r($\AA$)  G($\AA^{-2}$)
0 0
0.01 0.00594998
0.02 0.011559
0.03 0.0165355
0.04 0.0206179
0.05 0.0235871
0.06 0.0252767
0.07 0.0255049
0.08 0.0242207
0.09 0.0215609
0.1 0.0176388
0.11 0.0126293
0.12 0.00676062
0.13 0.000304484
0.14 -0.00643218
0.15 -0.0130686
0.16 -0.0192829
0.17 -0.024774
0.18 -0.029273
0.19 -0.0325568
0.2 -0.034397
0.21 -0.034641
0.22 -0.0333886
0.23 -0.0307096
0.24 -0.0267481
0.25 -0.0217178
0.26 -0.0158936
0.27 -0.00959154
0.28 -0.00325335
0.29 0.00272743
0.3 0.00796938
0.31 0.0121118
0.32 0.0148327
0.33 0.015807
0.34 0.0147196
0.35 0.0116339
0.36 0.0065593
0.37 -0.000393776
0.38 -0.00901344
0.39 -0.0189893
0.4 -0.029958
0.41 -0.0413161
0.42 -0.052473
0.43 -0.0628282
0.44 -0.0717626
0.45 -0.0786616
0.46 -0.0828765
0.47 -0.0835699
0.48 -0.0805759
0.49 -0.0735655
0.5 -0.0623298
0.51 -0.0467934
0.52 -0.0270239
0.53 -0.00297198
0.54 0.0248109
0.55 0.0556064
0.56 0.0887467
0.57 0.123454
0.58 0.158864
0.59 0.194035
0.6 0.227762
0.61 0.259122
0.62 0.287178
0.63 0.311054
0.64 0.329966
0.65 0.343245
0.66 0.349957
0.67 0.349734
0.68 0.342767
0.69 0.329081
0.7 0.308878
0.71 0.282539
0.72 0.250604
0.73 0.213297
0.74 0.172088
0.75 0.127932
0.76 0.081842
0.77 0.0348657
0.78 -0.0119442
0.79 -0.0574491
0.8 -0.100511
0.81 -0.140364
0.82 -0.176269
0.83 -0.207622
0.84 -0.233972
0.85 -0.255025
0.86 -0.270099
0.87 -0.279755
0.88 -0.284306
0.89 -0.284132
0.9 -0.279739
0.91 -0.271737
0.92 -0.260733
0.93 -0.247502
0.94 -0.233037
0.95 -0.218107
0.96 -0.203448
0.97 -0.189741
0.98 -0.177588
0.99 -0.167728
1 -0.160447
1.01 -0.155941
1.02 -0.154339
1.03 -0.155648
1.04 -0.15976
1.05 -0.166526
1.06 -0.175727
1.07 -0.18674
1.08 -0.199115
1.09 -0.212373
1.1 -0.226021
1.11 -0.23958
1.12 -0.252516
1.13 -0.264405
1.14 -0.27494
1.15 -0.283865
1.16 -0.291009
1.17 -0.296282
1.18 -0.299649
1.19 -0.301059
1.2 -0.300866
1.21 -0.2993
1.22 -0.296639
1.23 -0.29319
1.24 -0.289281
1.25 -0.285254
1.26 -0.281465
1.27 -0.278194
1.28 -0.275672
1.29 -0.274073
1.3 -0.273513
1.31 -0.274046
1.32 -0.275755
1.33 -0.278419
1.34 -0.281878
1.35 -0.285924
1.36 -0.290307
1.37 -0.294753
1.38 -0.298943
1.39 -0.302544
1.4 -0.305307
1.41 -0.306996
1.42 -0.307421
1.43 -0.306443
1.44 -0.303986
1.45 -0.299876
1.46 -0.294348
1.47 -0.287551
1.48 -0.279685
1.49 -0.271004
1.5 -0.261807
1.51 -0.252432
1.52 -0.243282
1.53 -0.234716
1.54 -0.227068
1.55 -0.220643
1.56 -0.215701
1.57 -0.21245
1.58 -0.211224
1.59 -0.21193
1.6 -0.214513
1.61 -0.218867
1.62 -0.224813
1.63 -0.232099
1.64 -0.240441
1.65 -0.249448
1.66 -0.258634
1.67 -0.267575
1.68 -0.275839
1.69 -0.28301
1.7 -0.288698
1.71 -0.292364
1.72 -0.29381
1.73 -0.29288
1.74 -0.289447
1.75 -0.283466
1.76 -0.274975
1.77 -0.264039
1.78 -0.250749
1.79 -0.235611
1.8 -0.218972
1.81 -0.201223
1.82 -0.18279
1.83 -0.16411
1.84 -0.145676
1.85 -0.127956
1.86 -0.111325
1.87 -0.0961185
1.88 -0.0826146
1.89 -0.0710235
1.9 -0.0615126
1.91 -0.0543232
1.92 -0.0492036
1.93 -0.0460403
1.94 -0.0446527
1.95 -0.0448016
1.96 -0.0462002
1.97 -0.0485652
1.98 -0.0514853
1.99 -0.0545689
2 -0.0574808
2.01 -0.0599123
2.02 -0.061594
2.03 -0.0623027
2.04 -0.0617441
2.05 -0.0599591
2.06 -0.0569447
2.07 -0.0527694
2.08 -0.04757
2.09 -0.0415466
2.1 -0.0349413
2.11 -0.0281076
2.12 -0.0214205
2.13 -0.0152397
2.14 -0.00992813
2.15 -0.00583748
2.16 -0.00329457
2.17 -0.00281634
2.18 -0.00446751
2.19 -0.00839675
2.2 -0.0146985
2.21 -0.023395
2.22 -0.0344344
2.23 -0.0477835
2.24 -0.0632625
2.25 -0.0804412
2.26 -0.0989948
2.27 -0.118557
2.28 -0.138734
2.29 -0.159114
2.3 -0.179225
2.31 -0.19864
2.32 -0.216997
2.33 -0.233967
2.34 -0.249271
2.35 -0.262687
2.36 -0.273982
2.37 -0.28296
2.38 -0.289789
2.39 -0.29453
2.4 -0.29731
2.41 -0.298309
2.42 -0.297758
2.43 -0.295841
2.44 -0.292968
2.45 -0.289494
2.46 -0.285739
2.47 -0.282012
2.48 -0.278606
2.49 -0.2758
2.5 -0.273903
2.51 -0.273024
2.52 -0.273283
2.53 -0.274747
2.54 -0.277435
2.55 -0.281314
2.56 -0.286378
2.57 -0.292444
2.58 -0.299303
2.59 -0.306763
2.6 -0.314617
2.61 -0.322647
2.62 -0.330632
2.63 -0.338313
2.64 -0.345509
2.65 -0.352051
2.66 -0.357802
2.67 -0.362651
2.68 -0.366526
2.69 -0.369317
2.7 -0.371039
2.71 -0.371776
2.72 -0.371592
2.73 -0.370569
2.74 -0.368813
2.75 -0.366436
2.76 -0.363522
2.77 -0.360261
2.78 -0.356773
2.79 -0.353166
2.8 -0.349533
2.81 -0.345952
2.82 -0.34249
2.83 -0.339187
2.84 -0.336047
2.85 -0.333064
2.86 -0.330212
2.87 -0.327453
2.88 -0.324735
2.89 -0.321991
2.9 -0.319152
2.91 -0.316156
2.92 -0.312942
2.93 -0.309457
2.94 -0.305655
2.95 -0.301485
2.96 -0.296909
2.97 -0.291942
2.98 -0.286585
2.99 -0.280843
3 -0.27473
3.01 -0.268263
3.02 -0.261426
3.03 -0.25426
3.04 -0.246775
3.05 -0.238968
3.06 -0.230821
3.07 -0.222304
3.08 -0.213355
3.09 -0.203878
3.1 -0.193829
3.11 -0.183116
3.12 -0.171638
3.13 -0.159285
3.14 -0.145947
3.15 -0.131412
3.16 -0.115624
3.17 -0.0985327
3.18 -0.0800696
3.19 -0.0601894
3.2 -0.0388737
3.21 -0.0161058
3.22 0.00816276
3.23 0.0337059
3.24 0.0603988
3.25 0.0880827
3.26 0.116566
3.27 0.145629
3.28 0.175031
3.29 0.204457
3.3 0.233611
3.31 0.262206
3.32 0.289956
3.33 0.316579
3.34 0.341796
3.35 0.365175
3.36 0.386661
3.37 0.406075
3.38 0.423277
3.39 0.438163
3.4 0.450669
3.41 0.460626
3.42 0.468078
3.43 0.473222
3.44 0.476157
3.45 0.477011
3.46 0.475938
3.47 0.473111
3.48 0.468559
3.49 0.462675
3.5 0.455659
3.51 0.447706
3.52 0.439
3.53 0.429714
3.54 0.419989
3.55 0.409977
3.56 0.399816
3.57 0.389595
3.58 0.379386
3.59 0.369239
3.6 0.35919
3.61 0.349271
3.62 0.339479
3.63 0.329813
3.64 0.320266
3.65 0.310836
3.66 0.30152
3.67 0.29233
3.68 0.283287
3.69 0.27441
3.7 0.265737
3.71 0.25732
3.72 0.249224
3.73 0.241524
3.74 0.234357
3.75 0.227795
3.76 0.221925
3.77 0.216847
3.78 0.212659
3.79 0.209455
3.8 0.207355
3.81 0.20651
3.82 0.206882
3.83 0.208515
3.84 0.211434
3.85 0.215646
3.86 0.221139
3.87 0.22798
3.88 0.236051
3.89 0.245238
3.9 0.255456
3.91 0.266604
3.92 0.278571
3.93 0.291249
3.94 0.304542
3.95 0.31825
3.96 0.332243
3.97 0.34639
3.98 0.360564
3.99 0.37464
4 0.388478
4.01 0.401957
4.02 0.414987
4.03 0.427474
4.04 0.439333
4.05 0.450484
4.06 0.460851
4.07 0.470276
4.08 0.478791
4.09 0.486343
4.1 0.49289
4.11 0.498389
4.12 0.502807
4.13 0.506042
4.14 0.508069
4.15 0.508931
4.16 0.508612
4.17 0.507102
4.18 0.504397
4.19 0.500497
4.2 0.495278
4.21 0.488885
4.22 0.481347
4.23 0.472691
4.24 0.462952
4.25 0.452171
4.26 0.440346
4.27 0.427517
4.28 0.413805
4.29 0.399262
4.3 0.383946
4.31 0.367909
4.32 0.351205
4.33 0.333823
4.34 0.315867
4.35 0.297384
4.36 0.27841
4.37 0.258972
4.38 0.239094
4.39 0.21878
4.4 0.198031
4.41 0.176891
4.42 0.155373
4.43 0.133489
4.44 0.111254
4.45 0.088686
4.46 0.0657853
4.47 0.0426089
4.48 0.0192075
4.49 -0.00436645
4.5 -0.0280501
4.51 -0.0517703
4.52 -0.0754401
4.53 -0.0989447
4.54 -0.122187
4.55 -0.145059
4.56 -0.167448
4.57 -0.189241
4.58 -0.210324
4.59 -0.230517
4.6 -0.24974
4.61 -0.267936
4.62 -0.285027
4.63 -0.300953
4.64 -0.315669
4.65 -0.329128
4.66 -0.341218
4.67 -0.352082
4.68 -0.361754
4.69 -0.370289
4.7 -0.377754
4.71 -0.384234
4.72 -0.389768
4.73 -0.394494
4.74 -0.398564
4.75 -0.402088
4.76 -0.405177
4.77 -0.407933
4.78 -0.410454
4.79 -0.412818
4.8 -0.415121
4.81 -0.417419
4.82 -0.419753
4.83 -0.42215
4.84 -0.424621
4.85 -0.427166
4.86 -0.429764
4.87 -0.432383
4.88 -0.434983
4.89 -0.43752
4.9 -0.439947
4.91 -0.442215
4.92 -0.444248
4.93 -0.446021
4.94 -0.447497
4.95 -0.448648
4.96 -0.449453
4.97 -0.449898
4.98 -0.449964
4.99 -0.449647
5 -0.448985
5.01 -0.447999
5.02 -0.446709
5.03 -0.445139
5.04 -0.443313
5.05 -0.441229
5.06 -0.438922
5.07 -0.436406
5.08 -0.433679
5.09 -0.430732
5.1 -0.427545
5.11 -0.42408
5.12 -0.420277
5.13 -0.416111
5.14 -0.411528
5.15 -0.406471
5.16 -0.40088
5.17 -0.394697
5.18 -0.387806
5.19 -0.380194
5.2 -0.371844
5.21 -0.362734
5.22 -0.352854
5.23 -0.342212
5.24 -0.330815
5.25 -0.318666
5.26 -0.305895
5.27 -0.292581
5.28 -0.278819
5.29 -0.264714
5.3 -0.25038
5.31 -0.235941
5.32 -0.221543
5.33 -0.207312
5.34 -0.193365
5.35 -0.179814
5.36 -0.166757
5.37 -0.154286
5.38 -0.142536
5.39 -0.131489
5.4 -0.121173
5.41 -0.111595
5.42 -0.102745
5.43 -0.0945958
5.44 -0.0871443
5.45 -0.0803156
5.46 -0.0740098
5.47 -0.0681545
5.48 -0.0626752
5.49 -0.0574983
5.5 -0.0525549
5.51 -0.0477961
5.52 -0.0431477
5.53 -0.038573
5.54 -0.0340487
5.55 -0.029566
5.56 -0.0251297
5.57 -0.0207635
5.58 -0.0165045
5.59 -0.0123907
5.6 -0.00847069
5.61 -0.0047967
5.62 -0.00142109
5.63 0.00160678
5.64 0.00419781
5.65 0.006356
5.66 0.00806697
5.67 0.00932765
5.68 0.0101512
5.69 0.0105676
5.7 0.0106112
5.71 0.0103483
5.72 0.00988648
5.73 0.00931973
5.74 0.00875084
5.75 0.00828822
5.76 0.0080421
5.77 0.00816218
5.78 0.00873499
5.79 0.00984195
5.8 0.0115564
5.81 0.013934
5.82 0.0170099
5.83 0.0208206
5.84 0.0253877
5.85 0.0306119
5.86 0.0364323
5.87 0.0427676
5.88 0.0495194
5.89 0.0565747
5.9 0.0638148
5.91 0.0710843
5.92 0.0782486
5.93 0.085183
5.94 0.0917722
5.95 0.0979145
5.96 0.103513
5.97 0.108454
5.98 0.112758
5.99 0.116414
6 0.119439
6.01 0.121873
6.02 0.123781
6.03 0.125222
6.04 0.126329
6.05 0.127236
6.06 0.128071
6.07 0.12896
6.08 0.130028
6.09 0.131398
6.1 0.133223
6.11 0.135552
6.12 0.138446
6.13 0.141939
6.14 0.146041
6.15 0.150733
6.16 0.155998
6.17 0.161743
6.18 0.167833
6.19 0.174144
6.2 0.180532
6.21 0.186842
6.22 0.192911
6.23 0.198507
6.24 0.2035
6.25 0.20774
6.26 0.211088
6.27 0.213427
6.28 0.214662
6.29 0.214656
6.3 0.213351
6.31 0.210816
6.32 0.207072
6.33 0.202168
6.34 0.196177
6.35 0.189195
6.36 0.181258
6.37 0.172594
6.38 0.163352
6.39 0.153678
6.4 0.143715
6.41 0.133602
6.42 0.123473
6.43 0.113459
6.44 0.103655
6.45 0.0941358
6.46 0.0849544
6.47 0.0761436
6.48 0.0677148
6.49 0.0596925
6.5 0.0520176
6.51 0.0446364
6.52 0.0374922
6.53 0.0305207
6.54 0.0236533
6.55 0.01682
6.56 0.00994564
6.57 0.00297208
6.58 -0.00414615
6.59 -0.0114414
6.6 -0.0189313
6.61 -0.0266175
6.62 -0.0344978
6.63 -0.0425256
6.64 -0.050645
6.65 -0.0587933
6.66 -0.0668969
6.67 -0.0748745
6.68 -0.0826332
6.69 -0.0900497
6.7 -0.0970597
6.71 -0.103582
6.72 -0.109542
6.73 -0.114877
6.74 -0.119534
6.75 -0.123422
6.76 -0.126535
6.77 -0.128899
6.78 -0.130521
6.79 -0.131421
6.8 -0.131629
6.81 -0.13118
6.82 -0.130065
6.83 -0.128402
6.84 -0.126243
6.85 -0.123636
6.86 -0.120624
6.87 -0.117244
6.88 -0.113503
6.89 -0.109423
6.9 -0.105027
6.91 -0.100308
6.92 -0.0952473
6.93 -0.0898184
6.94 -0.0839854
6.95 -0.0776494
6.96 -0.0708088
6.97 -0.0634161
6.98 -0.0554238
6.99 -0.0467888
7 -0.0374739
7.01 -0.0274145
7.02 -0.0165801
7.03 -0.00501665
7.04 0.00726375
7.05 0.0202349
7.06 0.0338563
7.07 0.0480738
7.08 0.0628672
7.09 0.0781006
7.1 0.0936773
7.11 0.109501
7.12 0.125471
7.13 0.141485
7.14 0.157436
7.15 0.173205
7.16 0.188708
7.17 0.203861
7.18 0.21859
7.19 0.23283
7.2 0.246529
7.21 0.259586
7.22 0.272006
7.23 0.283785
7.24 0.294909
7.25 0.305372
7.26 0.315174
7.27 0.324296
7.28 0.332701
7.29 0.340447
7.3 0.347531
7.31 0.353943
7.32 0.359667
7.33 0.364681
7.34 0.368891
7.35 0.372287
7.36 0.374848
7.37 0.376521
7.38 0.377248
7.39 0.376968
7.4 0.375602
7.41 0.372986
7.42 0.369174
7.43 0.364117
7.44 0.357775
7.45 0.350117
7.46 0.341126
7.47 0.330707
7.48 0.318906
7.49 0.305818
7.5 0.291489
7.51 0.275985
7.52 0.259382
7.53 0.241769
7.54 0.223167
7.55 0.203806
7.56 0.18381
7.57 0.163312
7.58 0.142446
7.59 0.121349
7.6 0.100161
7.61 0.0790354
7.62 0.0581032
7.63 0.0374856
7.64 0.0172958
7.65 -0.00236188
7.66 -0.0213922
7.67 -0.0396215
7.68 -0.0570448
7.69 -0.0736025
7.7 -0.0892409
7.71 -0.103915
7.72 -0.117587
7.73 -0.130179
7.74 -0.141643
7.75 -0.152038
7.76 -0.161355
7.77 -0.169592
7.78 -0.176752
7.79 -0.182844
7.8 -0.187777
7.81 -0.191661
7.82 -0.19454
7.83 -0.196444
7.84 -0.197411
7.85 -0.197485
7.86 -0.196685
7.87 -0.195039
7.88 -0.192679
7.89 -0.18967
7.9 -0.186084
7.91 -0.181997
7.92 -0.177485
7.93 -0.172606
7.94 -0.167468
7.95 -0.162159
7.96 -0.156754
7.97 -0.151321
7.98 -0.145925
7.99 -0.140627
8 -0.135491
8.01 -0.130544
8.02 -0.125815
8.03 -0.121323
8.04 -0.117075
8.05 -0.113073
8.06 -0.109326
8.07 -0.105805
8.08 -0.10248
8.09 -0.0993239
8.1 -0.0963083
8.11 -0.0934044
8.12 -0.090585
8.13 -0.0878276
8.14 -0.0851044
8.15 -0.0824015
8.16 -0.0797112
8.17 -0.0770326
8.18 -0.0743719
8.19 -0.0717452
8.2 -0.0691746
8.21 -0.0666834
8.22 -0.0642999
8.23 -0.0620541
8.24 -0.0599759
8.25 -0.058094
8.26 -0.0564587
8.27 -0.0550637
8.28 -0.0539174
8.29 -0.0530191
8.3 -0.0523582
8.31 -0.0519132
8.32 -0.0516594
8.33 -0.0515462
8.34 -0.0515074
8.35 -0.0514795
8.36 -0.0513927
8.37 -0.051173
8.38 -0.0507445
8.39 -0.0499931
8.4 -0.0488702
8.41 -0.0473151
8.42 -0.0452745
8.43 -0.0427071
8.44 -0.0395855
8.45 -0.0358724
8.46 -0.0315611
8.47 -0.0267188
8.48 -0.0213892
8.49 -0.0156319
8.5 -0.00952116
8.51 -0.00314385
8.52 0.00340893
8.53 0.0100064
8.54 0.0165362
8.55 0.0228889
8.56 0.0289586
8.57 0.034646
8.58 0.0398427
8.59 0.0444366
8.6 0.0484105
8.61 0.0517244
8.62 0.054356
8.63 0.0563018
8.64 0.0575767
8.65 0.0581614
8.66 0.0581489
8.67 0.0576233
8.68 0.0566596
8.69 0.0553403
8.7 0.0537514
8.71 0.0519774
8.72 0.0501049
8.73 0.0482243
8.74 0.0464003
8.75 0.0446847
8.76 0.043115
8.77 0.0417124
8.78 0.0404936
8.79 0.0394356
8.8 0.0384986
8.81 0.0376349
8.82 0.0367845
8.83 0.0358771
8.84 0.0348326
8.85 0.0335389
8.86 0.0319296
8.87 0.0299262
8.88 0.0274567
8.89 0.0244589
8.9 0.0208824
8.91 0.0166498
8.92 0.0117483
8.93 0.00621094
8.94 5.53933e-05
8.95 -0.0066846
8.96 -0.0139603
8.97 -0.0217101
8.98 -0.0298974
8.99 -0.0383858
9 -0.0470876
9.01 -0.0559138
9.02 -0.064777
9.03 -0.0735946
9.04 -0.0822812
9.05 -0.0907617
9.06 -0.0989945
9.07 -0.106943
9.08 -0.114586
9.09 -0.121914
9.1 -0.128934
9.11 -0.135635
9.12 -0.142081
9.13 -0.148312
9.14 -0.154375
9.15 -0.160317
9.16 -0.166184
9.17 -0.172022
9.18 -0.177873
9.19 -0.183765
9.2 -0.189713
9.21 -0.19572
9.22 -0.201777
9.23 -0.207856
9.24 -0.213915
9.25 -0.219894
9.26 -0.225729
9.27 -0.231345
9.28 -0.236662
9.29 -0.241596
9.3 -0.246045
9.31 -0.249888
9.32 -0.253091
9.33 -0.255591
9.34 -0.257334
9.35 -0.258281
9.36 -0.25841
9.37 -0.257643
9.38 -0.256037
9.39 -0.253648
9.4 -0.250521
9.41 -0.246712
9.42 -0.242289
9.43 -0.23732
9.44 -0.231862
9.45 -0.226048
9.46 -0.219959
9.47 -0.213669
9.48 -0.207246
9.49 -0.200744
9.5 -0.194205
9.51 -0.187658
9.52 -0.181112
9.53 -0.174556
9.54 -0.167966
9.55 -0.161301
9.56 -0.154506
9.57 -0.14749
9.58 -0.140194
9.59 -0.132541
9.6 -0.124451
9.61 -0.115851
9.62 -0.106669
9.63 -0.0968027
9.64 -0.0862032
9.65 -0.074876
9.66 -0.0628075
9.67 -0.0500019
9.68 -0.0364813
9.69 -0.0222855
9.7 -0.00740798
9.71 0.00799915
9.72 0.0238464
9.73 0.0400352
9.74 0.05646
9.75 0.0730115
9.76 0.0895744
9.77 0.106025
9.78 0.122262
9.79 0.138197
9.8 0.153749
9.81 0.168852
9.82 0.183454
9.83 0.197461
9.84 0.210898
9.85 0.223768
9.86 0.23608
9.87 0.247852
9.88 0.259111
9.89 0.269873
9.9 0.280162
9.91 0.290052
9.92 0.299576
9.93 0.308761
9.94 0.317627
9.95 0.326184
9.96 0.334404
9.97 0.342291
9.98 0.349828
9.99 0.356977
10 0.363692
10.01 0.369918
10.02 0.375578
10.03 0.380562
10.04 0.384856
10.05 0.388399
10.06 0.391138
10.07 0.393027
10.08 0.39403
10.09 0.394053
10.1 0.393135
10.11 0.391323
10.12 0.388649
10.13 0.385163
10.14 0.38093
10.15 0.376019
10.16 0.370492
10.17 0.364516
10.18 0.358205
10.19 0.351673
10.2 0.345038
10.21 0.338411
10.22 0.331916
10.23 0.325658
10.24 0.319715
10.25 0.314153
10.26 0.309023
10.27 0.304361
10.28 0.300186
10.29 0.296546
10.3 0.293363
10.31 0.290602
10.32 0.288212
10.33 0.286132
10.34 0.284291
10.35 0.28262
10.36 0.281025
10.37 0.27942
10.38 0.277728
10.39 0.275877
10.4 0.273802
10.41 0.271446
10.42 0.268719
10.43 0.265617
10.44 0.262116
10.45 0.258199
10.46 0.253855
10.47 0.249084
10.48 0.243868
10.49 0.238207
10.5 0.23214
10.51 0.225677
10.52 0.218824
10.53 0.211587
10.54 0.203967
10.55 0.195918
10.56 0.187464
10.57 0.178597
10.58 0.169296
10.59 0.159541
10.6 0.149307
10.61 0.13855
10.62 0.127224
10.63 0.115353
10.64 0.102924
10.65 0.0899342
10.66 0.0763896
10.67 0.0623065
10.68 0.0476703
10.69 0.0325609
10.7 0.0170469
10.71 0.00119455
10.72 -0.0149197
10.73 -0.0312109
10.74 -0.0475873
10.75 -0.0639401
10.76 -0.0801665
10.77 -0.0961724
10.78 -0.111869
10.79 -0.127175
10.8 -0.142021
10.81 -0.156305
10.82 -0.170004
10.83 -0.183115
10.84 -0.195636
10.85 -0.207578
10.86 -0.218973
10.87 -0.229859
10.88 -0.240265
10.89 -0.250315
10.9 -0.26009
10.91 -0.269674
10.92 -0.279154
10.93 -0.288611
10.94 -0.298131
10.95 -0.307788
10.96 -0.317628
10.97 -0.327686
10.98 -0.337977
10.99 -0.348498
11 -0.359227
11.01 -0.370132
11.02 -0.381123
11.03 -0.392117
11.04 -0.403015
11.05 -0.413709
11.06 -0.424082
11.07 -0.433977
11.08 -0.443254
11.09 -0.451822
11.1 -0.459572
11.11 -0.466407
11.12 -0.472244
11.13 -0.477019
11.14 -0.480559
11.15 -0.482957
11.16 -0.484223
11.17 -0.484377
11.18 -0.483463
11.19 -0.481539
11.2 -0.478642
11.21 -0.474853
11.22 -0.470333
11.23 -0.465184
11.24 -0.459508
11.25 -0.453401
11.26 -0.446956
11.27 -0.440231
11.28 -0.433321
11.29 -0.426274
11.3 -0.41912
11.31 -0.411869
11.32 -0.404513
11.33 -0.39702
11.34 -0.389331
11.35 -0.381399
11.36 -0.373153
11.37 -0.364517
11.38 -0.355408
11.39 -0.345746
11.4 -0.33539
11.41 -0.3243
11.42 -0.312438
11.43 -0.299761
11.44 -0.286243
11.45 -0.271875
11.46 -0.256651
11.47 -0.240552
11.48 -0.223712
11.49 -0.206204
11.5 -0.18812
11.51 -0.169562
11.52 -0.150647
11.53 -0.131488
11.54 -0.11224
11.55 -0.0930395
11.56 -0.0740104
11.57 -0.0552703
11.58 -0.0369269
11.59 -0.0190833
11.6 -0.00188019
11.61 0.0146751
11.62 0.0305397
11.63 0.0456877
11.64 0.0601103
11.65 0.0738139
11.66 0.0867759
11.67 0.0990465
11.68 0.110706
11.69 0.121807
11.7 0.132403
11.71 0.142551
11.72 0.152305
11.73 0.161681
11.74 0.170765
11.75 0.179588
11.76 0.188175
11.77 0.196537
11.78 0.204676
11.79 0.212568
11.8 0.220189
11.81 0.227522
11.82 0.234531
11.83 0.241174
11.84 0.247406
11.85 0.25318
11.86 0.258393
11.87 0.263047
11.88 0.267112
11.89 0.270557
11.9 0.273359
11.91 0.275503
11.92 0.276953
11.93 0.27769
11.94 0.277774
11.95 0.277219
11.96 0.276044
11.97 0.274273
11.98 0.271929
11.99 0.268982
12 0.265497
12.01 0.2615
12.02 0.256999
12.03 0.251995
12.04 0.246483
12.05 0.24043
12.06 0.233782
12.07 0.226552
12.08 0.218702
12.09 0.21019
12.1 0.200972
12.11 0.191002
12.12 0.180166
12.13 0.168465
12.14 0.155893
12.15 0.142431
