# xPDFsuite Configuration #
[PDF]
wavelength = 0.1
dataformat = QA
inputfile = BiMsol6_insitu_700 C-00074.xy
backgroundfile = Quartz2mm-dist500-00000.xy
mode = xray
bgscale = 0.0042
composition = Bi2Fe4O9
outputtype = gr
qmaxinst = 24.998449118
qmin = 0.1
qmax = 21.4986662415
rmax = 80.0
rmin = 0.0
rstep = 0.01
rpoly = 0.9

[Misc]
inputdir = C:/Data/Seafile/CPH/Beamtime/Desy Oct 20/In situ data/Processed/BiMsol6/PDF
savedir = C:/Data/Seafile/CPH/Beamtime/Desy Oct 20/In situ data/PDF/BiMsol6
backgroundfilefull = C:/Data/Seafile/CPH/Beamtime/Desy Oct 20/In situ data/Processed/Standard_Empty_Cap/Quartz2mm-dist500-00000.xy

#### start data
#S 1
#L r($\AA$)  G($\AA^{-2}$)
0 0
0.01 0.00654933
0.02 0.0127339
0.03 0.0182413
0.04 0.0227912
0.05 0.0261479
0.06 0.0281314
0.07 0.0285445
0.08 0.0273284
0.09 0.024626
0.1 0.0205545
0.11 0.0152962
0.12 0.00909111
0.13 0.00222594
0.14 -0.00497809
0.15 -0.0121124
0.16 -0.0188326
0.17 -0.0248151
0.18 -0.0297691
0.19 -0.0334505
0.2 -0.035608
0.21 -0.0360676
0.22 -0.0349232
0.23 -0.0322364
0.24 -0.0281473
0.25 -0.0228702
0.26 -0.0166847
0.27 -0.00990715
0.28 -0.00300233
0.29 0.00361649
0.3 0.0095476
0.31 0.014408
0.32 0.0178519
0.33 0.0195287
0.34 0.0190939
0.35 0.0165906
0.36 0.0120083
0.37 0.00543993
0.38 -0.00291631
0.39 -0.01276
0.4 -0.0237449
0.41 -0.0352615
0.42 -0.0467101
0.43 -0.0574814
0.44 -0.0669435
0.45 -0.0744658
0.46 -0.0793814
0.47 -0.0808329
0.48 -0.078624
0.49 -0.0724019
0.5 -0.0619344
0.51 -0.047124
0.52 -0.0280179
0.53 -0.00454184
0.54 0.0227662
0.55 0.053194
0.56 0.0860795
0.57 0.120647
0.58 0.156027
0.59 0.191274
0.6 0.225179
0.61 0.256791
0.62 0.285156
0.63 0.309378
0.64 0.328651
0.65 0.342282
0.66 0.349313
0.67 0.349352
0.68 0.342572
0.69 0.328982
0.7 0.308771
0.71 0.282309
0.72 0.250132
0.73 0.21245
0.74 0.170749
0.75 0.125995
0.76 0.0792135
0.77 0.0314685
0.78 -0.0161668
0.79 -0.0625313
0.8 -0.106458
0.81 -0.147152
0.82 -0.183848
0.83 -0.215915
0.84 -0.242875
0.85 -0.264413
0.86 -0.279807
0.87 -0.289612
0.88 -0.294129
0.89 -0.293729
0.9 -0.288914
0.91 -0.280293
0.92 -0.268469
0.93 -0.25422
0.94 -0.238568
0.95 -0.222297
0.96 -0.206164
0.97 -0.190872
0.98 -0.177048
0.99 -0.165453
1 -0.156406
1.01 -0.150133
1.02 -0.146786
1.03 -0.146397
1.04 -0.14888
1.05 -0.154109
1.06 -0.16189
1.07 -0.171606
1.08 -0.182817
1.09 -0.19505
1.1 -0.207818
1.11 -0.220639
1.12 -0.232992
1.13 -0.244437
1.14 -0.254656
1.15 -0.263383
1.16 -0.270435
1.17 -0.275711
1.18 -0.279164
1.19 -0.280733
1.2 -0.280753
1.21 -0.279442
1.22 -0.277064
1.23 -0.273918
1.24 -0.270322
1.25 -0.266611
1.26 -0.263133
1.27 -0.260164
1.28 -0.257931
1.29 -0.256606
1.3 -0.256304
1.31 -0.257078
1.32 -0.25901
1.33 -0.261881
1.34 -0.265531
1.35 -0.269752
1.36 -0.274296
1.37 -0.278888
1.38 -0.283206
1.39 -0.286917
1.4 -0.289771
1.41 -0.291529
1.42 -0.291997
1.43 -0.291036
1.44 -0.288565
1.45 -0.284404
1.46 -0.278789
1.47 -0.271867
1.48 -0.263838
1.49 -0.254957
1.5 -0.245525
1.51 -0.23588
1.52 -0.226433
1.53 -0.217551
1.54 -0.209577
1.55 -0.202824
1.56 -0.197565
1.57 -0.194019
1.58 -0.192537
1.59 -0.193039
1.6 -0.19548
1.61 -0.199767
1.62 -0.20573
1.63 -0.213129
1.64 -0.221687
1.65 -0.231025
1.66 -0.240649
1.67 -0.25013
1.68 -0.259033
1.69 -0.266932
1.7 -0.273422
1.71 -0.277954
1.72 -0.280301
1.73 -0.280285
1.74 -0.277754
1.75 -0.272634
1.76 -0.264936
1.77 -0.254695
1.78 -0.241964
1.79 -0.227231
1.8 -0.210818
1.81 -0.193099
1.82 -0.174481
1.83 -0.155389
1.84 -0.136289
1.85 -0.117657
1.86 -0.0998798
1.87 -0.0833025
1.88 -0.0682171
1.89 -0.0548529
1.9 -0.043399
1.91 -0.0341155
1.92 -0.0267986
1.93 -0.0213684
1.94 -0.0176786
1.95 -0.0155249
1.96 -0.0146546
1.97 -0.0148233
1.98 -0.015652
1.99 -0.0167709
2 -0.0178654
2.01 -0.0186428
2.02 -0.0188442
2.03 -0.0182518
2.04 -0.0165894
2.05 -0.0138695
2.06 -0.0100765
2.07 -0.00526109
2.08 0.000461431
2.09 0.00691538
2.1 0.0138836
2.11 0.0210447
2.12 0.0280555
2.13 0.0345831
2.14 0.0402894
2.15 0.0448444
2.16 0.047939
2.17 0.0490816
2.18 0.0482054
2.19 0.0451623
2.2 0.0398539
2.21 0.0322487
2.22 0.0223843
2.23 0.0102772
2.24 -0.00391816
2.25 -0.0198019
2.26 -0.0370766
2.27 -0.0554047
2.28 -0.0744191
2.29 -0.0937354
2.3 -0.112917
2.31 -0.13155
2.32 -0.149283
2.33 -0.165796
2.34 -0.180812
2.35 -0.194105
2.36 -0.205438
2.37 -0.214604
2.38 -0.221733
2.39 -0.226861
2.4 -0.230083
2.41 -0.231545
2.42 -0.231442
2.43 -0.229913
2.44 -0.227334
2.45 -0.224026
2.46 -0.220279
2.47 -0.216379
2.48 -0.212598
2.49 -0.209197
2.5 -0.206461
2.51 -0.204522
2.52 -0.203509
2.53 -0.203508
2.54 -0.204556
2.55 -0.206649
2.56 -0.209809
2.57 -0.2139
2.58 -0.218755
2.59 -0.224225
2.6 -0.23014
2.61 -0.236323
2.62 -0.24259
2.63 -0.248733
2.64 -0.25458
2.65 -0.259984
2.66 -0.264817
2.67 -0.268978
2.68 -0.272389
2.69 -0.274951
2.7 -0.276653
2.71 -0.277551
2.72 -0.277679
2.73 -0.277091
2.74 -0.275859
2.75 -0.274062
2.76 -0.271746
2.77 -0.269063
2.78 -0.266102
2.79 -0.262944
2.8 -0.259658
2.81 -0.256304
2.82 -0.252927
2.83 -0.24956
2.84 -0.246216
2.85 -0.242893
2.86 -0.239579
2.87 -0.236251
2.88 -0.23288
2.89 -0.229418
2.9 -0.225834
2.91 -0.222097
2.92 -0.218178
2.93 -0.214055
2.94 -0.209716
2.95 -0.205147
2.96 -0.200351
2.97 -0.195362
2.98 -0.190208
2.99 -0.184923
3 -0.179547
3.01 -0.17412
3.02 -0.16869
3.03 -0.163298
3.04 -0.157979
3.05 -0.152756
3.06 -0.147643
3.07 -0.142642
3.08 -0.137744
3.09 -0.132923
3.1 -0.128129
3.11 -0.123309
3.12 -0.118399
3.13 -0.113326
3.14 -0.108013
3.15 -0.102344
3.16 -0.0962462
3.17 -0.0896539
3.18 -0.0824994
3.19 -0.0747251
3.2 -0.0662859
3.21 -0.0571368
3.22 -0.0472107
3.23 -0.0365824
3.24 -0.0252761
3.25 -0.0133319
3.26 -0.000804309
3.27 0.01224
3.28 0.0257508
3.29 0.0396194
3.3 0.0537406
3.31 0.0680289
3.32 0.0824035
3.33 0.096791
3.34 0.111127
3.35 0.125348
3.36 0.139429
3.37 0.153353
3.38 0.167122
3.39 0.18075
3.4 0.194267
3.41 0.207712
3.42 0.221146
3.43 0.234629
3.44 0.248221
3.45 0.261977
3.46 0.27595
3.47 0.290178
3.48 0.304726
3.49 0.319569
3.5 0.334694
3.51 0.350068
3.52 0.365638
3.53 0.381325
3.54 0.39703
3.55 0.412613
3.56 0.42794
3.57 0.442859
3.58 0.457214
3.59 0.470841
3.6 0.483579
3.61 0.49514
3.62 0.50546
3.63 0.514417
3.64 0.521895
3.65 0.527799
3.66 0.532057
3.67 0.534553
3.68 0.535203
3.69 0.534151
3.7 0.531433
3.71 0.527111
3.72 0.521268
3.73 0.514005
3.74 0.505331
3.75 0.495483
3.76 0.484632
3.77 0.472921
3.78 0.460494
3.79 0.447491
3.8 0.434038
3.81 0.420258
3.82 0.406299
3.83 0.392258
3.84 0.378222
3.85 0.36426
3.86 0.350433
3.87 0.336802
3.88 0.323395
3.89 0.310228
3.9 0.297314
3.91 0.28466
3.92 0.272272
3.93 0.260153
3.94 0.248327
3.95 0.236767
3.96 0.225475
3.97 0.214455
3.98 0.203712
3.99 0.193253
4 0.183108
4.01 0.173279
4.02 0.16376
4.03 0.154556
4.04 0.145669
4.05 0.137095
4.06 0.12883
4.07 0.120886
4.08 0.113206
4.09 0.105764
4.1 0.0985219
4.11 0.0914409
4.12 0.0844759
4.13 0.0775806
4.14 0.0706988
4.15 0.0637802
4.16 0.0567818
4.17 0.0496659
4.18 0.042403
4.19 0.0349727
4.2 0.0273464
4.21 0.0195491
4.22 0.0116012
4.23 0.00353536
4.24 -0.004603
4.25 -0.012757
4.26 -0.0208531
4.27 -0.0288016
4.28 -0.0365248
4.29 -0.0439388
4.3 -0.0509605
4.31 -0.0575111
4.32 -0.0635186
4.33 -0.0688546
4.34 -0.0735202
4.35 -0.0774952
4.36 -0.0807672
4.37 -0.083342
4.38 -0.0852443
4.39 -0.086495
4.4 -0.0871417
4.41 -0.0873132
4.42 -0.0871018
4.43 -0.0866095
4.44 -0.0859448
4.45 -0.0852192
4.46 -0.0845576
4.47 -0.0840741
4.48 -0.0838617
4.49 -0.0840026
4.5 -0.0845634
4.51 -0.0855932
4.52 -0.0871354
4.53 -0.0892297
4.54 -0.0918134
4.55 -0.0948495
4.56 -0.0982823
4.57 -0.10204
4.58 -0.106035
4.59 -0.110176
4.6 -0.114336
4.61 -0.118405
4.62 -0.122275
4.63 -0.125846
4.64 -0.129027
4.65 -0.131729
4.66 -0.133835
4.67 -0.135352
4.68 -0.136256
4.69 -0.136543
4.7 -0.136227
4.71 -0.135342
4.72 -0.133908
4.73 -0.132015
4.74 -0.129768
4.75 -0.12726
4.76 -0.124586
4.77 -0.121845
4.78 -0.119137
4.79 -0.116578
4.8 -0.114247
4.81 -0.112218
4.82 -0.110549
4.83 -0.109289
4.84 -0.108468
4.85 -0.108128
4.86 -0.10827
4.87 -0.108848
4.88 -0.109833
4.89 -0.111185
4.9 -0.112853
4.91 -0.114784
4.92 -0.116933
4.93 -0.119214
4.94 -0.121566
4.95 -0.123936
4.96 -0.126273
4.97 -0.128537
4.98 -0.130686
4.99 -0.13269
5 -0.134541
5.01 -0.136234
5.02 -0.137768
5.03 -0.139152
5.04 -0.140396
5.05 -0.141506
5.06 -0.142511
5.07 -0.143428
5.08 -0.144273
5.09 -0.145058
5.1 -0.14579
5.11 -0.146471
5.12 -0.147095
5.13 -0.147657
5.14 -0.148146
5.15 -0.148543
5.16 -0.148831
5.17 -0.148989
5.18 -0.148982
5.19 -0.1488
5.2 -0.148432
5.21 -0.14787
5.22 -0.147111
5.23 -0.146161
5.24 -0.145026
5.25 -0.14372
5.26 -0.142287
5.27 -0.140765
5.28 -0.139192
5.29 -0.137615
5.3 -0.136079
5.31 -0.134642
5.32 -0.13335
5.33 -0.132237
5.34 -0.131334
5.35 -0.130663
5.36 -0.130235
5.37 -0.130053
5.38 -0.130122
5.39 -0.130386
5.4 -0.130805
5.41 -0.131325
5.42 -0.131884
5.43 -0.132411
5.44 -0.132818
5.45 -0.133018
5.46 -0.132938
5.47 -0.132507
5.48 -0.131659
5.49 -0.130341
5.5 -0.128509
5.51 -0.126076
5.52 -0.123097
5.53 -0.119584
5.54 -0.11557
5.55 -0.111104
5.56 -0.106252
5.57 -0.101082
5.58 -0.0957019
5.59 -0.0902322
5.6 -0.0847807
5.61 -0.0794554
5.62 -0.0743611
5.63 -0.0695954
5.64 -0.0652976
5.65 -0.0615022
5.66 -0.0582548
5.67 -0.0555844
5.68 -0.0534982
5.69 -0.0519812
5.7 -0.0510169
5.71 -0.0505493
5.72 -0.0504576
5.73 -0.0506436
5.74 -0.0509969
5.75 -0.0513985
5.76 -0.0517256
5.77 -0.0518249
5.78 -0.0515824
5.79 -0.0508982
5.8 -0.0496825
5.81 -0.0478642
5.82 -0.0453932
5.83 -0.0422201
5.84 -0.0383113
5.85 -0.0337539
5.86 -0.0286016
5.87 -0.0229307
5.88 -0.0168369
5.89 -0.0104324
5.9 -0.00383786
5.91 0.00278644
5.92 0.00929948
5.93 0.0155687
5.94 0.0214699
5.95 0.0268912
5.96 0.0317236
5.97 0.0358387
5.98 0.0392488
5.99 0.0419358
6 0.0439079
6.01 0.0451999
6.02 0.0458716
6.03 0.0459741
6.04 0.0456456
6.05 0.0450318
6.06 0.0442673
6.07 0.0434928
6.08 0.0428497
6.09 0.0424799
6.1 0.0425636
6.11 0.0431792
6.12 0.0444169
6.13 0.0463449
6.14 0.0490059
6.15 0.0524164
6.16 0.05661
6.17 0.0615305
6.18 0.0670682
6.19 0.0731295
6.2 0.0796011
6.21 0.0863539
6.22 0.0932475
6.23 0.100116
6.24 0.106799
6.25 0.113151
6.26 0.119038
6.27 0.124339
6.28 0.128952
6.29 0.132749
6.3 0.135655
6.31 0.137693
6.32 0.138861
6.33 0.139181
6.34 0.138697
6.35 0.137478
6.36 0.13555
6.37 0.13309
6.38 0.130219
6.39 0.127058
6.4 0.12373
6.41 0.120355
6.42 0.117054
6.43 0.113951
6.44 0.111125
6.45 0.108647
6.46 0.106568
6.47 0.104921
6.48 0.10372
6.49 0.102997
6.5 0.102693
6.51 0.102753
6.52 0.103119
6.53 0.103725
6.54 0.104495
6.55 0.10535
6.56 0.1062
6.57 0.106961
6.58 0.107562
6.59 0.107942
6.6 0.108047
6.61 0.107836
6.62 0.107252
6.63 0.106298
6.64 0.104988
6.65 0.103335
6.66 0.101366
6.67 0.0991142
6.68 0.0966192
6.69 0.09392
6.7 0.0910907
6.71 0.0881831
6.72 0.0852474
6.73 0.0823299
6.74 0.079472
6.75 0.0767173
6.76 0.0740929
6.77 0.0716114
6.78 0.0692816
6.79 0.0671047
6.8 0.0650746
6.81 0.0631804
6.82 0.0614143
6.83 0.0597411
6.84 0.0581379
6.85 0.0565822
6.86 0.0550526
6.87 0.0535305
6.88 0.0519994
6.89 0.050448
6.9 0.0488723
6.91 0.0472733
6.92 0.0456565
6.93 0.0440318
6.94 0.0424129
6.95 0.0408204
6.96 0.0392712
6.97 0.0377825
6.98 0.0363702
6.99 0.0350473
7 0.0338225
7.01 0.0327051
7.02 0.0316935
7.03 0.0307711
7.04 0.0299218
7.05 0.0291233
7.06 0.0283477
7.07 0.0275626
7.08 0.0267232
7.09 0.025791
7.1 0.0247281
7.11 0.0234973
7.12 0.0220646
7.13 0.0204008
7.14 0.0184726
7.15 0.0162534
7.16 0.0137594
7.17 0.0109964
7.18 0.0079802
7.19 0.00473636
7.2 0.00130001
7.21 -0.00229387
7.22 -0.0059766
7.23 -0.00968567
7.24 -0.0133583
7.25 -0.0169295
7.26 -0.0203347
7.27 -0.0235027
7.28 -0.0263503
7.29 -0.0288481
7.3 -0.0309537
7.31 -0.0326339
7.32 -0.0338663
7.33 -0.0346396
7.34 -0.0349181
7.35 -0.034738
7.36 -0.0341421
7.37 -0.0331664
7.38 -0.0318563
7.39 -0.0302644
7.4 -0.0284465
7.41 -0.0264602
7.42 -0.0243917
7.43 -0.0223056
7.44 -0.0202644
7.45 -0.0183269
7.46 -0.0165467
7.47 -0.0149878
7.48 -0.0136892
7.49 -0.0126696
7.5 -0.0119488
7.51 -0.011538
7.52 -0.0114397
7.53 -0.0116501
7.54 -0.0121848
7.55 -0.012989
7.56 -0.0140367
7.57 -0.0152981
7.58 -0.0167406
7.59 -0.0183301
7.6 -0.0200367
7.61 -0.0218212
7.62 -0.0236455
7.63 -0.02548
7.64 -0.0272983
7.65 -0.029077
7.66 -0.0307964
7.67 -0.03243
7.68 -0.0339726
7.69 -0.0354156
7.7 -0.0367532
7.71 -0.0379816
7.72 -0.0390997
7.73 -0.0401025
7.74 -0.04099
7.75 -0.041773
7.76 -0.0424556
7.77 -0.0430425
7.78 -0.0435393
7.79 -0.0439519
7.8 -0.0442801
7.81 -0.0445388
7.82 -0.0447378
7.83 -0.0448864
7.84 -0.0449949
7.85 -0.0450743
7.86 -0.0451365
7.87 -0.0451954
7.88 -0.0452649
7.89 -0.0453574
7.9 -0.0454848
7.91 -0.0456575
7.92 -0.0458843
7.93 -0.0461771
7.94 -0.0465354
7.95 -0.0469559
7.96 -0.0474335
7.97 -0.0479581
7.98 -0.0485157
7.99 -0.049087
8 -0.0496448
8.01 -0.0501607
8.02 -0.0506039
8.03 -0.0509421
8.04 -0.051142
8.05 -0.0511707
8.06 -0.0509792
8.07 -0.0505448
8.08 -0.0498538
8.09 -0.0488911
8.1 -0.0476491
8.11 -0.0461286
8.12 -0.0443363
8.13 -0.0422741
8.14 -0.0400018
8.15 -0.0375616
8.16 -0.0350042
8.17 -0.032388
8.18 -0.0297776
8.19 -0.027252
8.2 -0.0248918
8.21 -0.0227636
8.22 -0.0209352
8.23 -0.0194691
8.24 -0.0184197
8.25 -0.0178332
8.26 -0.0177985
8.27 -0.0182768
8.28 -0.0192673
8.29 -0.0207531
8.3 -0.0227014
8.31 -0.0250635
8.32 -0.0277913
8.33 -0.0307953
8.34 -0.0339639
8.35 -0.0371983
8.36 -0.0403941
8.37 -0.0434447
8.38 -0.0462447
8.39 -0.0486442
8.4 -0.0505781
8.41 -0.05197
8.42 -0.0527549
8.43 -0.0528842
8.44 -0.0523274
8.45 -0.0510422
8.46 -0.0490229
8.47 -0.0463535
8.48 -0.043086
8.49 -0.0392894
8.5 -0.0350473
8.51 -0.0304557
8.52 -0.0256064
8.53 -0.0206423
8.54 -0.0156802
8.55 -0.0108299
8.56 -0.00619511
8.57 -0.00187024
8.58 0.00204681
8.59 0.00545948
8.6 0.00835591
8.61 0.010709
8.62 0.0125107
8.63 0.0137713
8.64 0.0145195
8.65 0.0147645
8.66 0.0146022
8.67 0.0141205
8.68 0.0134013
8.69 0.0125317
8.7 0.0116001
8.71 0.0106955
8.72 0.00991662
8.73 0.00933009
8.74 0.00899493
8.75 0.00895667
8.76 0.00924591
8.77 0.00987748
8.78 0.0108747
8.79 0.0122038
8.8 0.0138153
8.81 0.0156614
8.82 0.0176836
8.83 0.019816
8.84 0.0219868
8.85 0.0241109
8.86 0.0261145
8.87 0.0279312
8.88 0.0295023
8.89 0.0307789
8.9 0.0317238
8.91 0.0322892
8.92 0.0324706
8.93 0.032295
8.94 0.0317845
8.95 0.0309738
8.96 0.0299091
8.97 0.0286455
8.98 0.027237
8.99 0.0257725
9 0.0243197
9.01 0.0229439
9.02 0.021706
9.03 0.0206593
9.04 0.0198623
9.05 0.0193535
9.06 0.0191343
9.07 0.0192083
9.08 0.0195657
9.09 0.0201839
9.1 0.0210286
9.11 0.0220694
9.12 0.0232292
9.13 0.0244467
9.14 0.0256596
9.15 0.0268058
9.16 0.0278259
9.17 0.0286558
9.18 0.0292366
9.19 0.0295483
9.2 0.0295686
9.21 0.0292876
9.22 0.0287084
9.23 0.0278468
9.24 0.0267105
9.25 0.025364
9.26 0.0238635
9.27 0.0222664
9.28 0.0206349
9.29 0.0190325
9.3 0.017527
9.31 0.0161931
9.32 0.015073
9.33 0.0142088
9.34 0.013632
9.35 0.0133618
9.36 0.0134045
9.37 0.0137774
9.38 0.0144395
9.39 0.0153452
9.4 0.0164481
9.41 0.0176932
9.42 0.0190188
9.43 0.0203576
9.44 0.0216296
9.45 0.0227696
9.46 0.023717
9.47 0.0244186
9.48 0.0248305
9.49 0.0249203
9.5 0.0246423
9.51 0.0240019
9.52 0.0230254
9.53 0.0217375
9.54 0.0201756
9.55 0.018388
9.56 0.0164315
9.57 0.0143692
9.58 0.0122879
9.59 0.0102584
9.6 0.00834953
9.61 0.00662576
9.62 0.00514431
9.63 0.00397359
9.64 0.00315136
9.65 0.00268145
9.66 0.00257
9.67 0.00280908
9.68 0.003377
9.69 0.00423912
9.7 0.00537146
9.71 0.00668303
9.72 0.00810855
9.73 0.00957902
9.74 0.0110241
9.75 0.0123747
9.76 0.0135549
9.77 0.0144961
9.78 0.0151638
9.79 0.0155236
9.8 0.0155546
9.81 0.0152495
9.82 0.0146155
9.83 0.0136452
9.84 0.0124075
9.85 0.0109559
9.86 0.00934974
9.87 0.00765567
9.88 0.00594539
9.89 0.0042982
9.9 0.00280213
9.91 0.00152002
9.92 0.000513241
9.93 -0.000166065
9.94 -0.000476938
9.95 -0.000391175
9.96 0.000143896
9.97 0.00109685
9.98 0.00243936
9.99 0.0041392
10 0.00615166
10.01 0.00842113
10.02 0.0108865
10.03 0.0134734
10.04 0.0160905
10.05 0.0186614
10.06 0.0211121
10.07 0.0233729
10.08 0.0253815
10.09 0.0270555
10.1 0.0283633
10.11 0.0292886
10.12 0.0298169
10.13 0.0299471
10.14 0.0296904
10.15 0.0290644
10.16 0.028082
10.17 0.0268239
10.18 0.0253422
10.19 0.0236931
10.2 0.021935
10.21 0.0201264
10.22 0.0183277
10.23 0.0165966
10.24 0.0149762
10.25 0.013502
10.26 0.0122005
10.27 0.0110885
10.28 0.0101744
10.29 0.00947407
10.3 0.00895187
10.31 0.00858605
10.32 0.00834862
10.33 0.00820685
10.34 0.00812502
10.35 0.0080653
10.36 0.00798611
10.37 0.00785362
10.38 0.0076394
10.39 0.00732072
10.4 0.00688155
10.41 0.00631318
10.42 0.00560056
10.43 0.00476658
10.44 0.00382737
10.45 0.00280471
10.46 0.00172541
10.47 0.000619989
10.48 -0.000476784
10.49 -0.001526
10.5 -0.00249686
10.51 -0.00336089
10.52 -0.0040941
10.53 -0.00467828
10.54 -0.00510188
10.55 -0.00534426
10.56 -0.00542507
10.57 -0.00536006
10.58 -0.00516953
10.59 -0.00488011
10.6 -0.00452362
10.61 -0.00413609
10.62 -0.00376136
10.63 -0.00343993
10.64 -0.00320873
10.65 -0.00310142
10.66 -0.00314682
10.67 -0.00336752
10.68 -0.00379661
10.69 -0.00442789
10.7 -0.00525185
10.71 -0.00625505
10.72 -0.00741539
10.73 -0.00870277
10.74 -0.0100812
10.75 -0.0115047
10.76 -0.012918
10.77 -0.0142716
10.78 -0.0155163
10.79 -0.0166049
10.8 -0.0174943
10.81 -0.0181258
10.82 -0.0184772
10.83 -0.0185392
10.84 -0.0183035
10.85 -0.0177727
10.86 -0.01696
10.87 -0.0158859
10.88 -0.0145705
10.89 -0.0130848
10.9 -0.0114812
10.91 -0.00981762
10.92 -0.00815546
10.93 -0.00655754
10.94 -0.00509881
10.95 -0.00384356
10.96 -0.00283737
10.97 -0.00212476
10.98 -0.00174101
10.99 -0.00171079
11 -0.00204884
11.01 -0.00279429
11.02 -0.00389063
11.03 -0.00531072
11.04 -0.00701616
11.05 -0.00895834
11.06 -0.0110799
11.07 -0.0133191
11.08 -0.0155952
11.09 -0.0178296
11.1 -0.01995
11.11 -0.0218863
11.12 -0.0235731
11.13 -0.0249514
11.14 -0.0259262
11.15 -0.0264922
11.16 -0.0266253
11.17 -0.0263111
11.18 -0.0255474
11.19 -0.0243448
11.2 -0.0227079
11.21 -0.0206675
11.22 -0.0182992
11.23 -0.0156573
11.24 -0.0128032
11.25 -0.00980261
11.26 -0.00672434
11.27 -0.00364403
11.28 -0.000637843
11.29 0.00223002
11.3 0.00490059
11.31 0.00732155
11.32 0.00944853
11.33 0.0112334
11.34 0.0126316
11.35 0.0136574
11.36 0.0143075
11.37 0.0145884
11.38 0.0145157
11.39 0.0141131
11.4 0.0133886
11.41 0.0124029
11.42 0.0112072
11.43 0.00984744
11.44 0.00837121
11.45 0.00682611
11.46 0.00525925
11.47 0.0037216
11.48 0.00225389
11.49 0.000890895
11.5 -0.000337995
11.51 -0.00140927
11.52 -0.00230563
11.53 -0.00300137
11.54 -0.0034992
11.55 -0.00380952
11.56 -0.00394076
11.57 -0.00390623
11.58 -0.00372347
11.59 -0.00341213
11.6 -0.00298959
11.61 -0.00249432
11.62 -0.00195263
11.63 -0.00139062
11.64 -0.000833389
11.65 -0.00030433
11.66 0.000171025
11.67 0.000573193
11.68 0.000891103
11.69 0.00111479
11.7 0.00123822
11.71 0.00125936
11.72 0.00117991
11.73 0.000995921
11.74 0.000728952
11.75 0.000392065
11.76 8.43154e-07
11.77 -0.000427155
11.78 -0.000872981
11.79 -0.00131566
11.8 -0.00173221
11.81 -0.00210392
11.82 -0.0024131
11.83 -0.002644
