# xPDFsuite Configuration #
[PDF]
wavelength = 0.1
dataformat = QA
inputfile = BiMsol6_insitu_700 C-00580.xy
backgroundfile = Quartz2mm-dist500-00000.xy
mode = xray
bgscale = 0.0042
composition = Bi2Fe4O9
outputtype = gr
qmaxinst = 24.998449118
qmin = 0.1
qmax = 21.4986662415
rmax = 80.0
rmin = 0.0
rstep = 0.01
rpoly = 0.9

[Misc]
inputdir = C:/Data/Seafile/CPH/Beamtime/Desy Oct 20/In situ data/Processed/BiMsol6/PDF
savedir = C:/Data/Seafile/CPH/Beamtime/Desy Oct 20/In situ data/PDF/BiMsol6
backgroundfilefull = C:/Data/Seafile/CPH/Beamtime/Desy Oct 20/In situ data/Processed/Standard_Empty_Cap/Quartz2mm-dist500-00000.xy

#### start data
#S 1
#L r($\AA$)  G($\AA^{-2}$)
0 0
0.01 0.00621622
0.02 0.0120794
0.03 0.0172875
0.04 0.0215694
0.05 0.0246978
0.06 0.0264993
0.07 0.0267846
0.08 0.0254989
0.09 0.0227823
0.1 0.0187502
0.11 0.0135817
0.12 0.00751099
0.13 0.00081777
0.14 -0.00618341
0.15 -0.0130977
0.16 -0.0195918
0.17 -0.0253534
0.18 -0.0301024
0.19 -0.0336056
0.2 -0.0356233
0.21 -0.0359927
0.22 -0.0348116
0.23 -0.0321463
0.24 -0.0281402
0.25 -0.0230082
0.26 -0.017029
0.27 -0.0105205
0.28 -0.00393709
0.29 0.00231687
0.3 0.00784877
0.31 0.012286
0.32 0.015294
0.33 0.0165348
0.34 0.0156782
0.35 0.0127792
0.36 0.00783898
0.37 0.000961047
0.38 -0.00764699
0.39 -0.0176766
0.4 -0.0287687
0.41 -0.0403124
0.42 -0.0517082
0.43 -0.0623466
0.44 -0.0715973
0.45 -0.0788331
0.46 -0.0833911
0.47 -0.0844168
0.48 -0.0817292
0.49 -0.0749851
0.5 -0.0639628
0.51 -0.0485757
0.52 -0.0288825
0.53 -0.0048212
0.54 0.0230574
0.55 0.0540308
0.56 0.0874268
0.57 0.122461
0.58 0.158256
0.59 0.193858
0.6 0.228047
0.61 0.259875
0.62 0.288385
0.63 0.312682
0.64 0.331959
0.65 0.345529
0.66 0.35243
0.67 0.352278
0.68 0.345258
0.69 0.331385
0.7 0.310857
0.71 0.284053
0.72 0.251519
0.73 0.213475
0.74 0.171419
0.75 0.126327
0.76 0.0792327
0.77 0.0312094
0.78 -0.0166629
0.79 -0.0632142
0.8 -0.107272
0.81 -0.148042
0.82 -0.184759
0.83 -0.216793
0.84 -0.24367
0.85 -0.26508
0.86 -0.280308
0.87 -0.289923
0.88 -0.294239
0.89 -0.293642
0.9 -0.288648
0.91 -0.279883
0.92 -0.26797
0.93 -0.253709
0.94 -0.238132
0.95 -0.222042
0.96 -0.206207
0.97 -0.191343
0.98 -0.178087
0.99 -0.167217
1 -0.159048
1.01 -0.153797
1.02 -0.151613
1.03 -0.152516
1.04 -0.156406
1.05 -0.163141
1.06 -0.172508
1.07 -0.183852
1.08 -0.196707
1.09 -0.210567
1.1 -0.224914
1.11 -0.239234
1.12 -0.252959
1.13 -0.26562
1.14 -0.276872
1.15 -0.286425
1.16 -0.294071
1.17 -0.299693
1.18 -0.303225
1.19 -0.304576
1.2 -0.304108
1.21 -0.302044
1.22 -0.298662
1.23 -0.294281
1.24 -0.289241
1.25 -0.283896
1.26 -0.278642
1.27 -0.273801
1.28 -0.269641
1.29 -0.26638
1.3 -0.264178
1.31 -0.263133
1.32 -0.263389
1.33 -0.264756
1.34 -0.267113
1.35 -0.270283
1.36 -0.274044
1.37 -0.278142
1.38 -0.282286
1.39 -0.28615
1.4 -0.289462
1.41 -0.291974
1.42 -0.293477
1.43 -0.293804
1.44 -0.292845
1.45 -0.290402
1.46 -0.286646
1.47 -0.281676
1.48 -0.275645
1.49 -0.268759
1.5 -0.261269
1.51 -0.253459
1.52 -0.245681
1.53 -0.238267
1.54 -0.231522
1.55 -0.225725
1.56 -0.221123
1.57 -0.217911
1.58 -0.216393
1.59 -0.21651
1.6 -0.218226
1.61 -0.221458
1.62 -0.226053
1.63 -0.231796
1.64 -0.238434
1.65 -0.245619
1.66 -0.252924
1.67 -0.259965
1.68 -0.26636
1.69 -0.271733
1.7 -0.275738
1.71 -0.277889
1.72 -0.278013
1.73 -0.27598
1.74 -0.271683
1.75 -0.265091
1.76 -0.256251
1.77 -0.245235
1.78 -0.232148
1.79 -0.217457
1.8 -0.201489
1.81 -0.184614
1.82 -0.167226
1.83 -0.149733
1.84 -0.132596
1.85 -0.116237
1.86 -0.100986
1.87 -0.0871422
1.88 -0.0749444
1.89 -0.0645669
1.9 -0.0561413
1.91 -0.0498625
1.92 -0.0454675
1.93 -0.0428234
1.94 -0.0417356
1.95 -0.0419562
1.96 -0.043196
1.97 -0.0451602
1.98 -0.0474529
1.99 -0.0497102
2 -0.0516182
2.01 -0.0528942
2.02 -0.053299
2.03 -0.0526429
2.04 -0.0506664
2.05 -0.0474579
2.06 -0.0430536
2.07 -0.0375602
2.08 -0.0311523
2.09 -0.0240656
2.1 -0.0165865
2.11 -0.00910232
2.12 -0.00200033
2.13 0.00434121
2.14 0.00954663
2.15 0.0132573
2.16 0.0151452
2.17 0.0146704
2.18 0.011809
2.19 0.00643268
2.2 -0.00152938
2.21 -0.012071
2.22 -0.025108
2.23 -0.0405749
2.24 -0.0582501
2.25 -0.0776555
2.26 -0.0984259
2.27 -0.120156
2.28 -0.142413
2.29 -0.16475
2.3 -0.186644
2.31 -0.207652
2.32 -0.22739
2.33 -0.245514
2.34 -0.261733
2.35 -0.275821
2.36 -0.287537
2.37 -0.296682
2.38 -0.303456
2.39 -0.307941
2.4 -0.310285
2.41 -0.310695
2.42 -0.309431
2.43 -0.306702
2.44 -0.302961
2.45 -0.298597
2.46 -0.29396
2.47 -0.28939
2.48 -0.285204
2.49 -0.281709
2.5 -0.27924
2.51 -0.27791
2.52 -0.277847
2.53 -0.279124
2.54 -0.281754
2.55 -0.285699
2.56 -0.290949
2.57 -0.297299
2.58 -0.304516
2.59 -0.312387
2.6 -0.320679
2.61 -0.329152
2.62 -0.337558
2.63 -0.345609
2.64 -0.353105
2.65 -0.359859
2.66 -0.365716
2.67 -0.370557
2.68 -0.3743
2.69 -0.376828
2.7 -0.378156
2.71 -0.378388
2.72 -0.377596
2.73 -0.375883
2.74 -0.373373
2.75 -0.370206
2.76 -0.36649
2.77 -0.362451
2.78 -0.358238
2.79 -0.35399
2.8 -0.349829
2.81 -0.345861
2.82 -0.342188
2.83 -0.338879
2.84 -0.335947
2.85 -0.333398
2.86 -0.331216
2.87 -0.329369
2.88 -0.327806
2.89 -0.326479
2.9 -0.325285
2.91 -0.324144
2.92 -0.322976
2.93 -0.321706
2.94 -0.32026
2.95 -0.318562
2.96 -0.316541
2.97 -0.314172
2.98 -0.311418
2.99 -0.308255
3 -0.30466
3.01 -0.300618
3.02 -0.296067
3.03 -0.291024
3.04 -0.285475
3.05 -0.279393
3.06 -0.272739
3.07 -0.265464
3.08 -0.257483
3.09 -0.248672
3.1 -0.239002
3.11 -0.228376
3.12 -0.216692
3.13 -0.203841
3.14 -0.189717
3.15 -0.174092
3.16 -0.156934
3.17 -0.138215
3.18 -0.117877
3.19 -0.095892
3.2 -0.0722558
3.21 -0.0469652
3.22 -0.019978
3.23 0.00844278
3.24 0.0381539
3.25 0.0689777
3.26 0.100705
3.27 0.133096
3.28 0.165896
3.29 0.198767
3.3 0.231394
3.31 0.263472
3.32 0.294696
3.33 0.324771
3.34 0.353396
3.35 0.380116
3.36 0.404862
3.37 0.427439
3.38 0.447686
3.39 0.465481
3.4 0.48074
3.41 0.493259
3.42 0.503058
3.43 0.510321
3.44 0.515123
3.45 0.517566
3.46 0.517778
3.47 0.515908
3.48 0.511914
3.49 0.506204
3.5 0.498954
3.51 0.490338
3.52 0.480521
3.53 0.469659
3.54 0.457858
3.55 0.445253
3.56 0.432012
3.57 0.418231
3.58 0.403991
3.59 0.389361
3.6 0.374399
3.61 0.359131
3.62 0.343634
3.63 0.327957
3.64 0.312148
3.65 0.296259
3.66 0.280352
3.67 0.264504
3.68 0.248815
3.69 0.233379
3.7 0.218305
3.71 0.203714
3.72 0.189737
3.73 0.176512
3.74 0.164277
3.75 0.153131
3.76 0.143194
3.77 0.134598
3.78 0.127467
3.79 0.121912
3.8 0.118076
3.81 0.116141
3.82 0.116005
3.83 0.117689
3.84 0.12119
3.85 0.126482
3.86 0.133514
3.87 0.142342
3.88 0.152779
3.89 0.164651
3.9 0.177828
3.91 0.192171
3.92 0.207531
3.93 0.223769
3.94 0.24077
3.95 0.258301
3.96 0.276217
3.97 0.294382
3.98 0.312668
3.99 0.330957
4 0.349127
4.01 0.367073
4.02 0.384718
4.03 0.401987
4.04 0.418814
4.05 0.435139
4.06 0.450903
4.07 0.465983
4.08 0.48039
4.09 0.494072
4.1 0.506974
4.11 0.519038
4.12 0.530205
4.13 0.540347
4.14 0.549389
4.15 0.557318
4.16 0.564061
4.17 0.569549
4.18 0.573713
4.19 0.57649
4.2 0.577651
4.21 0.577302
4.22 0.575411
4.23 0.57195
4.24 0.566906
4.25 0.560278
4.26 0.552002
4.27 0.542081
4.28 0.530664
4.29 0.517804
4.3 0.503564
4.31 0.488017
4.32 0.471241
4.33 0.453212
4.34 0.434125
4.35 0.414081
4.36 0.393166
4.37 0.37146
4.38 0.349039
4.39 0.32595
4.4 0.302243
4.41 0.278024
4.42 0.253343
4.43 0.228248
4.44 0.20278
4.45 0.176982
4.46 0.150869
4.47 0.12451
4.48 0.0979586
4.49 0.0712659
4.5 0.0444913
4.51 0.0177015
4.52 -0.00902383
4.53 -0.0355786
4.54 -0.0618738
4.55 -0.0878062
4.56 -0.113266
4.57 -0.138138
4.58 -0.162307
4.59 -0.18558
4.6 -0.207864
4.61 -0.229084
4.62 -0.249146
4.63 -0.267964
4.64 -0.285471
4.65 -0.301594
4.66 -0.31618
4.67 -0.329363
4.68 -0.341158
4.69 -0.351603
4.7 -0.360754
4.71 -0.368688
4.72 -0.375428
4.73 -0.381122
4.74 -0.385944
4.75 -0.390023
4.76 -0.393489
4.77 -0.396474
4.78 -0.399102
4.79 -0.401481
4.8 -0.403753
4.81 -0.406008
4.82 -0.40832
4.83 -0.410747
4.84 -0.413326
4.85 -0.416089
4.86 -0.419034
4.87 -0.422131
4.88 -0.425345
4.89 -0.42863
4.9 -0.431929
4.91 -0.435178
4.92 -0.438288
4.93 -0.441195
4.94 -0.443835
4.95 -0.446145
4.96 -0.448071
4.97 -0.449568
4.98 -0.450578
4.99 -0.451061
5 -0.451039
5.01 -0.450511
5.02 -0.449484
5.03 -0.447974
5.04 -0.446001
5.05 -0.44355
5.06 -0.440684
5.07 -0.437438
5.08 -0.433833
5.09 -0.429888
5.1 -0.425613
5.11 -0.421002
5.12 -0.416035
5.13 -0.410727
5.14 -0.405059
5.15 -0.399008
5.16 -0.392545
5.17 -0.385641
5.18 -0.378223
5.19 -0.370292
5.2 -0.361843
5.21 -0.352867
5.22 -0.343366
5.23 -0.333354
5.24 -0.322849
5.25 -0.311874
5.26 -0.300537
5.27 -0.288918
5.28 -0.277108
5.29 -0.265214
5.3 -0.25335
5.31 -0.241661
5.32 -0.230284
5.33 -0.219337
5.34 -0.208941
5.35 -0.199209
5.36 -0.19024
5.37 -0.182131
5.38 -0.175038
5.39 -0.168912
5.4 -0.16377
5.41 -0.159606
5.42 -0.156393
5.43 -0.15408
5.44 -0.152645
5.45 -0.15197
5.46 -0.151906
5.47 -0.152335
5.48 -0.153132
5.49 -0.15417
5.5 -0.155323
5.51 -0.156458
5.52 -0.15746
5.53 -0.158234
5.54 -0.158704
5.55 -0.158814
5.56 -0.158524
5.57 -0.157791
5.58 -0.156617
5.59 -0.15505
5.6 -0.153126
5.61 -0.150895
5.62 -0.148413
5.63 -0.145742
5.64 -0.142938
5.65 -0.140074
5.66 -0.137201
5.67 -0.134354
5.68 -0.131555
5.69 -0.128806
5.7 -0.126093
5.71 -0.123374
5.72 -0.120588
5.73 -0.117659
5.74 -0.114496
5.75 -0.110997
5.76 -0.107051
5.77 -0.102478
5.78 -0.0971947
5.79 -0.0911081
5.8 -0.084125
5.81 -0.0761689
5.82 -0.067184
5.83 -0.0571039
5.84 -0.0458735
5.85 -0.0336151
5.86 -0.0203915
5.87 -0.00629444
5.88 0.00855664
5.89 0.0240175
5.9 0.0399444
5.91 0.0561055
5.92 0.0722914
5.93 0.088302
5.94 0.103939
5.95 0.119012
5.96 0.133324
5.97 0.146636
5.98 0.158897
5.99 0.170011
6 0.179915
6.01 0.188583
6.02 0.196019
6.03 0.202182
6.04 0.207198
6.05 0.211228
6.06 0.214406
6.07 0.216884
6.08 0.218828
6.09 0.220408
6.1 0.221799
6.11 0.223198
6.12 0.224754
6.13 0.226592
6.14 0.228814
6.15 0.231492
6.16 0.234697
6.17 0.238422
6.18 0.2426
6.19 0.247156
6.2 0.251984
6.21 0.256947
6.22 0.261886
6.23 0.266576
6.24 0.270832
6.25 0.274454
6.26 0.277248
6.27 0.279028
6.28 0.279623
6.29 0.278806
6.3 0.276425
6.31 0.272483
6.32 0.266934
6.33 0.259767
6.34 0.251006
6.35 0.240715
6.36 0.228851
6.37 0.215696
6.38 0.201428
6.39 0.186228
6.4 0.170294
6.41 0.15383
6.42 0.137042
6.43 0.120157
6.44 0.103389
6.45 0.0869099
6.46 0.0708732
6.47 0.0554059
6.48 0.040607
6.49 0.0266188
6.5 0.0134251
6.51 0.00100891
6.52 -0.0106582
6.53 -0.0216303
6.54 -0.0319834
6.55 -0.0417989
6.56 -0.0511764
6.57 -0.0602763
6.58 -0.0692162
6.59 -0.07811
6.6 -0.087063
6.61 -0.0961678
6.62 -0.105524
6.63 -0.115179
6.64 -0.125152
6.65 -0.135448
6.66 -0.146045
6.67 -0.156902
6.68 -0.167954
6.69 -0.179114
6.7 -0.190257
6.71 -0.201268
6.72 -0.21202
6.73 -0.222383
6.74 -0.232227
6.75 -0.24137
6.76 -0.249694
6.77 -0.257124
6.78 -0.263566
6.79 -0.268945
6.8 -0.273199
6.81 -0.276276
6.82 -0.278031
6.83 -0.278584
6.84 -0.277947
6.85 -0.276142
6.86 -0.273199
6.87 -0.26916
6.88 -0.264008
6.89 -0.257802
6.9 -0.250646
6.91 -0.242582
6.92 -0.233645
6.93 -0.223865
6.94 -0.213261
6.95 -0.201753
6.96 -0.189434
6.97 -0.176297
6.98 -0.162328
6.99 -0.147508
7 -0.131815
7.01 -0.115177
7.02 -0.097557
7.03 -0.0789973
7.04 -0.0594897
7.05 -0.0390348
7.06 -0.017645
7.07 0.00465411
7.08 0.0279066
7.09 0.0519704
7.1 0.0767588
7.11 0.102181
7.12 0.128134
7.13 0.1545
7.14 0.181156
7.15 0.20795
7.16 0.234717
7.17 0.261309
7.18 0.287577
7.19 0.313374
7.2 0.33856
7.21 0.362917
7.22 0.386358
7.23 0.408789
7.24 0.430111
7.25 0.450236
7.26 0.469091
7.27 0.486577
7.28 0.502558
7.29 0.51712
7.3 0.53024
7.31 0.541905
7.32 0.552107
7.33 0.560845
7.34 0.568004
7.35 0.573654
7.36 0.577852
7.37 0.580603
7.38 0.581908
7.39 0.581767
7.4 0.580152
7.41 0.576936
7.42 0.572255
7.43 0.5661
7.44 0.558463
7.45 0.549336
7.46 0.538715
7.47 0.526495
7.48 0.512721
7.49 0.497479
7.5 0.480798
7.51 0.462716
7.52 0.443284
7.53 0.422561
7.54 0.400508
7.55 0.377364
7.56 0.353238
7.57 0.328252
7.58 0.302542
7.59 0.276252
7.6 0.249521
7.61 0.222535
7.62 0.195484
7.63 0.168535
7.64 0.141855
7.65 0.115607
7.66 0.0899505
7.67 0.0651339
7.68 0.0412307
7.69 0.0183623
7.7 -0.0033596
7.71 -0.0238382
7.72 -0.0429928
7.73 -0.0606906
7.74 -0.0768491
7.75 -0.0915398
7.76 -0.104754
7.77 -0.116498
7.78 -0.126793
7.79 -0.135677
7.8 -0.143064
7.81 -0.149139
7.82 -0.153993
7.83 -0.157704
7.84 -0.160356
7.85 -0.162034
7.86 -0.162799
7.87 -0.162717
7.88 -0.161945
7.89 -0.160565
7.9 -0.158657
7.91 -0.156295
7.92 -0.153546
7.93 -0.150446
7.94 -0.147072
7.95 -0.143477
7.96 -0.139695
7.97 -0.135755
7.98 -0.131676
7.99 -0.12747
8 -0.123137
8.01 -0.118691
8.02 -0.114131
8.03 -0.109452
8.04 -0.10465
8.05 -0.0997206
8.06 -0.0946486
8.07 -0.0894388
8.08 -0.0840994
8.09 -0.0786379
8.1 -0.0730672
8.11 -0.0674059
8.12 -0.0616778
8.13 -0.055915
8.14 -0.0501615
8.15 -0.0444605
8.16 -0.0388594
8.17 -0.0334091
8.18 -0.0281627
8.19 -0.0231953
8.2 -0.0185632
8.21 -0.0143033
8.22 -0.0104616
8.23 -0.007078
8.24 -0.00418498
8.25 -0.00180818
8.26 -2.01225e-05
8.27 0.00123817
8.28 0.00197824
8.29 0.0022233
8.3 0.00200803
8.31 0.00137802
8.32 0.000372405
8.33 -0.000934633
8.34 -0.00244891
8.35 -0.00409296
8.36 -0.00578695
8.37 -0.0074511
8.38 -0.00900803
8.39 -0.0103584
8.4 -0.0114506
8.41 -0.0122336
8.42 -0.0126667
8.43 -0.0127232
8.44 -0.0123909
8.45 -0.0116569
8.46 -0.0105361
8.47 -0.00909567
8.48 -0.00738966
8.49 -0.0054856
8.5 -0.00346262
8.51 -0.00140931
8.52 0.000562362
8.53 0.00234633
8.54 0.00384331
8.55 0.00495526
8.56 0.00558979
8.57 0.00566292
8.58 0.00507785
8.59 0.00373504
8.6 0.00164816
8.61 -0.00120585
8.62 -0.00483247
8.63 -0.0092195
8.64 -0.0143374
8.65 -0.0201946
8.66 -0.0266809
8.67 -0.0336993
8.68 -0.0411629
8.69 -0.0489778
8.7 -0.0570459
8.71 -0.0652689
8.72 -0.0735412
8.73 -0.0817591
8.74 -0.0898399
8.75 -0.0977113
8.76 -0.105313
8.77 -0.1126
8.78 -0.119511
8.79 -0.126044
8.8 -0.132213
8.81 -0.138036
8.82 -0.143539
8.83 -0.148762
8.84 -0.15375
8.85 -0.158545
8.86 -0.163228
8.87 -0.167854
8.88 -0.172478
8.89 -0.177148
8.9 -0.181904
8.91 -0.186787
8.92 -0.191816
8.93 -0.196991
8.94 -0.202303
8.95 -0.207731
8.96 -0.213245
8.97 -0.2188
8.98 -0.224337
8.99 -0.22979
9 -0.235094
9.01 -0.240179
9.02 -0.244979
9.03 -0.249429
9.04 -0.253443
9.05 -0.256959
9.06 -0.259962
9.07 -0.262424
9.08 -0.264327
9.09 -0.265668
9.1 -0.266454
9.11 -0.266654
9.12 -0.266356
9.13 -0.26561
9.14 -0.26447
9.15 -0.262994
9.16 -0.261246
9.17 -0.259283
9.18 -0.257173
9.19 -0.25499
9.2 -0.252788
9.21 -0.250613
9.22 -0.248503
9.23 -0.246487
9.24 -0.244594
9.25 -0.242822
9.26 -0.241164
9.27 -0.239607
9.28 -0.238127
9.29 -0.236696
9.3 -0.235281
9.31 -0.233839
9.32 -0.232332
9.33 -0.230724
9.34 -0.228982
9.35 -0.22708
9.36 -0.224994
9.37 -0.222694
9.38 -0.220183
9.39 -0.217471
9.4 -0.214568
9.41 -0.211492
9.42 -0.208267
9.43 -0.20492
9.44 -0.201477
9.45 -0.197983
9.46 -0.194467
9.47 -0.190959
9.48 -0.187478
9.49 -0.184041
9.5 -0.180659
9.51 -0.177324
9.52 -0.17402
9.53 -0.17072
9.54 -0.167387
9.55 -0.163976
9.56 -0.160428
9.57 -0.156653
9.58 -0.152599
9.59 -0.148191
9.6 -0.143357
9.61 -0.138025
9.62 -0.132127
9.63 -0.125557
9.64 -0.118261
9.65 -0.110233
9.66 -0.101442
9.67 -0.0918725
9.68 -0.0815215
9.69 -0.070399
9.7 -0.0584463
9.71 -0.0457898
9.72 -0.0324807
9.73 -0.0185779
9.74 -0.00414802
9.75 0.0107371
9.76 0.0260178
9.77 0.0416106
9.78 0.0574168
9.79 0.073365
9.8 0.0893893
9.81 0.10543
9.82 0.121434
9.83 0.137345
9.84 0.153132
9.85 0.168768
9.86 0.184235
9.87 0.199517
9.88 0.214607
9.89 0.22949
9.9 0.244152
9.91 0.258602
9.92 0.272832
9.93 0.286829
9.94 0.300574
9.95 0.314042
9.96 0.327169
9.97 0.33993
9.98 0.352282
9.99 0.36417
10 0.375533
10.01 0.386304
10.02 0.396396
10.03 0.405688
10.04 0.414176
10.05 0.421798
10.06 0.428505
10.07 0.434254
10.08 0.439014
10.09 0.442688
10.1 0.445323
10.11 0.446975
10.12 0.447678
10.13 0.447485
10.14 0.446462
10.15 0.44468
10.16 0.442193
10.17 0.439179
10.18 0.43575
10.19 0.432025
10.2 0.42812
10.21 0.42415
10.22 0.420234
10.23 0.416485
10.24 0.412986
10.25 0.409808
10.26 0.407007
10.27 0.40462
10.28 0.40267
10.29 0.401201
10.3 0.400143
10.31 0.399458
10.32 0.399093
10.33 0.398979
10.34 0.399039
10.35 0.399187
10.36 0.399315
10.37 0.399325
10.38 0.399122
10.39 0.398616
10.4 0.397722
10.41 0.396365
10.42 0.394412
10.43 0.391861
10.44 0.388674
10.45 0.384822
10.46 0.38029
10.47 0.375071
10.48 0.369138
10.49 0.362495
10.5 0.35521
10.51 0.34731
10.52 0.338826
10.53 0.329788
10.54 0.320227
10.55 0.310124
10.56 0.299549
10.57 0.28853
10.58 0.27708
10.59 0.26521
10.6 0.252925
10.61 0.24021
10.62 0.227043
10.63 0.213454
10.64 0.199437
10.65 0.184989
10.66 0.17011
10.67 0.154802
10.68 0.139039
10.69 0.122869
10.7 0.10633
10.71 0.0894572
10.72 0.0722966
10.73 0.0549011
10.74 0.0373294
10.75 0.019653
10.76 0.00196109
10.77 -0.0156686
10.78 -0.0331572
10.79 -0.0504274
10.8 -0.0674051
10.81 -0.0839883
10.82 -0.100126
10.83 -0.115783
10.84 -0.130926
10.85 -0.145532
10.86 -0.159592
10.87 -0.173102
10.88 -0.186043
10.89 -0.198505
10.9 -0.210534
10.91 -0.222188
10.92 -0.23353
10.93 -0.244629
10.94 -0.25555
10.95 -0.266377
10.96 -0.277181
10.97 -0.288022
10.98 -0.298947
10.99 -0.309991
11 -0.321178
11.01 -0.33253
11.02 -0.344015
11.03 -0.355603
11.04 -0.367246
11.05 -0.378885
11.06 -0.390441
11.07 -0.401813
11.08 -0.412886
11.09 -0.423569
11.1 -0.433752
11.11 -0.443331
11.12 -0.452201
11.13 -0.460266
11.14 -0.467332
11.15 -0.473412
11.16 -0.478454
11.17 -0.482418
11.18 -0.485278
11.19 -0.487026
11.2 -0.487623
11.21 -0.487074
11.22 -0.485499
11.23 -0.482956
11.24 -0.47951
11.25 -0.475235
11.26 -0.47021
11.27 -0.464455
11.28 -0.458114
11.29 -0.451272
11.3 -0.443995
11.31 -0.436342
11.32 -0.428361
11.33 -0.420077
11.34 -0.411502
11.35 -0.402667
11.36 -0.393566
11.37 -0.384183
11.38 -0.374492
11.39 -0.36446
11.4 -0.354009
11.41 -0.343115
11.42 -0.331746
11.43 -0.319863
11.44 -0.307432
11.45 -0.294426
11.46 -0.280817
11.47 -0.266558
11.48 -0.251718
11.49 -0.236324
11.5 -0.220416
11.51 -0.204049
11.52 -0.187293
11.53 -0.17021
11.54 -0.152919
11.55 -0.135531
11.56 -0.118155
11.57 -0.100899
11.58 -0.0838745
11.59 -0.0671943
11.6 -0.0510131
11.61 -0.0353858
11.62 -0.0203946
11.63 -0.00610959
11.64 0.00741268
11.65 0.0201299
11.66 0.0319589
11.67 0.0429006
11.68 0.0530035
11.69 0.0622871
11.7 0.0707831
11.71 0.0785336
11.72 0.0855879
11.73 0.0919388
11.74 0.0977274
11.75 0.103018
11.76 0.107874
11.77 0.112357
11.78 0.116525
11.79 0.120415
11.8 0.124077
11.81 0.12756
11.82 0.130889
11.83 0.134082
11.84 0.137146
11.85 0.14008
11.86 0.14286
11.87 0.145482
11.88 0.147925
11.89 0.150165
11.9 0.152171
11.91 0.153915
11.92 0.15535
11.93 0.156433
11.94 0.157156
11.95 0.157494
11.96 0.157422
11.97 0.15692
11.98 0.15597
11.99 0.15451
12 0.152562
12.01 0.150125
12.02 0.147189
12.03 0.143745
12.04 0.139786
12.05 0.135283
12.06 0.130197
12.07 0.12456
12.08 0.118358
12.09 0.111575
12.1 0.104194
12.11 0.0961981
12.12 0.0875119
12.13 0.0781508
12.14 0.0681192
12.15 0.0574048
12.16 0.0459994
12.17 0.0339005
