# xPDFsuite Configuration #
[PDF]
wavelength = 0.1
dataformat = QA
inputfile = BiMsol6_insitu_700 C-00379.xy
backgroundfile = Quartz2mm-dist500-00000.xy
mode = xray
bgscale = 0.0042
composition = Bi2Fe4O9
outputtype = gr
qmaxinst = 24.998449118
qmin = 0.1
qmax = 21.4986662415
rmax = 80.0
rmin = 0.0
rstep = 0.01
rpoly = 0.9

[Misc]
inputdir = C:/Data/Seafile/CPH/Beamtime/Desy Oct 20/In situ data/Processed/BiMsol6/PDF
savedir = C:/Data/Seafile/CPH/Beamtime/Desy Oct 20/In situ data/PDF/BiMsol6
backgroundfilefull = C:/Data/Seafile/CPH/Beamtime/Desy Oct 20/In situ data/Processed/Standard_Empty_Cap/Quartz2mm-dist500-00000.xy

#### start data
#S 1
#L r($\AA$)  G($\AA^{-2}$)
0 0
0.01 0.00697517
0.02 0.0135605
0.03 0.0194223
0.04 0.0242609
0.05 0.0278245
0.06 0.0299206
0.07 0.0303384
0.08 0.0290149
0.09 0.026103
0.1 0.0217274
0.11 0.0160831
0.12 0.00942641
0.13 0.00206352
0.14 -0.00566246
0.15 -0.0133149
0.16 -0.0205258
0.17 -0.0269495
0.18 -0.0322752
0.19 -0.0362418
0.2 -0.0385811
0.21 -0.0391071
0.22 -0.03792
0.23 -0.0350856
0.24 -0.030754
0.25 -0.0251542
0.26 -0.0185854
0.27 -0.0113863
0.28 -0.00405405
0.29 0.00296918
0.3 0.00925333
0.31 0.0143882
0.32 0.0180035
0.33 0.0197233
0.34 0.019178
0.35 0.0164135
0.36 0.0114177
0.37 0.00428962
0.38 -0.00475933
0.39 -0.015408
0.4 -0.0272869
0.41 -0.0397428
0.42 -0.0521334
0.43 -0.0638054
0.44 -0.0740814
0.45 -0.0822843
0.46 -0.0876978
0.47 -0.0894004
0.48 -0.0871781
0.49 -0.0806492
0.5 -0.06956
0.51 -0.0538008
0.52 -0.0334163
0.53 -0.00831795
0.54 0.0209247
0.55 0.0535545
0.56 0.0888691
0.57 0.126044
0.58 0.164157
0.59 0.202199
0.6 0.238891
0.61 0.273212
0.62 0.304144
0.63 0.33073
0.64 0.35211
0.65 0.367542
0.66 0.376005
0.67 0.377077
0.68 0.370935
0.69 0.357583
0.7 0.337218
0.71 0.310226
0.72 0.277175
0.73 0.23828
0.74 0.195113
0.75 0.148696
0.76 0.100109
0.77 0.0504751
0.78 0.000925883
0.79 -0.0473188
0.8 -0.0930334
0.81 -0.135385
0.82 -0.173573
0.83 -0.206943
0.84 -0.235005
0.85 -0.25744
0.86 -0.273516
0.87 -0.283828
0.88 -0.288708
0.89 -0.288567
0.9 -0.283948
0.91 -0.27551
0.92 -0.26391
0.93 -0.249984
0.94 -0.234799
0.95 -0.219183
0.96 -0.203926
0.97 -0.18976
0.98 -0.177331
0.99 -0.16743
1 -0.160352
1.01 -0.156298
1.02 -0.155392
1.03 -0.157626
1.04 -0.162867
1.05 -0.170934
1.06 -0.181568
1.07 -0.194078
1.08 -0.207963
1.09 -0.222688
1.1 -0.237708
1.11 -0.25249
1.12 -0.266441
1.13 -0.279101
1.14 -0.290146
1.15 -0.299305
1.16 -0.306402
1.17 -0.311356
1.18 -0.314146
1.19 -0.314736
1.2 -0.31355
1.21 -0.310865
1.22 -0.307014
1.23 -0.302364
1.24 -0.297303
1.25 -0.292244
1.26 -0.287606
1.27 -0.283712
1.28 -0.280832
1.29 -0.279175
1.3 -0.278876
1.31 -0.28
1.32 -0.282661
1.33 -0.286582
1.34 -0.291571
1.35 -0.297382
1.36 -0.303715
1.37 -0.310241
1.38 -0.316576
1.39 -0.322317
1.4 -0.327144
1.41 -0.330762
1.42 -0.332924
1.43 -0.333443
1.44 -0.332203
1.45 -0.328965
1.46 -0.323981
1.47 -0.317401
1.48 -0.309436
1.49 -0.300367
1.5 -0.290526
1.51 -0.280292
1.52 -0.270129
1.53 -0.260472
1.54 -0.251721
1.55 -0.244249
1.56 -0.238382
1.57 -0.234389
1.58 -0.232689
1.59 -0.23322
1.6 -0.235955
1.61 -0.24081
1.62 -0.247615
1.63 -0.256115
1.64 -0.266016
1.65 -0.276905
1.66 -0.288226
1.67 -0.299498
1.68 -0.310228
1.69 -0.319934
1.7 -0.328154
1.71 -0.33427
1.72 -0.338009
1.73 -0.339161
1.74 -0.337547
1.75 -0.33308
1.76 -0.325769
1.77 -0.315653
1.78 -0.302802
1.79 -0.287769
1.8 -0.270931
1.81 -0.252724
1.82 -0.233625
1.83 -0.21414
1.84 -0.194831
1.85 -0.176257
1.86 -0.158873
1.87 -0.143093
1.88 -0.129264
1.89 -0.117663
1.9 -0.108518
1.91 -0.102151
1.92 -0.0982972
1.93 -0.0968501
1.94 -0.0976213
1.95 -0.100347
1.96 -0.104698
1.97 -0.110351
1.98 -0.116806
1.99 -0.12357
2 -0.130211
2.01 -0.13632
2.02 -0.141522
2.03 -0.145487
2.04 -0.147767
2.05 -0.148338
2.06 -0.147113
2.07 -0.144087
2.08 -0.139336
2.09 -0.133017
2.1 -0.125299
2.11 -0.116526
2.12 -0.107132
2.13 -0.0975068
2.14 -0.0880595
2.15 -0.0792028
2.16 -0.0713373
2.17 -0.0650228
2.18 -0.0604753
2.19 -0.057946
2.2 -0.0576307
2.21 -0.0596519
2.22 -0.0640555
2.23 -0.0709102
2.24 -0.0801376
2.25 -0.0913692
2.26 -0.104341
2.27 -0.118737
2.28 -0.1342
2.29 -0.150344
2.3 -0.166756
2.31 -0.182973
2.32 -0.19861
2.33 -0.213319
2.34 -0.226795
2.35 -0.238786
2.36 -0.249033
2.37 -0.257316
2.38 -0.263733
2.39 -0.268312
2.4 -0.271147
2.41 -0.27239
2.42 -0.272245
2.43 -0.270889
2.44 -0.268708
2.45 -0.266042
2.46 -0.263206
2.47 -0.260508
2.48 -0.25824
2.49 -0.256689
2.5 -0.256172
2.51 -0.25679
2.52 -0.258663
2.53 -0.261858
2.54 -0.266385
2.55 -0.272204
2.56 -0.279302
2.57 -0.287472
2.58 -0.29648
2.59 -0.306108
2.6 -0.316122
2.61 -0.326275
2.62 -0.336312
2.63 -0.345931
2.64 -0.354928
2.65 -0.363108
2.66 -0.370306
2.67 -0.37639
2.68 -0.381268
2.69 -0.384802
2.7 -0.386994
2.71 -0.38794
2.72 -0.387696
2.73 -0.386349
2.74 -0.384002
2.75 -0.380772
2.76 -0.376711
2.77 -0.37204
2.78 -0.366873
2.79 -0.361309
2.8 -0.35543
2.81 -0.349291
2.82 -0.342915
2.83 -0.336302
2.84 -0.32944
2.85 -0.322277
2.86 -0.314744
2.87 -0.306753
2.88 -0.298204
2.89 -0.288912
2.9 -0.278827
2.91 -0.267859
2.92 -0.255929
2.93 -0.242974
2.94 -0.228955
2.95 -0.213817
2.96 -0.197551
2.97 -0.180296
2.98 -0.16214
2.99 -0.1432
3 -0.123622
3.01 -0.10357
3.02 -0.0832188
3.03 -0.062808
3.04 -0.0425434
3.05 -0.0226214
3.06 -0.00322882
3.07 0.0154634
3.08 0.0332747
3.09 0.0500183
3.1 0.0656859
3.11 0.0802289
3.12 0.0936342
3.13 0.105924
3.14 0.117155
3.15 0.127344
3.16 0.136678
3.17 0.145333
3.18 0.153472
3.19 0.161268
3.2 0.168897
3.21 0.176537
3.22 0.184385
3.23 0.192582
3.24 0.201251
3.25 0.210486
3.26 0.220354
3.27 0.230889
3.28 0.242137
3.29 0.254037
3.3 0.266485
3.31 0.279379
3.32 0.292593
3.33 0.305979
3.34 0.319372
3.35 0.332559
3.36 0.345366
3.37 0.357618
3.38 0.369151
3.39 0.379815
3.4 0.389476
3.41 0.397954
3.42 0.405168
3.43 0.411134
3.44 0.415838
3.45 0.419298
3.46 0.421558
3.47 0.422693
3.48 0.422697
3.49 0.421823
3.5 0.420216
3.51 0.418033
3.52 0.415436
3.53 0.412594
3.54 0.409678
3.55 0.406874
3.56 0.404335
3.57 0.402195
3.58 0.400574
3.59 0.399573
3.6 0.399273
3.61 0.399818
3.62 0.401177
3.63 0.403353
3.64 0.40634
3.65 0.410115
3.66 0.414637
3.67 0.419876
3.68 0.42578
3.69 0.432218
3.7 0.439106
3.71 0.446357
3.72 0.45388
3.73 0.461584
3.74 0.469381
3.75 0.477165
3.76 0.484854
3.77 0.492366
3.78 0.499627
3.79 0.506567
3.8 0.513106
3.81 0.519147
3.82 0.524668
3.83 0.529613
3.84 0.53393
3.85 0.537567
3.86 0.540477
3.87 0.542543
3.88 0.543749
3.89 0.544077
3.9 0.543483
3.91 0.541922
3.92 0.539353
3.93 0.535715
3.94 0.53088
3.95 0.524915
3.96 0.517791
3.97 0.50948
3.98 0.499961
3.99 0.489216
4 0.477146
4.01 0.463776
4.02 0.449167
4.03 0.433328
4.04 0.416278
4.05 0.398041
4.06 0.378642
4.07 0.358015
4.08 0.336335
4.09 0.313664
4.1 0.290068
4.11 0.265623
4.12 0.240413
4.13 0.214495
4.14 0.187987
4.15 0.161035
4.16 0.133753
4.17 0.106261
4.18 0.0786834
4.19 0.0511489
4.2 0.0238234
4.21 -0.00316733
4.22 -0.0296924
4.23 -0.0556227
4.24 -0.0808334
4.25 -0.105206
4.26 -0.128576
4.27 -0.150811
4.28 -0.17189
4.29 -0.191739
4.3 -0.210302
4.31 -0.227536
4.32 -0.243418
4.33 -0.257801
4.34 -0.270819
4.35 -0.282526
4.36 -0.29297
4.37 -0.302216
4.38 -0.31034
4.39 -0.317399
4.4 -0.323468
4.41 -0.328734
4.42 -0.33331
4.43 -0.337307
4.44 -0.340835
4.45 -0.344
4.46 -0.346884
4.47 -0.349602
4.48 -0.352232
4.49 -0.354837
4.5 -0.35746
4.51 -0.360133
4.52 -0.362872
4.53 -0.365682
4.54 -0.368538
4.55 -0.371413
4.56 -0.374268
4.57 -0.377058
4.58 -0.379731
4.59 -0.382215
4.6 -0.384455
4.61 -0.386408
4.62 -0.388028
4.63 -0.389277
4.64 -0.390125
4.65 -0.390549
4.66 -0.390505
4.67 -0.390046
4.68 -0.389192
4.69 -0.387975
4.7 -0.386437
4.71 -0.384632
4.72 -0.382606
4.73 -0.38044
4.74 -0.378211
4.75 -0.375987
4.76 -0.373835
4.77 -0.371818
4.78 -0.369993
4.79 -0.368442
4.8 -0.367181
4.81 -0.366239
4.82 -0.365634
4.83 -0.365377
4.84 -0.365466
4.85 -0.365912
4.86 -0.366694
4.87 -0.367768
4.88 -0.369104
4.89 -0.370671
4.9 -0.372435
4.91 -0.374362
4.92 -0.376432
4.93 -0.378601
4.94 -0.380843
4.95 -0.383137
4.96 -0.385466
4.97 -0.387817
4.98 -0.390181
4.99 -0.392548
5 -0.39491
5.01 -0.397257
5.02 -0.399578
5.03 -0.401855
5.04 -0.404067
5.05 -0.406166
5.06 -0.408117
5.07 -0.409867
5.08 -0.411352
5.09 -0.412499
5.1 -0.413222
5.11 -0.413407
5.12 -0.412906
5.13 -0.411654
5.14 -0.409538
5.15 -0.406445
5.16 -0.402261
5.17 -0.396881
5.18 -0.390081
5.19 -0.38184
5.2 -0.372124
5.21 -0.360875
5.22 -0.348053
5.23 -0.333635
5.24 -0.317581
5.25 -0.299803
5.26 -0.280491
5.27 -0.2597
5.28 -0.237506
5.29 -0.213994
5.3 -0.189262
5.31 -0.163342
5.32 -0.136403
5.33 -0.108605
5.34 -0.0800656
5.35 -0.0508974
5.36 -0.0212097
5.37 0.00889862
5.38 0.03935
5.39 0.0700177
5.4 0.100824
5.41 0.131697
5.42 0.162573
5.43 0.193389
5.44 0.224074
5.45 0.254561
5.46 0.28479
5.47 0.314692
5.48 0.344185
5.49 0.37318
5.5 0.401569
5.51 0.429138
5.52 0.455823
5.53 0.481471
5.54 0.505917
5.55 0.528985
5.56 0.550487
5.57 0.570124
5.58 0.587657
5.59 0.603004
5.6 0.615981
5.61 0.626417
5.62 0.634159
5.63 0.639073
5.64 0.640729
5.65 0.639344
5.66 0.634911
5.67 0.627438
5.68 0.616968
5.69 0.603583
5.7 0.587288
5.71 0.56819
5.72 0.54669
5.73 0.523013
5.74 0.497411
5.75 0.470149
5.76 0.44151
5.77 0.411704
5.78 0.381132
5.79 0.350094
5.8 0.318856
5.81 0.287664
5.82 0.256741
5.83 0.226304
5.84 0.196572
5.85 0.167629
5.86 0.13957
5.87 0.11246
5.88 0.0863333
5.89 0.0611985
5.9 0.0371224
5.91 0.0140115
5.92 -0.00821415
5.93 -0.0296111
5.94 -0.050238
5.95 -0.07015
5.96 -0.0893805
5.97 -0.107921
5.98 -0.125847
5.99 -0.143153
6 -0.159813
6.01 -0.175778
6.02 -0.190977
6.03 -0.205248
6.04 -0.218493
6.05 -0.230626
6.06 -0.241509
6.07 -0.251007
6.08 -0.25898
6.09 -0.265278
6.1 -0.2696
6.11 -0.272025
6.12 -0.27248
6.13 -0.270916
6.14 -0.267317
6.15 -0.261695
6.16 -0.253978
6.17 -0.244288
6.18 -0.232852
6.19 -0.219824
6.2 -0.205387
6.21 -0.189744
6.22 -0.173118
6.23 -0.155689
6.24 -0.137809
6.25 -0.119724
6.26 -0.10167
6.27 -0.0838731
6.28 -0.0665405
6.29 -0.0498999
6.3 -0.0341376
6.31 -0.0193282
6.32 -0.0055564
6.33 0.00712751
6.34 0.018708
6.35 0.0292032
6.36 0.0385627
6.37 0.0469773
6.38 0.0545707
6.39 0.0614754
6.4 0.0678392
6.41 0.0738211
6.42 0.0795836
6.43 0.085313
6.44 0.0911816
6.45 0.0973373
6.46 0.103914
6.47 0.111027
6.48 0.118773
6.49 0.127298
6.5 0.136604
6.51 0.146697
6.52 0.157576
6.53 0.169219
6.54 0.181586
6.55 0.194637
6.56 0.208325
6.57 0.222509
6.58 0.237098
6.59 0.252
6.6 0.267123
6.61 0.282375
6.62 0.297669
6.63 0.312918
6.64 0.328054
6.65 0.343023
6.66 0.357779
6.67 0.372288
6.68 0.386519
6.69 0.400431
6.7 0.414044
6.71 0.427354
6.72 0.440358
6.73 0.453053
6.74 0.465437
6.75 0.477473
6.76 0.489151
6.77 0.500457
6.78 0.511353
6.79 0.521787
6.8 0.531698
6.81 0.541004
6.82 0.549538
6.83 0.557264
6.84 0.564071
6.85 0.569842
6.86 0.574451
6.87 0.577771
6.88 0.579577
6.89 0.579733
6.9 0.578197
6.91 0.574857
6.92 0.569613
6.93 0.562376
6.94 0.553074
6.95 0.541406
6.96 0.527574
6.97 0.511572
6.98 0.493414
6.99 0.473132
7 0.450782
7.01 0.426344
7.02 0.3999
7.03 0.371702
7.04 0.341887
7.05 0.310606
7.06 0.278025
7.07 0.244317
7.08 0.209587
7.09 0.17413
7.1 0.138148
7.11 0.101833
7.12 0.0653741
7.13 0.0289537
7.14 -0.00723633
7.15 -0.0429916
7.16 -0.0781782
7.17 -0.112655
7.18 -0.146296
7.19 -0.178988
7.2 -0.210633
7.21 -0.241038
7.22 -0.270205
7.23 -0.298115
7.24 -0.324731
7.25 -0.350032
7.26 -0.374007
7.27 -0.396618
7.28 -0.417798
7.29 -0.437683
7.3 -0.456299
7.31 -0.473674
7.32 -0.489842
7.33 -0.504836
7.34 -0.518603
7.35 -0.531231
7.36 -0.542793
7.37 -0.553321
7.38 -0.562841
7.39 -0.571378
7.4 -0.578937
7.41 -0.585461
7.42 -0.591062
7.43 -0.595754
7.44 -0.59955
7.45 -0.602462
7.46 -0.604506
7.47 -0.605636
7.48 -0.605891
7.49 -0.605331
7.5 -0.60398
7.51 -0.601863
7.52 -0.59901
7.53 -0.59545
7.54 -0.591156
7.55 -0.586243
7.56 -0.580753
7.57 -0.57473
7.58 -0.568214
7.59 -0.561247
7.6 -0.553846
7.61 -0.546052
7.62 -0.537918
7.63 -0.529469
7.64 -0.520722
7.65 -0.511689
7.66 -0.502375
7.67 -0.492744
7.68 -0.482816
7.69 -0.472578
7.7 -0.462008
7.71 -0.451085
7.72 -0.439783
7.73 -0.428059
7.74 -0.415879
7.75 -0.403256
7.76 -0.390181
7.77 -0.376653
7.78 -0.362683
7.79 -0.348293
7.8 -0.333482
7.81 -0.318339
7.82 -0.302937
7.83 -0.287354
7.84 -0.271681
7.85 -0.256021
7.86 -0.240495
7.87 -0.225251
7.88 -0.210403
7.89 -0.196077
7.9 -0.182398
7.91 -0.169485
7.92 -0.15745
7.93 -0.14649
7.94 -0.13664
7.95 -0.127939
7.96 -0.120435
7.97 -0.114157
7.98 -0.109113
7.99 -0.105323
8 -0.102825
8.01 -0.101453
8.02 -0.101134
8.03 -0.101782
8.04 -0.103298
8.05 -0.105576
8.06 -0.108546
8.07 -0.112053
8.08 -0.115962
8.09 -0.120169
8.1 -0.124575
8.11 -0.129098
8.12 -0.133663
8.13 -0.138208
8.14 -0.142692
8.15 -0.147092
8.16 -0.151402
8.17 -0.155628
8.18 -0.159788
8.19 -0.163907
8.2 -0.168026
8.21 -0.172182
8.22 -0.17641
8.23 -0.180738
8.24 -0.185189
8.25 -0.189773
8.26 -0.194496
8.27 -0.199318
8.28 -0.204196
8.29 -0.209065
8.3 -0.213844
8.31 -0.218431
8.32 -0.222683
8.33 -0.226443
8.34 -0.229583
8.35 -0.231948
8.36 -0.233378
8.37 -0.233716
8.38 -0.232807
8.39 -0.230341
8.4 -0.226316
8.41 -0.220635
8.42 -0.213209
8.43 -0.203975
8.44 -0.192895
8.45 -0.179873
8.46 -0.164884
8.47 -0.14811
8.48 -0.129627
8.49 -0.109533
8.5 -0.0879434
8.51 -0.0649935
8.52 -0.0407253
8.53 -0.0154082
8.54 0.0107766
8.55 0.0376719
8.56 0.0651259
8.57 0.0929961
8.58 0.121158
8.59 0.14949
8.6 0.177878
8.61 0.206245
8.62 0.234533
8.63 0.262704
8.64 0.290731
8.65 0.318592
8.66 0.346296
8.67 0.373858
8.68 0.401291
8.69 0.428605
8.7 0.455809
8.71 0.482898
8.72 0.509846
8.73 0.536633
8.74 0.563207
8.75 0.589501
8.76 0.615424
8.77 0.640868
8.78 0.665646
8.79 0.68961
8.8 0.712619
8.81 0.734497
8.82 0.755058
8.83 0.774113
8.84 0.791448
8.85 0.806684
8.86 0.819828
8.87 0.830724
8.88 0.839229
8.89 0.845226
8.9 0.848619
8.91 0.84916
8.92 0.84684
8.93 0.841789
8.94 0.834027
8.95 0.823597
8.96 0.810567
8.97 0.795023
8.98 0.77681
8.99 0.756343
9 0.733759
9.01 0.7092
9.02 0.682813
9.03 0.654745
9.04 0.625067
9.05 0.593926
9.06 0.561549
9.07 0.528057
9.08 0.493566
9.09 0.458179
9.1 0.421995
9.11 0.385036
9.12 0.347464
9.13 0.309367
9.14 0.270826
9.15 0.231925
9.16 0.192751
9.17 0.153396
9.18 0.113978
9.19 0.0746284
9.2 0.0354761
9.21 -0.00333556
9.22 -0.0416508
9.23 -0.0793018
9.24 -0.11601
9.25 -0.151629
9.26 -0.185979
9.27 -0.218861
9.28 -0.250077
9.29 -0.27943
9.3 -0.306661
9.31 -0.331451
9.32 -0.353819
9.33 -0.373625
9.34 -0.390749
9.35 -0.405095
9.36 -0.416594
9.37 -0.424956
9.38 -0.430317
9.39 -0.432788
9.4 -0.432414
9.41 -0.429262
9.42 -0.423423
9.43 -0.414957
9.44 -0.403827
9.45 -0.390423
9.46 -0.374904
9.47 -0.357434
9.48 -0.33818
9.49 -0.317314
9.5 -0.294909
9.51 -0.271198
9.52 -0.246401
9.53 -0.220669
9.54 -0.194147
9.55 -0.166969
9.56 -0.139261
9.57 -0.111116
9.58 -0.0827002
9.59 -0.0541189
9.6 -0.0254742
9.61 0.00313529
9.62 0.0316126
9.63 0.0598405
9.64 0.0877091
9.65 0.115133
9.66 0.14201
9.67 0.168238
9.68 0.193712
9.69 0.218324
9.7 0.241844
9.71 0.264263
9.72 0.28548
9.73 0.305392
9.74 0.323904
9.75 0.340928
9.76 0.356299
9.77 0.369917
9.78 0.381831
9.79 0.392002
9.8 0.400403
9.81 0.407025
9.82 0.411871
9.83 0.414781
9.84 0.415956
9.85 0.415469
9.86 0.413385
9.87 0.409776
9.88 0.404727
9.89 0.398276
9.9 0.390488
9.91 0.381564
9.92 0.371607
9.93 0.360714
9.94 0.348986
9.95 0.336515
9.96 0.323339
9.97 0.309597
9.98 0.295381
9.99 0.280762
10 0.265804
10.01 0.250567
10.02 0.235099
10.03 0.219443
10.04 0.203662
10.05 0.187797
10.06 0.171886
10.07 0.155963
10.08 0.140064
10.09 0.12423
10.1 0.108498
10.11 0.0928975
10.12 0.0774628
10.13 0.0622265
10.14 0.0472212
10.15 0.0324835
10.16 0.0180703
10.17 0.00398204
10.18 -0.00975713
10.19 -0.0231264
10.2 -0.0361087
10.21 -0.0486912
10.22 -0.060836
10.23 -0.0725494
10.24 -0.0838517
10.25 -0.0947484
10.26 -0.105248
10.27 -0.115364
10.28 -0.125106
10.29 -0.134457
10.3 -0.143473
10.31 -0.152171
10.32 -0.160565
10.33 -0.16867
10.34 -0.176495
10.35 -0.184034
10.36 -0.191293
10.37 -0.198288
10.38 -0.205019
10.39 -0.211481
10.4 -0.217669
10.41 -0.223578
10.42 -0.229167
10.43 -0.234462
10.44 -0.239462
10.45 -0.244166
10.46 -0.24858
10.47 -0.252712
10.48 -0.256566
10.49 -0.260161
10.5 -0.263542
10.51 -0.266745
10.52 -0.269808
10.53 -0.272775
10.54 -0.275693
10.55 -0.278616
10.56 -0.281601
10.57 -0.284696
10.58 -0.287947
10.59 -0.291396
10.6 -0.295078
10.61 -0.299031
10.62 -0.303287
10.63 -0.307831
10.64 -0.312658
10.65 -0.317752
10.66 -0.323087
10.67 -0.328625
10.68 -0.334329
10.69 -0.340125
10.7 -0.345947
10.71 -0.351727
10.72 -0.357395
10.73 -0.362881
10.74 -0.368109
10.75 -0.372989
10.76 -0.37749
10.77 -0.381568
10.78 -0.385187
10.79 -0.388327
10.8 -0.390976
10.81 -0.393102
10.82 -0.394745
10.83 -0.395957
10.84 -0.396781
10.85 -0.39727
10.86 -0.397485
10.87 -0.397491
10.88 -0.397355
10.89 -0.397168
10.9 -0.396997
10.91 -0.396905
10.92 -0.396948
10.93 -0.397171
10.94 -0.397625
10.95 -0.398329
10.96 -0.399275
10.97 -0.400453
10.98 -0.401839
10.99 -0.403393
11 -0.405064
11.01 -0.406786
11.02 -0.408472
11.03 -0.410039
11.04 -0.411401
11.05 -0.412469
11.06 -0.413153
11.07 -0.413337
11.08 -0.412926
11.09 -0.411879
11.1 -0.410134
11.11 -0.40764
11.12 -0.40436
11.13 -0.400269
11.14 -0.395264
11.15 -0.389433
11.16 -0.3828
11.17 -0.375392
11.18 -0.367247
11.19 -0.358412
11.2 -0.348914
11.21 -0.338807
11.22 -0.328196
11.23 -0.317146
11.24 -0.305719
11.25 -0.293976
11.26 -0.281973
11.27 -0.269748
11.28 -0.257368
11.29 -0.244876
11.3 -0.232307
11.31 -0.219687
11.32 -0.207039
11.33 -0.194378
11.34 -0.181718
11.35 -0.169066
11.36 -0.156426
11.37 -0.143799
11.38 -0.131185
11.39 -0.118583
11.4 -0.105993
11.41 -0.0934099
11.42 -0.0808333
11.43 -0.0682608
11.44 -0.0556903
11.45 -0.0431188
11.46 -0.0305424
11.47 -0.0179542
11.48 -0.00534659
11.49 0.00729102
11.5 0.0199725
11.51 0.032715
11.52 0.0455397
11.53 0.0584814
11.54 0.0715687
11.55 0.0848291
11.56 0.0982967
11.57 0.112007
11.58 0.125996
11.59 0.140304
11.6 0.154997
11.61 0.17007
11.62 0.185546
11.63 0.201438
11.64 0.217756
11.65 0.234494
11.66 0.251667
11.67 0.269239
11.68 0.28715
11.69 0.305351
11.7 0.323781
11.71 0.342368
11.72 0.361031
11.73 0.379668
11.74 0.398176
11.75 0.416451
11.76 0.434389
11.77 0.451884
11.78 0.468833
11.79 0.485092
11.8 0.500546
11.81 0.515149
11.82 0.528819
11.83 0.541487
11.84 0.553092
11.85 0.563581
11.86 0.572785
11.87 0.580788
11.88 0.587579
11.89 0.593146
11.9 0.597486
11.91 0.600598
11.92 0.602437
11.93 0.602975
11.94 0.602313
11.95 0.600462
11.96 0.597431
11.97 0.59323
11.98 0.587864
11.99 0.581226
12 0.573409
12.01 0.564436
12.02 0.554307
12.03 0.543023
12.04 0.530587
12.05 0.516968
12.06 0.50212
12.07 0.486159
12.08 0.469111
12.09 0.451015
12.1 0.431918
12.11 0.41188
12.12 0.390906
12.13 0.369141
12.14 0.346715
12.15 0.323739
12.16 0.30034
12.17 0.276651
12.18 0.252816
12.19 0.229002
12.2 0.205376
12.21 0.182092
12.22 0.159301
12.23 0.137153
12.24 0.115789
12.25 0.0954199
12.26 0.0761504
