# xPDFsuite Configuration #
[PDF]
wavelength = 0.1
dataformat = QA
inputfile = BiMsol6_insitu_700 C-00469.xy
backgroundfile = Quartz2mm-dist500-00000.xy
mode = xray
bgscale = 0.0042
composition = Bi2Fe4O9
outputtype = gr
qmaxinst = 24.998449118
qmin = 0.1
qmax = 21.4986662415
rmax = 80.0
rmin = 0.0
rstep = 0.01
rpoly = 0.9

[Misc]
inputdir = C:/Data/Seafile/CPH/Beamtime/Desy Oct 20/In situ data/Processed/BiMsol6/PDF
savedir = C:/Data/Seafile/CPH/Beamtime/Desy Oct 20/In situ data/PDF/BiMsol6
backgroundfilefull = C:/Data/Seafile/CPH/Beamtime/Desy Oct 20/In situ data/Processed/Standard_Empty_Cap/Quartz2mm-dist500-00000.xy

#### start data
#S 1
#L r($\AA$)  G($\AA^{-2}$)
0 0
0.01 0.0057898
0.02 0.0112482
0.03 0.0160916
0.04 0.0200659
0.05 0.0229577
0.06 0.0246051
0.07 0.0248311
0.08 0.0235853
0.09 0.0210005
0.1 0.0171863
0.11 0.0123121
0.12 0.00659925
0.13 0.000311525
0.14 -0.00625343
0.15 -0.0127251
0.16 -0.0187906
0.17 -0.0241565
0.18 -0.0285612
0.19 -0.0317867
0.2 -0.0336101
0.21 -0.0338815
0.22 -0.0326967
0.23 -0.0301222
0.24 -0.0262969
0.25 -0.0214275
0.26 -0.0157805
0.27 -0.00966195
0.28 -0.00350192
0.29 0.00231632
0.3 0.00742089
0.31 0.0114595
0.32 0.014117
0.33 0.0150748
0.34 0.0140228
0.35 0.0110199
0.36 0.00607209
0.37 -0.000716214
0.38 -0.00914156
0.39 -0.0189041
0.4 -0.0296535
0.41 -0.040802
0.42 -0.0517734
0.43 -0.0619811
0.44 -0.070819
0.45 -0.077684
0.46 -0.081938
0.47 -0.0827565
0.48 -0.0799683
0.49 -0.0732426
0.5 -0.0623647
0.51 -0.0472498
0.52 -0.0279518
0.53 -0.00440514
0.54 0.0228626
0.55 0.0531575
0.56 0.0858358
0.57 0.120145
0.58 0.155243
0.59 0.190214
0.6 0.223888
0.61 0.255344
0.62 0.283657
0.63 0.307958
0.64 0.327463
0.65 0.341498
0.66 0.349124
0.67 0.349952
0.68 0.344142
0.69 0.331688
0.7 0.312761
0.71 0.287703
0.72 0.257018
0.73 0.220879
0.74 0.180721
0.75 0.137467
0.76 0.0920966
0.77 0.0456316
0.78 -0.000895859
0.79 -0.0463739
0.8 -0.0896745
0.81 -0.130013
0.82 -0.166637
0.83 -0.198926
0.84 -0.2264
0.85 -0.248735
0.86 -0.265219
0.87 -0.276353
0.88 -0.282405
0.89 -0.283707
0.9 -0.28072
0.91 -0.274012
0.92 -0.264142
0.93 -0.251838
0.94 -0.238081
0.95 -0.223621
0.96 -0.209184
0.97 -0.19545
0.98 -0.18303
0.99 -0.172659
1 -0.164668
1.01 -0.159293
1.02 -0.156703
1.03 -0.156948
1.04 -0.159968
1.05 -0.165665
1.06 -0.173879
1.07 -0.184028
1.08 -0.195703
1.09 -0.20846
1.1 -0.221834
1.11 -0.235365
1.12 -0.248551
1.13 -0.260953
1.14 -0.272243
1.15 -0.282145
1.16 -0.290456
1.17 -0.297049
1.18 -0.301845
1.19 -0.304738
1.2 -0.306021
1.21 -0.305867
1.22 -0.304497
1.23 -0.30217
1.24 -0.299164
1.25 -0.295759
1.26 -0.292281
1.27 -0.289002
1.28 -0.286139
1.29 -0.283869
1.3 -0.282317
1.31 -0.281559
1.32 -0.281687
1.33 -0.282557
1.34 -0.284062
1.35 -0.286051
1.36 -0.288342
1.37 -0.290725
1.38 -0.292956
1.39 -0.294781
1.4 -0.296002
1.41 -0.296439
1.42 -0.295948
1.43 -0.294427
1.44 -0.291826
1.45 -0.288033
1.46 -0.28324
1.47 -0.277578
1.48 -0.271223
1.49 -0.264394
1.5 -0.257341
1.51 -0.250356
1.52 -0.243772
1.53 -0.237863
1.54 -0.23289
1.55 -0.229084
1.56 -0.226637
1.57 -0.225687
1.58 -0.226474
1.59 -0.228871
1.6 -0.232781
1.61 -0.238068
1.62 -0.244531
1.63 -0.251913
1.64 -0.259916
1.65 -0.268155
1.66 -0.276207
1.67 -0.283689
1.68 -0.290221
1.69 -0.295444
1.7 -0.299031
1.71 -0.300511
1.72 -0.299766
1.73 -0.296713
1.74 -0.29129
1.75 -0.283511
1.76 -0.273468
1.77 -0.261281
1.78 -0.247104
1.79 -0.231436
1.8 -0.214637
1.81 -0.197099
1.82 -0.179235
1.83 -0.161463
1.84 -0.144265
1.85 -0.128049
1.86 -0.113129
1.87 -0.0997854
1.88 -0.0882366
1.89 -0.0786319
1.9 -0.0710759
1.91 -0.0657355
1.92 -0.0623082
1.93 -0.060631
1.94 -0.0604808
1.95 -0.0615838
1.96 -0.0636277
1.97 -0.0662906
1.98 -0.0691615
1.99 -0.0718715
2 -0.0741007
2.01 -0.0755649
2.02 -0.0760268
2.03 -0.0753013
2.04 -0.0731248
2.05 -0.0696103
2.06 -0.064805
2.07 -0.0588274
2.08 -0.0518631
2.09 -0.0441582
2.1 -0.0360049
2.11 -0.0277978
2.12 -0.0199309
2.13 -0.0127834
2.14 -0.00672948
2.15 -0.00212407
2.16 0.000710917
2.17 0.00125034
2.18 -0.000526191
2.19 -0.00473844
2.2 -0.0114488
2.21 -0.0206439
2.22 -0.0322344
2.23 -0.0461477
2.24 -0.0621608
2.25 -0.0798088
2.26 -0.0987362
2.27 -0.118552
2.28 -0.138842
2.29 -0.159184
2.3 -0.179081
2.31 -0.198127
2.32 -0.21597
2.33 -0.2323
2.34 -0.246863
2.35 -0.259465
2.36 -0.269906
2.37 -0.278032
2.38 -0.284049
2.39 -0.288057
2.4 -0.290217
2.41 -0.290742
2.42 -0.289888
2.43 -0.287879
2.44 -0.285131
2.45 -0.281996
2.46 -0.27879
2.47 -0.275814
2.48 -0.27334
2.49 -0.271626
2.5 -0.270951
2.51 -0.27137
2.52 -0.272961
2.53 -0.275746
2.54 -0.279699
2.55 -0.284739
2.56 -0.290807
2.57 -0.297682
2.58 -0.305129
2.59 -0.312935
2.6 -0.320874
2.61 -0.328724
2.62 -0.336263
2.63 -0.343223
2.64 -0.349474
2.65 -0.354879
2.66 -0.359336
2.67 -0.362781
2.68 -0.365188
2.69 -0.366504
2.7 -0.366798
2.71 -0.366207
2.72 -0.364838
2.73 -0.362816
2.74 -0.360276
2.75 -0.35736
2.76 -0.354191
2.77 -0.350937
2.78 -0.347707
2.79 -0.34459
2.8 -0.341649
2.81 -0.338924
2.82 -0.336437
2.83 -0.334168
2.84 -0.332056
2.85 -0.330033
2.86 -0.328015
2.87 -0.325903
2.88 -0.323595
2.89 -0.320943
2.9 -0.317867
2.91 -0.314282
2.92 -0.310117
2.93 -0.305319
2.94 -0.299856
2.95 -0.293692
2.96 -0.286827
2.97 -0.279352
2.98 -0.271331
2.99 -0.26284
3 -0.253969
3.01 -0.244813
3.02 -0.235457
3.03 -0.226015
3.04 -0.216567
3.05 -0.207169
3.06 -0.197858
3.07 -0.188643
3.08 -0.179506
3.09 -0.170392
3.1 -0.161208
3.11 -0.151841
3.12 -0.142156
3.13 -0.131995
3.14 -0.121189
3.15 -0.109474
3.16 -0.0966928
3.17 -0.082706
3.18 -0.0673626
3.19 -0.0505363
3.2 -0.0321323
3.21 -0.0120584
3.22 0.00982143
3.23 0.0333053
3.24 0.0583015
3.25 0.0846698
3.26 0.112224
3.27 0.140732
3.28 0.169954
3.29 0.199519
3.3 0.229067
3.31 0.25825
3.32 0.286715
3.33 0.314112
3.34 0.340089
3.35 0.36413
3.36 0.386118
3.37 0.405821
3.38 0.42305
3.39 0.43767
3.4 0.449595
3.41 0.458628
3.42 0.464827
3.43 0.46843
3.44 0.469575
3.45 0.468441
3.46 0.46524
3.47 0.460214
3.48 0.453476
3.49 0.445504
3.5 0.436574
3.51 0.426955
3.52 0.416901
3.53 0.406644
3.54 0.396402
3.55 0.386375
3.56 0.376694
3.57 0.36746
3.58 0.358735
3.59 0.350553
3.6 0.342916
3.61 0.335849
3.62 0.329251
3.63 0.323051
3.64 0.317175
3.65 0.311547
3.66 0.306095
3.67 0.300756
3.68 0.295475
3.69 0.290216
3.7 0.284968
3.71 0.279745
3.72 0.274582
3.73 0.269536
3.74 0.264714
3.75 0.26021
3.76 0.256133
3.77 0.252604
3.78 0.249751
3.79 0.247696
3.8 0.24659
3.81 0.246614
3.82 0.247772
3.83 0.25013
3.84 0.253734
3.85 0.258599
3.86 0.264716
3.87 0.272141
3.88 0.28074
3.89 0.290372
3.9 0.300919
3.91 0.312241
3.92 0.324183
3.93 0.336585
3.94 0.349275
3.95 0.362035
3.96 0.374696
3.97 0.387094
3.98 0.399078
3.99 0.41051
4 0.421216
4.01 0.431099
4.02 0.440116
4.03 0.448211
4.04 0.455347
4.05 0.461506
4.06 0.466677
4.07 0.470775
4.08 0.473932
4.09 0.476178
4.1 0.477549
4.11 0.47808
4.12 0.477807
4.13 0.476715
4.14 0.474834
4.15 0.472222
4.16 0.468885
4.17 0.464823
4.18 0.460023
4.19 0.454468
4.2 0.448043
4.21 0.440799
4.22 0.432708
4.23 0.423737
4.24 0.413858
4.25 0.403044
4.26 0.39123
4.27 0.378386
4.28 0.364579
4.29 0.34982
4.3 0.334134
4.31 0.317555
4.32 0.300127
4.33 0.281834
4.34 0.262815
4.35 0.243157
4.36 0.222936
4.37 0.202235
4.38 0.181136
4.39 0.159713
4.4 0.138045
4.41 0.11623
4.42 0.0943382
4.43 0.0724303
4.44 0.0505618
4.45 0.028781
4.46 0.00714436
4.47 -0.0143182
4.48 -0.0355814
4.49 -0.0566205
4.5 -0.0774132
4.51 -0.0979382
4.52 -0.118166
4.53 -0.138049
4.54 -0.157588
4.55 -0.176752
4.56 -0.195505
4.57 -0.213807
4.58 -0.231613
4.59 -0.248828
4.6 -0.265414
4.61 -0.281337
4.62 -0.296543
4.63 -0.310978
4.64 -0.324591
4.65 -0.337324
4.66 -0.349056
4.67 -0.359851
4.68 -0.369691
4.69 -0.378572
4.7 -0.386503
4.71 -0.393503
4.72 -0.399549
4.73 -0.404715
4.74 -0.409102
4.75 -0.412784
4.76 -0.415837
4.77 -0.418347
4.78 -0.420401
4.79 -0.42206
4.8 -0.423461
4.81 -0.42469
4.82 -0.425822
4.83 -0.426929
4.84 -0.428069
4.85 -0.429299
4.86 -0.430657
4.87 -0.432159
4.88 -0.433811
4.89 -0.435608
4.9 -0.437534
4.91 -0.439561
4.92 -0.441657
4.93 -0.443766
4.94 -0.44584
4.95 -0.447825
4.96 -0.449671
4.97 -0.451325
4.98 -0.452724
4.99 -0.453811
5 -0.454564
5.01 -0.45495
5.02 -0.454942
5.03 -0.454517
5.04 -0.453662
5.05 -0.45232
5.06 -0.450521
5.07 -0.448271
5.08 -0.445567
5.09 -0.442409
5.1 -0.438796
5.11 -0.434708
5.12 -0.430116
5.13 -0.425049
5.14 -0.419493
5.15 -0.413432
5.16 -0.406846
5.17 -0.399713
5.18 -0.391959
5.19 -0.383591
5.2 -0.374605
5.21 -0.364983
5.22 -0.354712
5.23 -0.343786
5.24 -0.332192
5.25 -0.319897
5.26 -0.306987
5.27 -0.293496
5.28 -0.27947
5.29 -0.264964
5.3 -0.250045
5.31 -0.23477
5.32 -0.219247
5.33 -0.20358
5.34 -0.187864
5.35 -0.172194
5.36 -0.156666
5.37 -0.141375
5.38 -0.126446
5.39 -0.111929
5.4 -0.0978916
5.41 -0.0843874
5.42 -0.0714598
5.43 -0.0591387
5.44 -0.0474832
5.45 -0.036487
5.46 -0.0261086
5.47 -0.016328
5.48 -0.00711719
5.49 0.00155818
5.5 0.0097356
5.51 0.0174088
5.52 0.0246734
5.53 0.0315654
5.54 0.0381159
5.55 0.0443492
5.56 0.0502815
5.57 0.0559039
5.58 0.061211
5.59 0.0662077
5.6 0.0708725
5.61 0.0751769
5.62 0.0790873
5.63 0.0825666
5.64 0.0855215
5.65 0.0879585
5.66 0.0898499
5.67 0.0911704
5.68 0.091904
5.69 0.0920453
5.7 0.0915763
5.71 0.0905064
5.72 0.0889168
5.73 0.0868596
5.74 0.0844007
5.75 0.0816176
5.76 0.078598
5.77 0.0754337
5.78 0.0722485
5.79 0.0691479
5.8 0.066233
5.81 0.0636
5.82 0.0613366
5.83 0.0595365
5.84 0.0582952
5.85 0.0576163
5.86 0.0575242
5.87 0.0580244
5.88 0.0591037
5.89 0.0607304
5.9 0.0628925
5.91 0.0654874
5.92 0.0684193
5.93 0.071598
5.94 0.0749276
5.95 0.0783102
5.96 0.0816457
5.97 0.0848218
5.98 0.0877649
5.99 0.0904082
6 0.0927003
6.01 0.0946078
6.02 0.0961161
6.03 0.0972031
6.04 0.0979136
6.05 0.0983135
6.06 0.098469
6.07 0.0984606
6.08 0.0983806
6.09 0.0983304
6.1 0.0984398
6.11 0.0988071
6.12 0.09953
6.13 0.100697
6.14 0.102382
6.15 0.104644
6.16 0.10756
6.17 0.11114
6.18 0.115337
6.19 0.120111
6.2 0.1254
6.21 0.131119
6.22 0.137161
6.23 0.143411
6.24 0.149689
6.25 0.155843
6.26 0.161716
6.27 0.167149
6.28 0.171989
6.29 0.176043
6.3 0.179152
6.31 0.181253
6.32 0.18226
6.33 0.182107
6.34 0.180757
6.35 0.178197
6.36 0.174323
6.37 0.169299
6.38 0.163215
6.39 0.156167
6.4 0.148274
6.41 0.139668
6.42 0.130477
6.43 0.120863
6.44 0.111024
6.45 0.101112
6.46 0.0912755
6.47 0.0816502
6.48 0.0723588
6.49 0.0635568
6.5 0.0553049
6.51 0.0476522
6.52 0.0406362
6.53 0.0342724
6.54 0.0285555
6.55 0.0234778
6.56 0.019021
6.57 0.0150702
6.58 0.0115526
6.59 0.00838765
6.6 0.0054902
6.61 0.00277425
6.62 0.000157587
6.63 -0.00245121
6.64 -0.00512168
6.65 -0.00790881
6.66 -0.0108542
6.67 -0.0139846
6.68 -0.0173151
6.69 -0.0208538
6.7 -0.0245574
6.71 -0.0283882
6.72 -0.0322956
6.73 -0.0362189
6.74 -0.0400884
6.75 -0.0438135
6.76 -0.0473075
6.77 -0.0504975
6.78 -0.0533064
6.79 -0.0556622
6.8 -0.0574999
6.81 -0.0587577
6.82 -0.059323
6.83 -0.0592278
6.84 -0.0584527
6.85 -0.0569904
6.86 -0.0548453
6.87 -0.0520335
6.88 -0.0485439
6.89 -0.0444222
6.9 -0.0397482
6.91 -0.0345718
6.92 -0.0289464
6.93 -0.0229272
6.94 -0.0165695
6.95 -0.00990031
6.96 -0.00300614
6.97 0.00406722
6.98 0.0112803
6.99 0.0185997
7 0.0259988
7.01 0.0334598
7.02 0.040969
7.03 0.0485168
7.04 0.0561029
7.05 0.0637313
7.06 0.0714093
7.07 0.0791467
7.08 0.086963
7.09 0.094864
7.1 0.102858
7.11 0.110952
7.12 0.119151
7.13 0.127453
7.14 0.135858
7.15 0.144356
7.16 0.152924
7.17 0.161538
7.18 0.170172
7.19 0.178791
7.2 0.18736
7.21 0.195822
7.22 0.204132
7.23 0.212244
7.24 0.220105
7.25 0.227663
7.26 0.234862
7.27 0.241636
7.28 0.247894
7.29 0.25362
7.3 0.258763
7.31 0.263272
7.32 0.2671
7.33 0.270201
7.34 0.272466
7.35 0.273884
7.36 0.274449
7.37 0.274126
7.38 0.272886
7.39 0.270704
7.4 0.267541
7.41 0.263296
7.42 0.258054
7.43 0.251807
7.44 0.244554
7.45 0.236298
7.46 0.22705
7.47 0.216757
7.48 0.205471
7.49 0.193268
7.5 0.180189
7.51 0.166279
7.52 0.151594
7.53 0.136192
7.54 0.120085
7.55 0.103431
7.56 0.0863163
7.57 0.0688331
7.58 0.0510801
7.59 0.0331607
7.6 0.0151852
7.61 -0.00271902
7.62 -0.020438
7.63 -0.0378603
7.64 -0.0548765
7.65 -0.0713796
7.66 -0.0872675
7.67 -0.102354
7.68 -0.116619
7.69 -0.129988
7.7 -0.142392
7.71 -0.153775
7.72 -0.164091
7.73 -0.173254
7.74 -0.181218
7.75 -0.188056
7.76 -0.193778
7.77 -0.198407
7.78 -0.201975
7.79 -0.204529
7.8 -0.206034
7.81 -0.206643
7.82 -0.206447
7.83 -0.205525
7.84 -0.203959
7.85 -0.201837
7.86 -0.199229
7.87 -0.196215
7.88 -0.192913
7.89 -0.189399
7.9 -0.185742
7.91 -0.182005
7.92 -0.178242
7.93 -0.174503
7.94 -0.170826
7.95 -0.167232
7.96 -0.163737
7.97 -0.160345
7.98 -0.157056
7.99 -0.153859
8 -0.150744
8.01 -0.14768
8.02 -0.144644
8.03 -0.141612
8.04 -0.138559
8.05 -0.135464
8.06 -0.132303
8.07 -0.129065
8.08 -0.125744
8.09 -0.122344
8.1 -0.118872
8.11 -0.115344
8.12 -0.111784
8.13 -0.108226
8.14 -0.10471
8.15 -0.10128
8.16 -0.0979796
8.17 -0.0948568
8.18 -0.0919576
8.19 -0.0893476
8.2 -0.0870668
8.21 -0.0851339
8.22 -0.0835725
8.23 -0.0823965
8.24 -0.0816086
8.25 -0.0812006
8.26 -0.0811854
8.27 -0.0814815
8.28 -0.0820375
8.29 -0.08279
8.3 -0.0836652
8.31 -0.0845801
8.32 -0.0854358
8.33 -0.0861214
8.34 -0.0865431
8.35 -0.0866041
8.36 -0.0862115
8.37 -0.0852792
8.38 -0.0837298
8.39 -0.0814173
8.4 -0.0783571
8.41 -0.0745228
8.42 -0.0699
8.43 -0.0644919
8.44 -0.0583203
8.45 -0.0513944
8.46 -0.0437635
8.47 -0.0355553
8.48 -0.0268588
8.49 -0.0177739
8.5 -0.00840846
8.51 0.00112444
8.52 0.0107036
8.53 0.020199
8.54 0.0295024
8.55 0.0385141
8.56 0.0471455
8.57 0.0553206
8.58 0.0629591
8.59 0.0699847
8.6 0.0764177
8.61 0.0822519
8.62 0.0874971
8.63 0.0921788
8.64 0.0963358
8.65 0.0999828
8.66 0.103215
8.67 0.106115
8.68 0.108751
8.69 0.111193
8.7 0.113507
8.71 0.115752
8.72 0.117981
8.73 0.120237
8.74 0.122542
8.75 0.124903
8.76 0.127313
8.77 0.129749
8.78 0.132169
8.79 0.134514
8.8 0.136717
8.81 0.138704
8.82 0.140392
8.83 0.141697
8.84 0.142525
8.85 0.142728
8.86 0.142281
8.87 0.141114
8.88 0.139168
8.89 0.136399
8.9 0.132775
8.91 0.128225
8.92 0.122764
8.93 0.116459
8.94 0.109347
8.95 0.101478
8.96 0.0929169
8.97 0.083736
8.98 0.0739654
8.99 0.0637625
9 0.0532165
9.01 0.0424154
9.02 0.0314431
9.03 0.0203773
9.04 0.00928952
9.05 -0.00175348
9.06 -0.0127065
9.07 -0.0235376
9.08 -0.034227
9.09 -0.0447672
9.1 -0.0551617
9.11 -0.0654117
9.12 -0.0755545
9.13 -0.0856192
9.14 -0.0956364
9.15 -0.105636
9.16 -0.115647
9.17 -0.125695
9.18 -0.135797
9.19 -0.145954
9.2 -0.156159
9.21 -0.166392
9.22 -0.176621
9.23 -0.186799
9.24 -0.196851
9.25 -0.206706
9.26 -0.216285
9.27 -0.225499
9.28 -0.234255
9.29 -0.242455
9.3 -0.249982
9.31 -0.256691
9.32 -0.262555
9.33 -0.2675
9.34 -0.271465
9.35 -0.2744
9.36 -0.276271
9.37 -0.27697
9.38 -0.276555
9.39 -0.275081
9.4 -0.272583
9.41 -0.269111
9.42 -0.264727
9.43 -0.259486
9.44 -0.253423
9.45 -0.2467
9.46 -0.239406
9.47 -0.231625
9.48 -0.223438
9.49 -0.214918
9.5 -0.206115
9.51 -0.197096
9.52 -0.187911
9.53 -0.178585
9.54 -0.16913
9.55 -0.159545
9.56 -0.149814
9.57 -0.139894
9.58 -0.129765
9.59 -0.119384
9.6 -0.108707
9.61 -0.0976872
9.62 -0.0862782
9.63 -0.074409
9.64 -0.0620433
9.65 -0.0491802
9.66 -0.0358058
9.67 -0.0219178
9.68 -0.00752701
9.69 0.00734255
9.7 0.022699
9.71 0.038435
9.72 0.0544856
9.73 0.0707766
9.74 0.0872258
9.75 0.103745
9.76 0.120238
9.77 0.136595
9.78 0.152728
9.79 0.168551
9.8 0.183982
9.81 0.198949
9.82 0.213387
9.83 0.227178
9.84 0.24033
9.85 0.252822
9.86 0.264635
9.87 0.27576
9.88 0.2862
9.89 0.295934
9.9 0.304956
9.91 0.313338
9.92 0.3211
9.93 0.328264
9.94 0.33485
9.95 0.340877
9.96 0.346306
9.97 0.351184
9.98 0.355526
9.99 0.359326
10 0.362575
10.01 0.365256
10.02 0.367335
10.03 0.368749
10.04 0.369527
10.05 0.369648
10.06 0.369092
10.07 0.367843
10.08 0.365894
10.09 0.363184
10.1 0.359759
10.11 0.355662
10.12 0.350925
10.13 0.345591
10.14 0.339711
10.15 0.333343
10.16 0.326534
10.17 0.319414
10.18 0.31207
10.19 0.304591
10.2 0.297071
10.21 0.289601
10.22 0.282283
10.23 0.275206
10.24 0.268435
10.25 0.262032
10.26 0.256045
10.27 0.250511
10.28 0.245455
10.29 0.240934
10.3 0.236885
10.31 0.233283
10.32 0.230093
10.33 0.227266
10.34 0.224742
10.35 0.222466
10.36 0.220352
10.37 0.218312
10.38 0.216266
10.39 0.214138
10.4 0.211855
10.41 0.209348
10.42 0.206515
10.43 0.20333
10.44 0.199751
10.45 0.195742
10.46 0.191278
10.47 0.186343
10.48 0.180907
10.49 0.174961
10.5 0.168547
10.51 0.161678
10.52 0.154371
10.53 0.146646
10.54 0.138524
10.55 0.129991
10.56 0.121098
10.57 0.11187
10.58 0.102319
10.59 0.0924558
10.6 0.0822878
10.61 0.071807
10.62 0.0610017
10.63 0.0498942
10.64 0.0384815
10.65 0.0267608
10.66 0.0147304
10.67 0.00239041
10.68 -0.0102827
10.69 -0.0232598
10.7 -0.0365186
10.71 -0.0500394
10.72 -0.0637961
10.73 -0.0777563
10.74 -0.0918848
10.75 -0.106139
10.76 -0.120454
10.77 -0.134776
10.78 -0.14905
10.79 -0.163217
10.8 -0.177221
10.81 -0.190986
10.82 -0.204462
10.83 -0.217614
10.84 -0.230402
10.85 -0.242795
10.86 -0.254771
10.87 -0.26631
10.88 -0.27737
10.89 -0.288001
10.9 -0.29822
10.91 -0.308049
10.92 -0.317518
10.93 -0.326663
10.94 -0.335505
10.95 -0.344097
10.96 -0.352493
10.97 -0.360732
10.98 -0.368849
10.99 -0.376873
11 -0.384826
11.01 -0.392717
11.02 -0.400555
11.03 -0.408333
11.04 -0.416032
11.05 -0.423624
11.06 -0.431072
11.07 -0.438315
11.08 -0.445287
11.09 -0.451937
11.1 -0.458199
11.11 -0.464003
11.12 -0.469277
11.13 -0.473952
11.14 -0.477879
11.15 -0.481061
11.16 -0.483447
11.17 -0.484991
11.18 -0.485655
11.19 -0.48541
11.2 -0.484196
11.21 -0.481982
11.22 -0.478842
11.23 -0.474789
11.24 -0.469848
11.25 -0.464051
11.26 -0.457438
11.27 -0.449982
11.28 -0.441799
11.29 -0.432956
11.3 -0.423504
11.31 -0.413496
11.32 -0.40298
11.33 -0.39199
11.34 -0.380555
11.35 -0.368747
11.36 -0.356599
11.37 -0.344137
11.38 -0.331381
11.39 -0.318348
11.4 -0.305025
11.41 -0.291434
11.42 -0.277588
11.43 -0.263484
11.44 -0.249124
11.45 -0.234504
11.46 -0.219619
11.47 -0.20445
11.48 -0.189026
11.49 -0.173351
11.5 -0.157437
11.51 -0.141296
11.52 -0.124946
11.53 -0.108396
11.54 -0.0916828
11.55 -0.0748437
11.56 -0.0579122
11.57 -0.0409246
11.58 -0.0239194
11.59 -0.00693754
11.6 0.0099689
11.61 0.0267616
11.62 0.0433995
11.63 0.0598426
11.64 0.0760519
11.65 0.0919909
11.66 0.107602
11.67 0.122854
11.68 0.137733
11.69 0.152212
11.7 0.166269
11.71 0.179881
11.72 0.19303
11.73 0.205642
11.74 0.217758
11.75 0.229365
11.76 0.240453
11.77 0.251012
11.78 0.261035
11.79 0.270484
11.8 0.279348
11.81 0.287657
11.82 0.295405
11.83 0.302589
11.84 0.309205
11.85 0.315249
11.86 0.320657
11.87 0.325483
11.88 0.329728
11.89 0.333391
11.9 0.336468
11.91 0.338955
11.92 0.340821
11.93 0.342044
11.94 0.342659
11.95 0.342658
11.96 0.34203
11.97 0.340764
11.98 0.338845
11.99 0.336191
12 0.332831
12.01 0.32876
12.02 0.323956
12.03 0.318394
12.04 0.312052
12.05 0.304878
12.06 0.296805
12.07 0.287879
12.08 0.278083
12.09 0.267403
12.1 0.255828
12.11 0.243355
12.12 0.229911
12.13 0.215558
12.14 0.200343
12.15 0.184298
12.16 0.167461
12.17 0.149881
