# xPDFsuite Configuration #
[PDF]
wavelength = 0.1
dataformat = QA
inputfile = BiMsol6_insitu_700 C-00743.xy
backgroundfile = Quartz2mm-dist500-00000.xy
mode = xray
bgscale = 0.0042
composition = Bi2Fe4O9
outputtype = gr
qmaxinst = 24.998449118
qmin = 0.1
qmax = 21.4986662415
rmax = 80.0
rmin = 0.0
rstep = 0.01
rpoly = 0.9

[Misc]
inputdir = C:/Data/Seafile/CPH/Beamtime/Desy Oct 20/In situ data/Processed/BiMsol6/PDF
savedir = C:/Data/Seafile/CPH/Beamtime/Desy Oct 20/In situ data/PDF/BiMsol6
backgroundfilefull = C:/Data/Seafile/CPH/Beamtime/Desy Oct 20/In situ data/Processed/Standard_Empty_Cap/Quartz2mm-dist500-00000.xy

#### start data
#S 1
#L r($\AA$)  G($\AA^{-2}$)
0 0
0.01 0.00621231
0.02 0.0120708
0.03 0.0172727
0.04 0.0215465
0.05 0.0246645
0.06 0.0264533
0.07 0.0267237
0.08 0.0254215
0.09 0.0226877
0.1 0.0186389
0.11 0.0134551
0.12 0.00737188
0.13 0.000670194
0.14 -0.00633361
0.15 -0.0132441
0.16 -0.0197276
0.17 -0.0254712
0.18 -0.0301952
0.19 -0.0336668
0.2 -0.0356471
0.21 -0.0359751
0.22 -0.0347505
0.23 -0.0320421
0.24 -0.0279953
0.25 -0.0228274
0.26 -0.0168195
0.27 -0.0102924
0.28 -0.00370147
0.29 0.00254796
0.3 0.00806302
0.31 0.0124714
0.32 0.0154399
0.33 0.016632
0.34 0.0157205
0.35 0.0127644
0.36 0.00776884
0.37 0.000841655
0.38 -0.0078052
0.39 -0.0178589
0.4 -0.0289546
0.41 -0.0404787
0.42 -0.0518302
0.43 -0.0623985
0.44 -0.0715536
0.45 -0.0786701
0.46 -0.083088
0.47 -0.0839573
0.48 -0.0811057
0.49 -0.0741983
0.5 -0.0630226
0.51 -0.0475024
0.52 -0.0277071
0.53 -0.00358982
0.54 0.024288
0.55 0.0551957
0.56 0.0884529
0.57 0.123268
0.58 0.158759
0.59 0.193971
0.6 0.227674
0.61 0.258937
0.62 0.286808
0.63 0.310403
0.64 0.328932
0.65 0.34172
0.66 0.347829
0.67 0.346897
0.68 0.339132
0.69 0.324573
0.7 0.303441
0.71 0.276136
0.72 0.243227
0.73 0.204968
0.74 0.162858
0.75 0.117884
0.76 0.0710852
0.77 0.023538
0.78 -0.0236805
0.79 -0.0693998
0.8 -0.112459
0.81 -0.152094
0.82 -0.18756
0.83 -0.218253
0.84 -0.243726
0.85 -0.263702
0.86 -0.277497
0.87 -0.285717
0.88 -0.288706
0.89 -0.28688
0.9 -0.280781
0.91 -0.271058
0.92 -0.258363
0.93 -0.243517
0.94 -0.22755
0.95 -0.211266
0.96 -0.195435
0.97 -0.180765
0.98 -0.167881
0.99 -0.157561
1 -0.150085
1.01 -0.145645
1.02 -0.144362
1.03 -0.146231
1.04 -0.151125
1.05 -0.158874
1.06 -0.169234
1.07 -0.181527
1.08 -0.195267
1.09 -0.209929
1.1 -0.224981
1.11 -0.239899
1.12 -0.254099
1.13 -0.267115
1.14 -0.278609
1.15 -0.288295
1.16 -0.295977
1.17 -0.301545
1.18 -0.304949
1.19 -0.306108
1.2 -0.305406
1.21 -0.303084
1.22 -0.299432
1.23 -0.294783
1.24 -0.289491
1.25 -0.283922
1.26 -0.278479
1.27 -0.273487
1.28 -0.269219
1.29 -0.265891
1.3 -0.263661
1.31 -0.262624
1.32 -0.26292
1.33 -0.264347
1.34 -0.266776
1.35 -0.27002
1.36 -0.273851
1.37 -0.278003
1.38 -0.282179
1.39 -0.286043
1.4 -0.289321
1.41 -0.291762
1.42 -0.293151
1.43 -0.293325
1.44 -0.292174
1.45 -0.289497
1.46 -0.285475
1.47 -0.280211
1.48 -0.273864
1.49 -0.266647
1.5 -0.258816
1.51 -0.250662
1.52 -0.242544
1.53 -0.2348
1.54 -0.22774
1.55 -0.221648
1.56 -0.216772
1.57 -0.213313
1.58 -0.21158
1.59 -0.211512
1.6 -0.213075
1.61 -0.216184
1.62 -0.22069
1.63 -0.226377
1.64 -0.232992
1.65 -0.240191
1.66 -0.247543
1.67 -0.254665
1.68 -0.261174
1.69 -0.266696
1.7 -0.270881
1.71 -0.273249
1.72 -0.273621
1.73 -0.271865
1.74 -0.267869
1.75 -0.261598
1.76 -0.253095
1.77 -0.242424
1.78 -0.229679
1.79 -0.21532
1.8 -0.199662
1.81 -0.183065
1.82 -0.165911
1.83 -0.148598
1.84 -0.131568
1.85 -0.115237
1.86 -0.0999282
1.87 -0.0859346
1.88 -0.0734917
1.89 -0.0627724
1.9 -0.0539092
1.91 -0.0470951
1.92 -0.0420867
1.93 -0.0387638
1.94 -0.0369478
1.95 -0.03641
1.96 -0.0368825
1.97 -0.0380967
1.98 -0.0396848
1.99 -0.0413073
2 -0.0426748
2.01 -0.043528
2.02 -0.0436489
2.03 -0.0428663
2.04 -0.040955
2.05 -0.0379935
2.06 -0.0340213
2.07 -0.029143
2.08 -0.0235252
2.09 -0.0173898
2.1 -0.0110111
2.11 -0.00474823
2.12 0.00104963
2.13 0.00603722
2.14 0.00987433
2.15 0.0122391
2.16 0.0128407
2.17 0.0111892
2.18 0.00728765
2.19 0.00103618
2.2 -0.00761158
2.21 -0.0186307
2.22 -0.0319247
2.23 -0.0474126
2.24 -0.0648702
2.25 -0.0838472
2.26 -0.103997
2.27 -0.124938
2.28 -0.14627
2.29 -0.167581
2.3 -0.188386
2.31 -0.208293
2.32 -0.226964
2.33 -0.244095
2.34 -0.259437
2.35 -0.272798
2.36 -0.283978
2.37 -0.292815
2.38 -0.299509
2.39 -0.304151
2.4 -0.306889
2.41 -0.307923
2.42 -0.307495
2.43 -0.305804
2.44 -0.303258
2.45 -0.300201
2.46 -0.296941
2.47 -0.293772
2.48 -0.290966
2.49 -0.288779
2.5 -0.287488
2.51 -0.287174
2.52 -0.28793
2.53 -0.289799
2.54 -0.292772
2.55 -0.296798
2.56 -0.301841
2.57 -0.307711
2.58 -0.314198
2.59 -0.321112
2.6 -0.32825
2.61 -0.335405
2.62 -0.342369
2.63 -0.348895
2.64 -0.354841
2.65 -0.360067
2.66 -0.364462
2.67 -0.367948
2.68 -0.370482
2.69 -0.371992
2.7 -0.372522
2.71 -0.372182
2.72 -0.371056
2.73 -0.369248
2.74 -0.366879
2.75 -0.364075
2.76 -0.360949
2.77 -0.357677
2.78 -0.354377
2.79 -0.351156
2.8 -0.348105
2.81 -0.345293
2.82 -0.342789
2.83 -0.340626
2.84 -0.338788
2.85 -0.337257
2.86 -0.336001
2.87 -0.334971
2.88 -0.334109
2.89 -0.333351
2.9 -0.33261
2.91 -0.331814
2.92 -0.330895
2.93 -0.329793
2.94 -0.328451
2.95 -0.326812
2.96 -0.324823
2.97 -0.32248
2.98 -0.319765
2.99 -0.316664
3 -0.313166
3.01 -0.309263
3.02 -0.304899
3.03 -0.300088
3.04 -0.294809
3.05 -0.289025
3.06 -0.282687
3.07 -0.275731
3.08 -0.268056
3.09 -0.259518
3.1 -0.250072
3.11 -0.239607
3.12 -0.228007
3.13 -0.215153
3.14 -0.200929
3.15 -0.185094
3.16 -0.167623
3.17 -0.14849
3.18 -0.127647
3.19 -0.105073
3.2 -0.0807764
3.21 -0.0547675
3.22 -0.027018
3.23 0.00218792
3.24 0.0326917
3.25 0.0643014
3.26 0.096795
3.27 0.129924
3.28 0.163421
3.29 0.196948
3.3 0.230189
3.31 0.262844
3.32 0.294615
3.33 0.325214
3.34 0.354353
3.35 0.38159
3.36 0.406872
3.37 0.430015
3.38 0.450869
3.39 0.469323
3.4 0.485299
3.41 0.498597
3.42 0.509237
3.43 0.51739
3.44 0.52312
3.45 0.526512
3.46 0.527675
3.47 0.52673
3.48 0.5236
3.49 0.518665
3.5 0.51207
3.51 0.503956
3.52 0.494461
3.53 0.483712
3.54 0.471778
3.55 0.458771
3.56 0.444862
3.57 0.430142
3.58 0.414694
3.59 0.398595
3.6 0.38192
3.61 0.364699
3.62 0.347063
3.63 0.329098
3.64 0.310893
3.65 0.292544
3.66 0.274158
3.67 0.255859
3.68 0.237801
3.69 0.220116
3.7 0.202949
3.71 0.186452
3.72 0.17078
3.73 0.15609
3.74 0.142655
3.75 0.130557
3.76 0.119904
3.77 0.110816
3.78 0.103399
3.79 0.0977362
3.8 0.0939488
3.81 0.0921899
3.82 0.0923119
3.83 0.0943049
3.84 0.0981364
3.85 0.103753
3.86 0.111083
3.87 0.12016
3.88 0.13079
3.89 0.142798
3.9 0.156061
3.91 0.17045
3.92 0.185835
3.93 0.202102
3.94 0.219169
3.95 0.236837
3.96 0.254994
3.97 0.273538
3.98 0.292373
3.99 0.311414
4 0.33058
4.01 0.349785
4.02 0.368951
4.03 0.38801
4.04 0.406891
4.05 0.425523
4.06 0.443829
4.07 0.461675
4.08 0.479012
4.09 0.495747
4.1 0.511778
4.11 0.527
4.12 0.541303
4.13 0.554502
4.14 0.566468
4.15 0.577149
4.16 0.586434
4.17 0.594223
4.18 0.600421
4.19 0.604948
4.2 0.607535
4.21 0.608321
4.22 0.607284
4.23 0.604415
4.24 0.599724
4.25 0.593238
4.26 0.58492
4.27 0.574812
4.28 0.56311
4.29 0.549904
4.3 0.53529
4.31 0.519371
4.32 0.502252
4.33 0.483933
4.34 0.46462
4.35 0.444419
4.36 0.423414
4.37 0.401676
4.38 0.379268
4.39 0.35622
4.4 0.332555
4.41 0.308351
4.42 0.283631
4.43 0.258416
4.44 0.232722
4.45 0.206569
4.46 0.179942
4.47 0.152903
4.48 0.125504
4.49 0.0977992
4.5 0.0698536
4.51 0.0417485
4.52 0.0135809
4.53 -0.0145197
4.54 -0.0424226
4.55 -0.0699906
4.56 -0.097078
4.57 -0.123534
4.58 -0.149208
4.59 -0.173864
4.6 -0.197383
4.61 -0.219672
4.62 -0.24062
4.63 -0.260134
4.64 -0.278147
4.65 -0.294586
4.66 -0.309303
4.67 -0.32247
4.68 -0.334132
4.69 -0.344357
4.7 -0.353238
4.71 -0.360889
4.72 -0.367375
4.73 -0.372886
4.74 -0.377627
4.75 -0.381755
4.76 -0.385423
4.77 -0.388777
4.78 -0.391954
4.79 -0.395076
4.8 -0.398256
4.81 -0.401567
4.82 -0.405058
4.83 -0.408753
4.84 -0.412654
4.85 -0.416748
4.86 -0.420984
4.87 -0.425287
4.88 -0.42958
4.89 -0.433776
4.9 -0.437785
4.91 -0.441514
4.92 -0.444823
4.93 -0.447662
4.94 -0.449965
4.95 -0.45168
4.96 -0.452767
4.97 -0.453206
4.98 -0.452966
4.99 -0.45205
5 -0.450539
5.01 -0.448482
5.02 -0.445938
5.03 -0.442972
5.04 -0.439657
5.05 -0.436041
5.06 -0.43222
5.07 -0.428259
5.08 -0.424203
5.09 -0.420086
5.1 -0.415926
5.11 -0.411723
5.12 -0.407456
5.13 -0.403094
5.14 -0.398589
5.15 -0.393879
5.16 -0.388896
5.17 -0.383566
5.18 -0.37777
5.19 -0.371455
5.2 -0.364569
5.21 -0.357065
5.22 -0.348908
5.23 -0.340085
5.24 -0.330586
5.25 -0.320408
5.26 -0.309671
5.27 -0.298459
5.28 -0.286879
5.29 -0.275057
5.3 -0.263132
5.31 -0.251277
5.32 -0.239675
5.33 -0.228485
5.34 -0.21787
5.35 -0.207979
5.36 -0.198951
5.37 -0.190919
5.38 -0.184083
5.39 -0.178403
5.4 -0.173912
5.41 -0.170612
5.42 -0.168478
5.43 -0.167452
5.44 -0.167513
5.45 -0.168519
5.46 -0.170284
5.47 -0.172661
5.48 -0.175494
5.49 -0.17862
5.5 -0.181879
5.51 -0.185096
5.52 -0.188119
5.53 -0.190825
5.54 -0.19311
5.55 -0.194891
5.56 -0.196108
5.57 -0.196695
5.58 -0.196638
5.59 -0.195989
5.6 -0.194786
5.61 -0.193077
5.62 -0.190926
5.63 -0.188402
5.64 -0.18555
5.65 -0.182475
5.66 -0.17924
5.67 -0.175891
5.68 -0.17246
5.69 -0.16896
5.7 -0.165381
5.71 -0.161687
5.72 -0.15783
5.73 -0.15374
5.74 -0.14933
5.75 -0.144501
5.76 -0.139146
5.77 -0.133081
5.78 -0.126234
5.79 -0.118517
5.8 -0.109844
5.81 -0.100144
5.82 -0.0893708
5.83 -0.0774653
5.84 -0.0643833
5.85 -0.0502612
5.86 -0.0351732
5.87 -0.0192225
5.88 -0.00253922
5.89 0.0147225
5.9 0.032407
5.91 0.0502777
5.92 0.0681234
5.93 0.0857435
5.94 0.102942
5.95 0.119533
5.96 0.135327
5.97 0.150095
5.98 0.163801
5.99 0.176363
6 0.187731
6.01 0.197891
6.02 0.206862
6.03 0.214613
6.04 0.221279
6.05 0.227018
6.06 0.231961
6.07 0.236252
6.08 0.240044
6.09 0.243486
6.1 0.246725
6.11 0.249926
6.12 0.2532
6.13 0.256638
6.14 0.260299
6.15 0.264214
6.16 0.268397
6.17 0.272798
6.18 0.277331
6.19 0.281892
6.2 0.286354
6.21 0.290566
6.22 0.294366
6.23 0.297492
6.24 0.299819
6.25 0.301177
6.26 0.30141
6.27 0.300377
6.28 0.297962
6.29 0.293995
6.3 0.288398
6.31 0.281253
6.32 0.27258
6.33 0.262436
6.34 0.250909
6.35 0.238118
6.36 0.224108
6.37 0.209172
6.38 0.19351
6.39 0.177317
6.4 0.160789
6.41 0.14412
6.42 0.127501
6.43 0.111129
6.44 0.0951379
6.45 0.0796425
6.46 0.0647294
6.47 0.050455
6.48 0.0368455
6.49 0.0239565
6.5 0.0116999
6.51 -2.76866e-06
6.52 -0.0112358
6.53 -0.0220993
6.54 -0.0327044
6.55 -0.0431673
6.56 -0.053619
6.57 -0.0641792
6.58 -0.0749456
6.59 -0.086
6.6 -0.0974046
6.61 -0.109199
6.62 -0.121433
6.63 -0.13407
6.64 -0.147056
6.65 -0.160325
6.66 -0.173792
6.67 -0.187351
6.68 -0.20088
6.69 -0.214217
6.7 -0.22723
6.71 -0.239779
6.72 -0.251729
6.73 -0.262951
6.74 -0.273329
6.75 -0.282683
6.76 -0.290946
6.77 -0.298097
6.78 -0.30409
6.79 -0.308901
6.8 -0.312521
6.81 -0.314949
6.82 -0.316093
6.83 -0.316115
6.84 -0.315058
6.85 -0.312966
6.86 -0.309882
6.87 -0.305848
6.88 -0.300843
6.89 -0.294902
6.9 -0.288087
6.91 -0.280397
6.92 -0.271821
6.93 -0.262333
6.94 -0.251898
6.95 -0.240352
6.96 -0.227747
6.97 -0.21403
6.98 -0.199144
6.99 -0.183037
7 -0.165663
7.01 -0.146921
7.02 -0.126766
7.03 -0.105287
7.04 -0.0825041
7.05 -0.0584581
7.06 -0.033212
7.07 -0.0068507
7.08 0.020611
7.09 0.0489403
7.1 0.0779756
7.11 0.107555
7.12 0.137508
7.13 0.167653
7.14 0.197802
7.15 0.227743
7.16 0.257302
7.17 0.286316
7.18 0.314632
7.19 0.342115
7.2 0.368646
7.21 0.394021
7.22 0.418224
7.23 0.441226
7.24 0.462991
7.25 0.483497
7.26 0.502739
7.27 0.520686
7.28 0.53728
7.29 0.552653
7.3 0.566827
7.31 0.579819
7.32 0.591645
7.33 0.602309
7.34 0.611711
7.35 0.619884
7.36 0.626838
7.37 0.632526
7.38 0.636892
7.39 0.639868
7.4 0.641349
7.41 0.641114
7.42 0.639222
7.43 0.635589
7.44 0.630133
7.45 0.622783
7.46 0.613479
7.47 0.602035
7.48 0.588473
7.49 0.572889
7.5 0.555312
7.51 0.535795
7.52 0.514417
7.53 0.491275
7.54 0.466346
7.55 0.439984
7.56 0.41237
7.57 0.383703
7.58 0.354195
7.59 0.324071
7.6 0.29355
7.61 0.262902
7.62 0.232373
7.63 0.202186
7.64 0.172549
7.65 0.143658
7.66 0.11569
7.67 0.08894
7.68 0.0634375
7.69 0.0392841
7.7 0.0165634
7.71 -0.00466403
7.72 -0.0243604
7.73 -0.0424356
7.74 -0.0588627
7.75 -0.0737747
7.76 -0.0872117
7.77 -0.0992263
7.78 -0.10988
7.79 -0.119243
7.8 -0.127274
7.81 -0.134159
7.82 -0.139995
7.83 -0.144854
7.84 -0.148808
7.85 -0.151921
7.86 -0.154227
7.87 -0.155753
7.88 -0.156607
7.89 -0.156828
7.9 -0.156451
7.91 -0.155503
7.92 -0.154009
7.93 -0.151944
7.94 -0.14936
7.95 -0.146289
7.96 -0.142746
7.97 -0.138747
7.98 -0.134309
7.99 -0.129442
8 -0.124144
8.01 -0.118478
8.02 -0.112474
8.03 -0.106163
8.04 -0.0995807
8.05 -0.0927669
8.06 -0.0857523
8.07 -0.0785968
8.08 -0.0713561
8.09 -0.0640813
8.1 -0.0568252
8.11 -0.0496416
8.12 -0.0425877
8.13 -0.0357406
8.14 -0.0291395
8.15 -0.0228361
8.16 -0.0168796
8.17 -0.0113158
8.18 -0.00618676
8.19 -0.00156368
8.2 0.00252677
8.21 0.00608494
8.22 0.00909473
8.23 0.0115479
8.24 0.0134443
8.25 0.0147909
8.26 0.0155497
8.27 0.0158113
8.28 0.0156129
8.29 0.0149995
8.3 0.0140236
8.31 0.0127437
8.32 0.0112142
8.33 0.00951269
8.34 0.00772298
8.35 0.00591478
8.36 0.00415575
8.37 0.00250963
8.38 0.00103428
8.39 -0.00019144
8.4 -0.00114731
8.41 -0.00180863
8.42 -0.00216148
8.43 -0.00220533
8.44 -0.00195353
8.45 -0.00142327
8.46 -0.000657581
8.47 0.000267246
8.48 0.00128248
8.49 0.00230973
8.5 0.00326296
8.51 0.00405081
8.52 0.00454416
8.53 0.00465929
8.54 0.00431108
8.55 0.0034156
8.56 0.00189779
8.57 -0.000306228
8.58 -0.00327359
8.59 -0.00708021
8.6 -0.0116792
8.61 -0.0170682
8.62 -0.0232281
8.63 -0.0301231
8.64 -0.0377016
8.65 -0.0459453
8.66 -0.0547296
8.67 -0.0639468
8.68 -0.0735012
8.69 -0.0832935
8.7 -0.0932242
8.71 -0.103195
8.72 -0.113099
8.73 -0.122853
8.74 -0.132386
8.75 -0.141641
8.76 -0.150572
8.77 -0.15915
8.78 -0.16733
8.79 -0.175126
8.8 -0.182568
8.81 -0.18968
8.82 -0.196498
8.83 -0.203063
8.84 -0.209419
8.85 -0.215602
8.86 -0.221678
8.87 -0.227687
8.88 -0.23366
8.89 -0.239623
8.9 -0.245586
8.91 -0.25155
8.92 -0.257499
8.93 -0.263404
8.94 -0.269226
8.95 -0.274914
8.96 -0.280408
8.97 -0.285641
8.98 -0.290497
8.99 -0.294933
9 -0.298881
9.01 -0.302275
9.02 -0.305057
9.03 -0.30718
9.04 -0.308571
9.05 -0.3092
9.06 -0.309111
9.07 -0.308319
9.08 -0.306854
9.09 -0.304762
9.1 -0.302102
9.11 -0.298903
9.12 -0.295301
9.13 -0.291394
9.14 -0.287272
9.15 -0.283028
9.16 -0.278752
9.17 -0.274532
9.18 -0.270455
9.19 -0.266577
9.2 -0.262941
9.21 -0.259578
9.22 -0.256502
9.23 -0.253711
9.24 -0.251211
9.25 -0.248945
9.26 -0.246861
9.27 -0.244902
9.28 -0.243006
9.29 -0.241108
9.3 -0.239137
9.31 -0.237014
9.32 -0.23469
9.33 -0.23212
9.34 -0.229268
9.35 -0.226113
9.36 -0.22265
9.37 -0.218864
9.38 -0.214799
9.39 -0.210509
9.4 -0.206048
9.41 -0.20148
9.42 -0.19688
9.43 -0.192326
9.44 -0.187916
9.45 -0.18372
9.46 -0.179805
9.47 -0.176229
9.48 -0.173037
9.49 -0.170256
9.5 -0.167929
9.51 -0.166028
9.52 -0.164499
9.53 -0.163289
9.54 -0.162322
9.55 -0.161507
9.56 -0.160734
9.57 -0.159862
9.58 -0.158757
9.59 -0.157284
9.6 -0.155309
9.61 -0.152699
9.62 -0.149333
9.63 -0.145038
9.64 -0.139714
9.65 -0.133335
9.66 -0.12585
9.67 -0.11723
9.68 -0.107467
9.69 -0.0965786
9.7 -0.0844832
9.71 -0.0713733
9.72 -0.0573325
9.73 -0.0424574
9.74 -0.026856
9.75 -0.0106447
9.76 0.00607467
9.77 0.0231682
9.78 0.0404881
9.79 0.0579247
9.8 0.075378
9.81 0.09276
9.82 0.109996
9.83 0.127001
9.84 0.143747
9.85 0.16021
9.86 0.176378
9.87 0.192249
9.88 0.207831
9.89 0.22313
9.9 0.238159
9.91 0.252958
9.92 0.267546
9.93 0.281937
9.94 0.296136
9.95 0.310141
9.96 0.323915
9.97 0.337442
9.98 0.350688
9.99 0.3636
10 0.376118
10.01 0.388171
10.02 0.399664
10.03 0.410472
10.04 0.420562
10.05 0.429859
10.06 0.438292
10.07 0.4458
10.08 0.452335
10.09 0.45778
10.1 0.462164
10.11 0.465529
10.12 0.4679
10.13 0.469319
10.14 0.469848
10.15 0.46955
10.16 0.468472
10.17 0.466801
10.18 0.464649
10.19 0.462136
10.2 0.459382
10.21 0.456504
10.22 0.453618
10.23 0.45084
10.24 0.448252
10.25 0.445924
10.26 0.443908
10.27 0.442234
10.28 0.44092
10.29 0.43999
10.3 0.439377
10.31 0.439033
10.32 0.438899
10.33 0.4389
10.34 0.438955
10.35 0.438967
10.36 0.438833
10.37 0.438465
10.38 0.437776
10.39 0.436689
10.4 0.435134
10.41 0.43305
10.42 0.430323
10.43 0.426981
10.44 0.423007
10.45 0.418397
10.46 0.413157
10.47 0.407301
10.48 0.400824
10.49 0.393749
10.5 0.386148
10.51 0.378052
10.52 0.369492
10.53 0.360492
10.54 0.351074
10.55 0.341207
10.56 0.330932
10.57 0.320249
10.58 0.309142
10.59 0.297593
10.6 0.285574
10.61 0.273034
10.62 0.259916
10.63 0.246227
10.64 0.231942
10.65 0.21704
10.66 0.201509
10.67 0.185349
10.68 0.168519
10.69 0.15109
10.7 0.133125
10.71 0.114685
10.72 0.0958444
10.73 0.0766934
10.74 0.0573299
10.75 0.037873
10.76 0.0184578
10.77 -0.000796103
10.78 -0.01977
10.79 -0.0383503
10.8 -0.0564317
10.81 -0.0738674
10.82 -0.0905968
10.83 -0.106587
10.84 -0.121804
10.85 -0.136234
10.86 -0.149885
10.87 -0.162777
10.88 -0.174911
10.89 -0.186437
10.9 -0.197446
10.91 -0.208042
10.92 -0.218337
10.93 -0.228447
10.94 -0.238494
10.95 -0.248608
10.96 -0.258891
10.97 -0.269432
10.98 -0.280302
10.99 -0.291551
11 -0.30321
11.01 -0.315325
11.02 -0.327822
11.03 -0.340649
11.04 -0.353732
11.05 -0.366974
11.06 -0.380261
11.07 -0.39345
11.08 -0.406377
11.09 -0.418898
11.1 -0.430863
11.11 -0.442127
11.12 -0.45255
11.13 -0.462005
11.14 -0.470251
11.15 -0.477302
11.16 -0.483101
11.17 -0.487605
11.18 -0.490796
11.19 -0.492679
11.2 -0.493227
11.21 -0.492468
11.22 -0.490565
11.23 -0.487606
11.24 -0.483689
11.25 -0.478921
11.26 -0.47341
11.27 -0.467213
11.28 -0.460495
11.29 -0.453361
11.3 -0.445891
11.31 -0.438154
11.32 -0.430198
11.33 -0.422053
11.34 -0.413725
11.35 -0.405224
11.36 -0.396529
11.37 -0.387604
11.38 -0.378403
11.39 -0.368874
11.4 -0.358916
11.41 -0.348486
11.42 -0.337538
11.43 -0.326021
11.44 -0.313894
11.45 -0.30113
11.46 -0.287698
11.47 -0.27356
11.48 -0.2588
11.49 -0.243463
11.5 -0.227608
11.51 -0.211313
11.52 -0.194669
11.53 -0.17777
11.54 -0.160756
11.55 -0.143759
11.56 -0.126901
11.57 -0.110306
11.58 -0.0940932
11.59 -0.0783807
11.6 -0.063334
11.61 -0.0489827
11.62 -0.0353945
11.63 -0.0226197
11.64 -0.0106908
11.65 0.000377783
11.66 0.0105339
11.67 0.0198162
11.68 0.0283071
11.69 0.0360583
11.7 0.0431312
11.71 0.049595
11.72 0.0555225
11.73 0.0609462
11.74 0.0659996
11.75 0.0707521
11.76 0.0752665
11.77 0.0795971
11.78 0.0837883
11.79 0.0878688
11.8 0.0918614
11.81 0.0957793
11.82 0.0996185
11.83 0.103365
11.84 0.106996
11.85 0.11048
11.86 0.113759
11.87 0.116808
11.88 0.119585
11.89 0.122053
11.9 0.124172
11.91 0.125909
11.92 0.127217
11.93 0.128058
11.94 0.128448
11.95 0.12838
11.96 0.127851
11.97 0.126866
11.98 0.125433
11.99 0.123523
12 0.121186
12.01 0.118444
12.02 0.11531
12.03 0.111792
12.04 0.107895
12.05 0.103608
12.06 0.0989006
12.07 0.0937902
12.08 0.0882544
12.09 0.0822645
12.1 0.0757861
12.11 0.0687803
12.12 0.061152
12.13 0.0528836
12.14 0.0439504
12.15 0.0343136
12.16 0.0239397
12.17 0.0128032
12.18 0.000871255
