# xPDFsuite Configuration #
[PDF]
wavelength = 0.1
dataformat = QA
inputfile = BiMsol6_insitu_700 C-00328.xy
backgroundfile = Quartz2mm-dist500-00000.xy
mode = xray
bgscale = 0.0042
composition = Bi2Fe4O9
outputtype = gr
qmaxinst = 24.998449118
qmin = 0.1
qmax = 21.4986662415
rmax = 80.0
rmin = 0.0
rstep = 0.01
rpoly = 0.9

[Misc]
inputdir = C:/Data/Seafile/CPH/Beamtime/Desy Oct 20/In situ data/Processed/BiMsol6/PDF
savedir = C:/Data/Seafile/CPH/Beamtime/Desy Oct 20/In situ data/PDF/BiMsol6
backgroundfilefull = C:/Data/Seafile/CPH/Beamtime/Desy Oct 20/In situ data/Processed/Standard_Empty_Cap/Quartz2mm-dist500-00000.xy

#### start data
#S 1
#L r($\AA$)  G($\AA^{-2}$)
0 0
0.01 0.00663923
0.02 0.0129054
0.03 0.0184793
0.04 0.0230742
0.05 0.0264495
0.06 0.0284215
0.07 0.0287892
0.08 0.0274935
0.09 0.0246814
0.1 0.0204735
0.11 0.0150575
0.12 0.00867982
0.13 0.00163454
0.14 -0.00574814
0.15 -0.0130507
0.16 -0.019921
0.17 -0.0260286
0.18 -0.0310768
0.19 -0.0348174
0.2 -0.0369954
0.21 -0.0374357
0.22 -0.0362375
0.23 -0.0334674
0.24 -0.0292726
0.25 -0.0238761
0.26 -0.0175682
0.27 -0.0106786
0.28 -0.00368527
0.29 0.00298663
0.3 0.00892388
0.31 0.0137332
0.32 0.0170606
0.33 0.0185471
0.34 0.0178413
0.35 0.0149936
0.36 0.00999835
0.37 0.00295717
0.38 -0.00591968
0.39 -0.016316
0.4 -0.0278663
0.41 -0.0399354
0.42 -0.0518994
0.43 -0.0631238
0.44 -0.0729516
0.45 -0.0807271
0.46 -0.0857567
0.47 -0.0871476
0.48 -0.0847001
0.49 -0.0780487
0.5 -0.0669531
0.51 -0.051313
0.52 -0.0311782
0.53 -0.0064701
0.54 0.0222511
0.55 0.054244
0.56 0.0888209
0.57 0.125176
0.58 0.162408
0.59 0.199534
0.6 0.235304
0.61 0.268728
0.62 0.298815
0.63 0.324636
0.64 0.345355
0.65 0.360253
0.66 0.368336
0.67 0.369197
0.68 0.363013
0.69 0.34979
0.7 0.329724
0.71 0.303193
0.72 0.270751
0.73 0.23261
0.74 0.190302
0.75 0.144824
0.76 0.0972289
0.77 0.0486115
0.78 7.3567e-05
0.79 -0.0471961
0.8 -0.0920033
0.81 -0.133536
0.82 -0.171013
0.83 -0.203797
0.84 -0.231408
0.85 -0.253533
0.86 -0.269457
0.87 -0.279757
0.88 -0.284753
0.89 -0.284843
0.9 -0.280552
0.91 -0.272519
0.92 -0.261378
0.93 -0.247942
0.94 -0.233247
0.95 -0.218098
0.96 -0.203265
0.97 -0.189459
0.98 -0.17731
0.99 -0.167586
1 -0.160582
1.01 -0.156496
1.02 -0.155453
1.03 -0.157451
1.04 -0.162367
1.05 -0.170032
1.06 -0.1802
1.07 -0.192208
1.08 -0.205574
1.09 -0.219782
1.1 -0.23431
1.11 -0.248644
1.12 -0.262213
1.13 -0.274572
1.14 -0.285403
1.15 -0.294444
1.16 -0.301521
1.17 -0.306549
1.18 -0.309505
1.19 -0.310348
1.2 -0.309476
1.21 -0.30715
1.22 -0.303683
1.23 -0.29942
1.24 -0.294726
1.25 -0.289987
1.26 -0.285598
1.27 -0.281865
1.28 -0.279042
1.29 -0.277325
1.3 -0.276838
1.31 -0.277642
1.32 -0.279837
1.33 -0.283164
1.34 -0.287447
1.35 -0.29245
1.36 -0.297896
1.37 -0.303475
1.38 -0.308831
1.39 -0.313591
1.4 -0.317467
1.41 -0.320191
1.42 -0.321543
1.43 -0.321363
1.44 -0.319555
1.45 -0.31592
1.46 -0.310709
1.47 -0.304076
1.48 -0.29624
1.49 -0.287475
1.5 -0.278108
1.51 -0.268509
1.52 -0.259124
1.53 -0.250353
1.54 -0.242568
1.55 -0.23611
1.56 -0.231275
1.57 -0.228297
1.58 -0.227553
1.59 -0.22895
1.6 -0.232432
1.61 -0.237888
1.62 -0.245125
1.63 -0.25387
1.64 -0.26381
1.65 -0.274516
1.66 -0.285446
1.67 -0.296127
1.68 -0.306077
1.69 -0.314831
1.7 -0.321949
1.71 -0.326828
1.72 -0.329238
1.73 -0.329004
1.74 -0.325978
1.75 -0.320106
1.76 -0.31143
1.77 -0.300021
1.78 -0.285987
1.79 -0.269895
1.8 -0.252143
1.81 -0.233179
1.82 -0.213491
1.83 -0.193586
1.84 -0.174038
1.85 -0.155391
1.86 -0.13808
1.87 -0.122504
1.88 -0.10899
1.89 -0.097792
1.9 -0.0891149
1.91 -0.0832582
1.92 -0.0799252
1.93 -0.0789885
1.94 -0.0802389
1.95 -0.0833953
1.96 -0.0881161
1.97 -0.0940635
1.98 -0.100734
1.99 -0.107639
2 -0.114355
2.01 -0.120482
2.02 -0.125662
2.03 -0.129582
2.04 -0.131819
2.05 -0.132377
2.06 -0.131195
2.07 -0.12829
2.08 -0.123767
2.09 -0.117804
2.1 -0.1106
2.11 -0.102519
2.12 -0.0939963
2.13 -0.0854282
2.14 -0.0772247
2.15 -0.0697938
2.16 -0.0635256
2.17 -0.0589789
2.18 -0.0563298
2.19 -0.0558018
2.2 -0.0575604
2.21 -0.0616951
2.22 -0.0682167
2.23 -0.0771551
2.24 -0.0883895
2.25 -0.10152
2.26 -0.116253
2.27 -0.132243
2.28 -0.14911
2.29 -0.16645
2.3 -0.183816
2.31 -0.200755
2.32 -0.216887
2.33 -0.231873
2.34 -0.245418
2.35 -0.257288
2.36 -0.267243
2.37 -0.275084
2.38 -0.280953
2.39 -0.284909
2.4 -0.287076
2.41 -0.287636
2.42 -0.286824
2.43 -0.284846
2.44 -0.282111
2.45 -0.278976
2.46 -0.275767
2.47 -0.272799
2.48 -0.270364
2.49 -0.268748
2.5 -0.268262
2.51 -0.268984
2.52 -0.271014
2.53 -0.274396
2.54 -0.279117
2.55 -0.285108
2.56 -0.292325
2.57 -0.300535
2.58 -0.309482
2.59 -0.318929
2.6 -0.328624
2.61 -0.338309
2.62 -0.34772
2.63 -0.356541
2.64 -0.36459
2.65 -0.371681
2.66 -0.377668
2.67 -0.382439
2.68 -0.385929
2.69 -0.388027
2.7 -0.388774
2.71 -0.388299
2.72 -0.386696
2.73 -0.384083
2.74 -0.380594
2.75 -0.376377
2.76 -0.371533
2.77 -0.366285
2.78 -0.360763
2.79 -0.355076
2.8 -0.349309
2.81 -0.343519
2.82 -0.337734
2.83 -0.331942
2.84 -0.326099
2.85 -0.320133
2.86 -0.313948
2.87 -0.30743
2.88 -0.300452
2.89 -0.292799
2.9 -0.284382
2.91 -0.275082
2.92 -0.26479
2.93 -0.253418
2.94 -0.240903
2.95 -0.227162
2.96 -0.212164
2.97 -0.196042
2.98 -0.178873
2.99 -0.160769
3 -0.14187
3.01 -0.12234
3.02 -0.102341
3.03 -0.0821296
3.04 -0.0619217
3.05 -0.0419219
3.06 -0.0223267
3.07 -0.00331746
3.08 0.0149169
3.09 0.0321811
3.1 0.0484462
3.11 0.0636516
3.12 0.0777721
3.13 0.090818
3.14 0.102834
3.15 0.113825
3.16 0.123965
3.17 0.133419
3.18 0.142338
3.19 0.150886
3.2 0.15923
3.21 0.167537
3.22 0.175994
3.23 0.18474
3.24 0.193895
3.25 0.203553
3.26 0.213782
3.27 0.22462
3.28 0.236121
3.29 0.248235
3.3 0.260878
3.31 0.273967
3.32 0.287397
3.33 0.301045
3.34 0.314776
3.35 0.32842
3.36 0.341826
3.37 0.35485
3.38 0.367359
3.39 0.379229
3.4 0.390355
3.41 0.400594
3.42 0.409881
3.43 0.418227
3.44 0.425617
3.45 0.432062
3.46 0.437591
3.47 0.442254
3.48 0.446031
3.49 0.449104
3.5 0.451563
3.51 0.453503
3.52 0.455023
3.53 0.456218
3.54 0.457171
3.55 0.457977
3.56 0.45872
3.57 0.459462
3.58 0.460249
3.59 0.461118
3.6 0.462091
3.61 0.46319
3.62 0.464403
3.63 0.465718
3.64 0.467115
3.65 0.468569
3.66 0.470054
3.67 0.471537
3.68 0.472984
3.69 0.474367
3.7 0.475659
3.71 0.476838
3.72 0.477884
3.73 0.478782
3.74 0.479502
3.75 0.480044
3.76 0.480404
3.77 0.480573
3.78 0.480542
3.79 0.4803
3.8 0.479827
3.81 0.479087
3.82 0.478076
3.83 0.476768
3.84 0.475126
3.85 0.473115
3.86 0.470689
3.87 0.467761
3.88 0.464297
3.89 0.460262
3.9 0.455605
3.91 0.450278
3.92 0.444234
3.93 0.437419
3.94 0.429729
3.95 0.421213
3.96 0.411853
3.97 0.40164
3.98 0.39057
3.99 0.378652
4 0.365844
4.01 0.352194
4.02 0.337772
4.03 0.322616
4.04 0.306768
4.05 0.290275
4.06 0.273179
4.07 0.255482
4.08 0.237299
4.09 0.218679
4.1 0.199674
4.11 0.180331
4.12 0.160701
4.13 0.140819
4.14 0.120743
4.15 0.100535
4.16 0.0802481
4.17 0.0599351
4.18 0.0396535
4.19 0.0194646
4.2 -0.000540148
4.21 -0.0203
4.22 -0.0397395
4.23 -0.0587786
4.24 -0.0773338
4.25 -0.0953197
4.26 -0.112613
4.27 -0.129102
4.28 -0.144752
4.29 -0.159487
4.3 -0.173239
4.31 -0.185952
4.32 -0.197581
4.33 -0.207978
4.34 -0.217229
4.35 -0.225356
4.36 -0.232384
4.37 -0.238354
4.38 -0.243326
4.39 -0.247344
4.4 -0.250478
4.41 -0.252905
4.42 -0.254738
4.43 -0.256098
4.44 -0.257105
4.45 -0.25788
4.46 -0.258538
4.47 -0.259206
4.48 -0.259977
4.49 -0.260928
4.5 -0.262121
4.51 -0.263595
4.52 -0.265381
4.53 -0.267496
4.54 -0.26989
4.55 -0.272521
4.56 -0.275333
4.57 -0.278255
4.58 -0.281208
4.59 -0.284093
4.6 -0.286811
4.61 -0.289279
4.62 -0.291415
4.63 -0.29315
4.64 -0.294423
4.65 -0.295186
4.66 -0.295367
4.67 -0.295017
4.68 -0.294155
4.69 -0.292821
4.7 -0.291071
4.71 -0.288977
4.72 -0.286616
4.73 -0.284107
4.74 -0.281567
4.75 -0.279103
4.76 -0.276823
4.77 -0.274827
4.78 -0.273208
4.79 -0.272102
4.8 -0.271522
4.81 -0.271508
4.82 -0.27208
4.83 -0.273237
4.84 -0.274959
4.85 -0.277232
4.86 -0.279989
4.87 -0.283124
4.88 -0.286549
4.89 -0.290169
4.9 -0.293887
4.91 -0.297604
4.92 -0.301206
4.93 -0.304608
4.94 -0.307739
4.95 -0.310541
4.96 -0.312969
4.97 -0.315
4.98 -0.316605
4.99 -0.317789
5 -0.318609
5.01 -0.319108
5.02 -0.319337
5.03 -0.319357
5.04 -0.319231
5.05 -0.319019
5.06 -0.318793
5.07 -0.318601
5.08 -0.318478
5.09 -0.318443
5.1 -0.318497
5.11 -0.318623
5.12 -0.318776
5.13 -0.318883
5.14 -0.318861
5.15 -0.318608
5.16 -0.318007
5.17 -0.316931
5.18 -0.315177
5.19 -0.312627
5.2 -0.309163
5.21 -0.304657
5.22 -0.298992
5.23 -0.292067
5.24 -0.283767
5.25 -0.273934
5.26 -0.262664
5.27 -0.249959
5.28 -0.235844
5.29 -0.220372
5.3 -0.203617
5.31 -0.185598
5.32 -0.166496
5.33 -0.146492
5.34 -0.125736
5.35 -0.104381
5.36 -0.0825799
5.37 -0.0604851
5.38 -0.0382458
5.39 -0.0160216
5.4 0.00606852
5.41 0.0279214
5.42 0.0494504
5.43 0.0705861
5.44 0.0912433
5.45 0.111388
5.46 0.131021
5.47 0.150132
5.48 0.168715
5.49 0.186768
5.5 0.204286
5.51 0.221198
5.52 0.237549
5.53 0.253308
5.54 0.268433
5.55 0.282864
5.56 0.296528
5.57 0.309283
5.58 0.320998
5.59 0.33161
5.6 0.34099
5.61 0.349005
5.62 0.355522
5.63 0.360412
5.64 0.363354
5.65 0.364409
5.66 0.363512
5.67 0.360604
5.68 0.355659
5.69 0.348677
5.7 0.33961
5.71 0.328483
5.72 0.315555
5.73 0.300967
5.74 0.284891
5.75 0.267523
5.76 0.24908
5.77 0.229737
5.78 0.209828
5.79 0.189615
5.8 0.169337
5.81 0.149222
5.82 0.129481
5.83 0.110329
5.84 0.0919835
5.85 0.0745178
5.86 0.058023
5.87 0.0425565
5.88 0.028142
5.89 0.0147716
5.9 0.00248938
5.91 -0.00883457
5.92 -0.0193195
5.93 -0.0290675
5.94 -0.0381887
5.95 -0.0467949
5.96 -0.0549873
5.97 -0.0628522
5.98 -0.0705035
5.99 -0.0779976
6 -0.0853662
6.01 -0.0926143
6.02 -0.0997188
6.03 -0.106608
6.04 -0.113197
6.05 -0.119385
6.06 -0.125046
6.07 -0.130037
6.08 -0.134209
6.09 -0.137396
6.1 -0.139321
6.11 -0.139957
6.12 -0.139182
6.13 -0.136903
6.14 -0.133051
6.15 -0.127592
6.16 -0.120424
6.17 -0.111614
6.18 -0.101332
6.19 -0.0896959
6.2 -0.0768608
6.21 -0.0630089
6.22 -0.0483483
6.23 -0.0330663
6.24 -0.0174947
6.25 -0.00187986
6.26 0.0135348
6.27 0.028516
6.28 0.0428474
6.29 0.0562816
6.3 0.0686217
6.31 0.0798013
6.32 0.0897347
6.33 0.0983749
6.34 0.105714
6.35 0.111783
6.36 0.116532
6.37 0.120192
6.38 0.122913
6.39 0.124855
6.4 0.126195
6.41 0.127118
6.42 0.127816
6.43 0.128504
6.44 0.129372
6.45 0.130586
6.46 0.132286
6.47 0.134594
6.48 0.137603
6.49 0.141454
6.5 0.146128
6.51 0.151607
6.52 0.157867
6.53 0.164857
6.54 0.172508
6.55 0.180747
6.56 0.189487
6.57 0.198572
6.58 0.207892
6.59 0.217339
6.6 0.226813
6.61 0.236224
6.62 0.245476
6.63 0.254508
6.64 0.263285
6.65 0.271781
6.66 0.279987
6.67 0.287909
6.68 0.295561
6.69 0.302957
6.7 0.31016
6.71 0.317207
6.72 0.324136
6.73 0.330978
6.74 0.337758
6.75 0.344484
6.76 0.351155
6.77 0.357749
6.78 0.36423
6.79 0.370542
6.8 0.376611
6.81 0.382347
6.82 0.387592
6.83 0.392267
6.84 0.396253
6.85 0.399423
6.86 0.401654
6.87 0.402824
6.88 0.402744
6.89 0.401305
6.9 0.398491
6.91 0.394239
6.92 0.388505
6.93 0.381264
6.94 0.372516
6.95 0.362113
6.96 0.350271
6.97 0.337057
6.98 0.322551
6.99 0.306848
7 0.290052
7.01 0.272232
7.02 0.253507
7.03 0.234059
7.04 0.214003
7.05 0.193446
7.06 0.17249
7.07 0.151228
7.08 0.129723
7.09 0.108073
7.1 0.0863361
7.11 0.0645588
7.12 0.0427782
7.13 0.0210242
7.14 -0.000675834
7.15 -0.022295
7.16 -0.0438171
7.17 -0.0652196
7.18 -0.0864757
7.19 -0.107553
7.2 -0.128411
7.21 -0.148971
7.22 -0.169186
7.23 -0.188993
7.24 -0.208314
7.25 -0.227066
7.26 -0.245158
7.27 -0.262474
7.28 -0.278854
7.29 -0.294278
7.3 -0.308659
7.31 -0.321921
7.32 -0.333997
7.33 -0.344835
7.34 -0.354293
7.35 -0.362411
7.36 -0.369239
7.37 -0.374801
7.38 -0.379141
7.39 -0.382319
7.4 -0.384397
7.41 -0.3854
7.42 -0.385543
7.43 -0.384944
7.44 -0.383727
7.45 -0.382016
7.46 -0.379935
7.47 -0.377594
7.48 -0.375123
7.49 -0.37263
7.5 -0.370197
7.51 -0.367888
7.52 -0.365752
7.53 -0.363819
7.54 -0.36212
7.55 -0.360618
7.56 -0.359283
7.57 -0.358068
7.58 -0.356913
7.59 -0.355747
7.6 -0.35448
7.61 -0.353016
7.62 -0.351271
7.63 -0.349163
7.64 -0.34661
7.65 -0.343539
7.66 -0.339888
7.67 -0.33553
7.68 -0.330493
7.69 -0.32476
7.7 -0.318327
7.71 -0.311205
7.72 -0.303418
7.73 -0.29498
7.74 -0.285938
7.75 -0.276402
7.76 -0.266447
7.77 -0.256154
7.78 -0.245611
7.79 -0.234908
7.8 -0.224137
7.81 -0.213404
7.82 -0.202795
7.83 -0.192392
7.84 -0.182272
7.85 -0.172501
7.86 -0.16316
7.87 -0.154328
7.88 -0.146013
7.89 -0.13825
7.9 -0.131066
7.91 -0.124479
7.92 -0.118502
7.93 -0.113194
7.94 -0.108515
7.95 -0.10444
7.96 -0.100959
7.97 -0.0980542
7.98 -0.0957073
7.99 -0.0939091
8 -0.0926652
8.01 -0.0919004
8.02 -0.0915864
8.03 -0.0916937
8.04 -0.0921921
8.05 -0.093051
8.06 -0.0942628
8.07 -0.0957794
8.08 -0.0975582
8.09 -0.0995698
8.1 -0.101786
8.11 -0.10418
8.12 -0.10673
8.13 -0.10942
8.14 -0.112217
8.15 -0.115102
8.16 -0.118062
8.17 -0.121082
8.18 -0.124153
8.19 -0.127269
8.2 -0.13042
8.21 -0.133598
8.22 -0.136794
8.23 -0.140002
8.24 -0.14321
8.25 -0.146406
8.26 -0.149564
8.27 -0.152663
8.28 -0.155672
8.29 -0.158555
8.3 -0.161268
8.31 -0.163759
8.32 -0.165952
8.33 -0.167768
8.34 -0.169152
8.35 -0.170027
8.36 -0.170312
8.37 -0.169924
8.38 -0.16878
8.39 -0.1667
8.4 -0.163684
8.41 -0.15967
8.42 -0.154598
8.43 -0.148419
8.44 -0.141096
8.45 -0.132552
8.46 -0.122749
8.47 -0.111784
8.48 -0.099685
8.49 -0.0864961
8.5 -0.0722765
8.51 -0.0570996
8.52 -0.0409749
8.53 -0.02408
8.54 -0.00653661
8.55 0.0115448
8.56 0.030052
8.57 0.0488735
8.58 0.0679046
8.59 0.0870357
8.6 0.106161
8.61 0.1252
8.62 0.144085
8.63 0.162764
8.64 0.181195
8.65 0.199326
8.66 0.217159
8.67 0.234704
8.68 0.25197
8.69 0.268974
8.7 0.285737
8.71 0.302278
8.72 0.318607
8.73 0.334759
8.74 0.350743
8.75 0.366556
8.76 0.382183
8.77 0.397595
8.78 0.412724
8.79 0.427507
8.8 0.441875
8.81 0.455733
8.82 0.468971
8.83 0.481471
8.84 0.49309
8.85 0.503585
8.86 0.512912
8.87 0.520937
8.88 0.52753
8.89 0.532572
8.9 0.535957
8.91 0.537476
8.92 0.537071
8.93 0.534788
8.94 0.530604
8.95 0.524521
8.96 0.51656
8.97 0.506766
8.98 0.495014
8.99 0.481606
9 0.46665
9.01 0.450267
9.02 0.432586
9.03 0.413747
9.04 0.393841
9.05 0.373021
9.06 0.351486
9.07 0.329363
9.08 0.306772
9.09 0.283819
9.1 0.260601
9.11 0.237189
9.12 0.213676
9.13 0.19012
9.14 0.166566
9.15 0.143052
9.16 0.119611
9.17 0.0962758
9.18 0.0730829
9.19 0.0500553
9.2 0.0272293
9.21 0.00464897
9.22 -0.0176324
9.23 -0.0395502
9.24 -0.0609775
9.25 -0.0818461
9.26 -0.102062
9.27 -0.121511
9.28 -0.14007
9.29 -0.15761
9.3 -0.173956
9.31 -0.188887
9.32 -0.202375
9.33 -0.214296
9.34 -0.224539
9.35 -0.233007
9.36 -0.23962
9.37 -0.244151
9.38 -0.246662
9.39 -0.247207
9.4 -0.245804
9.41 -0.242493
9.42 -0.237339
9.43 -0.230396
9.44 -0.221663
9.45 -0.211439
9.46 -0.199864
9.47 -0.187094
9.48 -0.173287
9.49 -0.158605
9.5 -0.143167
9.51 -0.12717
9.52 -0.110788
9.53 -0.0941527
9.54 -0.0773811
9.55 -0.0605757
9.56 -0.0438231
9.57 -0.0272105
9.58 -0.0107789
9.59 0.00543777
9.6 0.0214184
9.61 0.0371522
9.62 0.0526361
9.63 0.0678567
9.64 0.0828199
9.65 0.0975407
9.66 0.112016
9.67 0.126234
9.68 0.140176
9.69 0.15381
9.7 0.167047
9.71 0.179865
9.72 0.192194
9.73 0.203953
9.74 0.215054
9.75 0.225402
9.76 0.234846
9.77 0.24326
9.78 0.250603
9.79 0.256787
9.8 0.261732
9.81 0.265372
9.82 0.267657
9.83 0.26841
9.84 0.267749
9.85 0.265708
9.86 0.262325
9.87 0.257658
9.88 0.251787
9.89 0.244769
9.9 0.236702
9.91 0.2278
9.92 0.218202
9.93 0.208052
9.94 0.197498
9.95 0.186683
9.96 0.175745
9.97 0.164835
9.98 0.154065
9.99 0.143532
10 0.133312
10.01 0.123462
10.02 0.114033
10.03 0.105068
10.04 0.0965226
10.05 0.0883738
10.06 0.0805821
10.07 0.0730957
10.08 0.0658531
10.09 0.0587944
10.1 0.0518305
10.11 0.0448852
10.12 0.037892
10.13 0.0307918
10.14 0.0235352
10.15 0.0160803
10.16 0.00838401
10.17 0.000460442
10.18 -0.00768127
10.19 -0.0160175
10.2 -0.0245108
10.21 -0.0331118
10.22 -0.0417589
10.23 -0.0503719
10.24 -0.0588744
10.25 -0.0671896
10.26 -0.0752413
10.27 -0.0829567
10.28 -0.0902659
10.29 -0.0970569
10.3 -0.103331
10.31 -0.109054
10.32 -0.114208
10.33 -0.118787
10.34 -0.122799
10.35 -0.126234
10.36 -0.129136
10.37 -0.131583
10.38 -0.133631
10.39 -0.135346
10.4 -0.136794
10.41 -0.138047
10.42 -0.139171
10.43 -0.140253
10.44 -0.141359
10.45 -0.142545
10.46 -0.143863
10.47 -0.145352
10.48 -0.147056
10.49 -0.149003
10.5 -0.151188
10.51 -0.15361
10.52 -0.156261
10.53 -0.159125
10.54 -0.162178
10.55 -0.165407
10.56 -0.168761
10.57 -0.172204
10.58 -0.175702
10.59 -0.179222
10.6 -0.182732
10.61 -0.186202
10.62 -0.189601
10.63 -0.192913
10.64 -0.196124
10.65 -0.199223
10.66 -0.202205
10.67 -0.205067
10.68 -0.2078
10.69 -0.210415
10.7 -0.21292
10.71 -0.215323
10.72 -0.217628
10.73 -0.219843
10.74 -0.22197
10.75 -0.224006
10.76 -0.225962
10.77 -0.227835
10.78 -0.229625
10.79 -0.231328
10.8 -0.232938
10.81 -0.234445
10.82 -0.235845
10.83 -0.23714
10.84 -0.238328
10.85 -0.239407
10.86 -0.240382
10.87 -0.241254
10.88 -0.242026
10.89 -0.242718
10.9 -0.243345
10.91 -0.243922
10.92 -0.244467
10.93 -0.244996
10.94 -0.245531
10.95 -0.246088
10.96 -0.246682
10.97 -0.247323
10.98 -0.248016
10.99 -0.248763
11 -0.249558
11.01 -0.250391
11.02 -0.251237
11.03 -0.252068
11.04 -0.252853
11.05 -0.25355
11.06 -0.254116
11.07 -0.254488
11.08 -0.254605
11.09 -0.254424
11.1 -0.253892
11.11 -0.252956
11.12 -0.251567
11.13 -0.24968
11.14 -0.247196
11.15 -0.244136
11.16 -0.240484
11.17 -0.23623
11.18 -0.231372
11.19 -0.22592
11.2 -0.219867
11.21 -0.213234
11.22 -0.206101
11.23 -0.198516
11.24 -0.190533
11.25 -0.182212
11.26 -0.173615
11.27 -0.164793
11.28 -0.155838
11.29 -0.146815
11.3 -0.137789
11.31 -0.128814
11.32 -0.119944
11.33 -0.111231
11.34 -0.102725
11.35 -0.094444
11.36 -0.0864066
11.37 -0.0786256
11.38 -0.0711052
11.39 -0.0638422
11.4 -0.0568464
11.41 -0.0500832
11.42 -0.0435214
11.43 -0.0371325
11.44 -0.0308843
11.45 -0.0247416
11.46 -0.0186679
11.47 -0.0126218
11.48 -0.00655856
11.49 -0.000439752
11.5 0.00577238
11.51 0.0121142
11.52 0.0186205
11.53 0.0253417
11.54 0.0323045
11.55 0.0395284
11.56 0.047038
11.57 0.0548551
11.58 0.0629985
11.59 0.0714885
11.6 0.08037
11.61 0.0896144
11.62 0.0992245
11.63 0.109199
11.64 0.11953
11.65 0.130207
11.66 0.141231
11.67 0.15257
11.68 0.164175
11.69 0.176009
11.7 0.188027
11.71 0.200179
11.72 0.212408
11.73 0.224648
11.74 0.236822
11.75 0.248859
11.76 0.260685
11.77 0.272226
11.78 0.283404
11.79 0.294116
11.8 0.304276
11.81 0.313842
11.82 0.322753
11.83 0.330952
11.84 0.338389
11.85 0.345024
11.86 0.350731
11.87 0.355569
11.88 0.359533
11.89 0.36262
11.9 0.364837
11.91 0.366195
11.92 0.36668
11.93 0.366297
11.94 0.365137
11.95 0.363235
11.96 0.360623
11.97 0.357338
11.98 0.353411
11.99 0.348817
12 0.343631
12.01 0.337888
12.02 0.331606
12.03 0.324795
12.04 0.317466
12.05 0.309604
12.06 0.301186
12.07 0.292252
12.08 0.282802
12.09 0.272836
12.1 0.262356
12.11 0.251368
12.12 0.239843
12.13 0.227832
12.14 0.215379
12.15 0.202524
12.16 0.189316
12.17 0.175814
12.18 0.162083
12.19 0.148204
12.2 0.134285
12.21 0.120421
12.22 0.106715
