# xPDFsuite Configuration #
[PDF]
wavelength = 0.1
dataformat = QA
inputfile = BiMsol6_insitu_700 C-00602.xy
backgroundfile = Quartz2mm-dist500-00000.xy
mode = xray
bgscale = 0.0042
composition = Bi2Fe4O9
outputtype = gr
qmaxinst = 24.998449118
qmin = 0.1
qmax = 21.4986662415
rmax = 80.0
rmin = 0.0
rstep = 0.01
rpoly = 0.9

[Misc]
inputdir = C:/Data/Seafile/CPH/Beamtime/Desy Oct 20/In situ data/Processed/BiMsol6/PDF
savedir = C:/Data/Seafile/CPH/Beamtime/Desy Oct 20/In situ data/PDF/BiMsol6
backgroundfilefull = C:/Data/Seafile/CPH/Beamtime/Desy Oct 20/In situ data/Processed/Standard_Empty_Cap/Quartz2mm-dist500-00000.xy

#### start data
#S 1
#L r($\AA$)  G($\AA^{-2}$)
0 0
0.01 0.00586011
0.02 0.011382
0.03 0.0162763
0.04 0.0202839
0.05 0.0231879
0.06 0.0248236
0.07 0.0250121
0.08 0.0237039
0.09 0.0210361
0.1 0.0171227
0.11 0.0121386
0.12 0.00631192
0.13 -8.65798e-05
0.14 -0.00674996
0.15 -0.013301
0.16 -0.0194205
0.17 -0.0248105
0.18 -0.0292054
0.19 -0.0323859
0.2 -0.0341278
0.21 -0.0342835
0.22 -0.0329561
0.23 -0.030219
0.24 -0.0262194
0.25 -0.0211737
0.26 -0.0153583
0.27 -0.00909265
0.28 -0.00281621
0.29 0.00307952
0.3 0.00821571
0.31 0.0122353
0.32 0.0148209
0.33 0.0156531
0.34 0.0144237
0.35 0.0112033
0.36 0.00600849
0.37 -0.00104374
0.38 -0.00973518
0.39 -0.0197499
0.4 -0.0307166
0.41 -0.0420306
0.42 -0.0531016
0.43 -0.0633297
0.44 -0.0720987
0.45 -0.078799
0.46 -0.082788
0.47 -0.0832372
0.48 -0.0799938
0.49 -0.0727409
0.5 -0.0612825
0.51 -0.0455568
0.52 -0.0256448
0.53 -0.0015153
0.54 0.0262684
0.55 0.056981
0.56 0.089947
0.57 0.124384
0.58 0.159424
0.59 0.194128
0.6 0.227286
0.61 0.257994
0.62 0.285328
0.63 0.308428
0.64 0.326528
0.65 0.338978
0.66 0.344868
0.67 0.343858
0.68 0.336161
0.69 0.321824
0.7 0.301071
0.71 0.274301
0.72 0.242071
0.73 0.204636
0.74 0.163455
0.75 0.119489
0.76 0.0737481
0.77 0.0272735
0.78 -0.0188927
0.79 -0.0636215
0.8 -0.105795
0.81 -0.14468
0.82 -0.179561
0.83 -0.209861
0.84 -0.235156
0.85 -0.255181
0.86 -0.269286
0.87 -0.278055
0.88 -0.281818
0.89 -0.280975
0.9 -0.276043
0.91 -0.267642
0.92 -0.256386
0.93 -0.243055
0.94 -0.228623
0.95 -0.213848
0.96 -0.199453
0.97 -0.186099
0.98 -0.174371
0.99 -0.164987
1 -0.158206
1.01 -0.154203
1.02 -0.153085
1.03 -0.154842
1.04 -0.15935
1.05 -0.166447
1.06 -0.175901
1.07 -0.187088
1.08 -0.199561
1.09 -0.212843
1.1 -0.226448
1.11 -0.239906
1.12 -0.252692
1.13 -0.264398
1.14 -0.27473
1.15 -0.283449
1.16 -0.290391
1.17 -0.295479
1.18 -0.298684
1.19 -0.299962
1.2 -0.299665
1.21 -0.298021
1.22 -0.295299
1.23 -0.291798
1.24 -0.287835
1.25 -0.283734
1.26 -0.279835
1.27 -0.276404
1.28 -0.273655
1.29 -0.271752
1.3 -0.270798
1.31 -0.270841
1.32 -0.27195
1.33 -0.273919
1.34 -0.276594
1.35 -0.279781
1.36 -0.283249
1.37 -0.286747
1.38 -0.289981
1.39 -0.292656
1.4 -0.294553
1.41 -0.295469
1.42 -0.295246
1.43 -0.293775
1.44 -0.291004
1.45 -0.286807
1.46 -0.281412
1.47 -0.274973
1.48 -0.267688
1.49 -0.259802
1.5 -0.251595
1.51 -0.243386
1.52 -0.23554
1.53 -0.228364
1.54 -0.222142
1.55 -0.21713
1.56 -0.213536
1.57 -0.211512
1.58 -0.211321
1.59 -0.212834
1.6 -0.215957
1.61 -0.220553
1.62 -0.226421
1.63 -0.233298
1.64 -0.240885
1.65 -0.248793
1.66 -0.25659
1.67 -0.263887
1.68 -0.270301
1.69 -0.275471
1.7 -0.27907
1.71 -0.280633
1.72 -0.280039
1.73 -0.277205
1.74 -0.27207
1.75 -0.26465
1.76 -0.255037
1.77 -0.243348
1.78 -0.229735
1.79 -0.214683
1.8 -0.198539
1.81 -0.181678
1.82 -0.164494
1.83 -0.147384
1.84 -0.130797
1.85 -0.115112
1.86 -0.100617
1.87 -0.0875631
1.88 -0.076143
1.89 -0.0664812
1.9 -0.0586588
1.91 -0.0528065
1.92 -0.048636
1.93 -0.0459841
1.94 -0.0446356
1.95 -0.044333
1.96 -0.0447884
1.97 -0.0457056
1.98 -0.0467242
1.99 -0.0475317
2 -0.047863
2.01 -0.0474923
2.02 -0.046243
2.03 -0.0439921
2.04 -0.0405692
2.05 -0.0361191
2.06 -0.0307375
2.07 -0.0245832
2.08 -0.0178729
2.09 -0.0108726
2.1 -0.00390885
2.11 0.00262884
2.12 0.0083945
2.13 0.0130412
2.14 0.0162385
2.15 0.0176859
2.16 0.0171241
2.17 0.0140879
2.18 0.00865677
2.19 0.000789625
2.2 -0.00949907
2.21 -0.0221221
2.22 -0.0369214
2.23 -0.0537481
2.24 -0.0723128
2.25 -0.0921335
2.26 -0.11283
2.27 -0.133998
2.28 -0.155225
2.29 -0.176102
2.3 -0.196126
2.31 -0.214962
2.32 -0.232314
2.33 -0.247928
2.34 -0.261609
2.35 -0.273225
2.36 -0.282641
2.37 -0.28977
2.38 -0.294875
2.39 -0.298103
2.4 -0.299652
2.41 -0.299761
2.42 -0.298706
2.43 -0.296733
2.44 -0.294235
2.45 -0.29154
2.46 -0.288935
2.47 -0.286682
2.48 -0.285009
2.49 -0.284126
2.5 -0.284252
2.51 -0.285391
2.52 -0.287574
2.53 -0.29078
2.54 -0.294945
2.55 -0.299965
2.56 -0.305741
2.57 -0.312054
2.58 -0.318688
2.59 -0.325445
2.6 -0.33213
2.61 -0.338556
2.62 -0.344543
2.63 -0.349877
2.64 -0.354493
2.65 -0.358312
2.66 -0.361289
2.67 -0.363414
2.68 -0.364708
2.69 -0.365179
2.7 -0.36493
2.71 -0.364107
2.72 -0.362827
2.73 -0.361215
2.74 -0.359398
2.75 -0.357496
2.76 -0.355631
2.77 -0.3539
2.78 -0.352367
2.79 -0.351076
2.8 -0.350043
2.81 -0.349259
2.82 -0.3487
2.83 -0.348303
2.84 -0.347975
2.85 -0.347627
2.86 -0.34716
2.87 -0.346474
2.88 -0.345472
2.89 -0.344011
2.9 -0.342051
2.91 -0.33954
2.92 -0.336445
2.93 -0.332755
2.94 -0.32848
2.95 -0.323632
2.96 -0.31826
2.97 -0.312476
2.98 -0.306366
2.99 -0.30002
3 -0.293529
3.01 -0.28698
3.02 -0.280451
3.03 -0.274002
3.04 -0.267656
3.05 -0.261414
3.06 -0.255242
3.07 -0.249074
3.08 -0.242806
3.09 -0.236273
3.1 -0.229319
3.11 -0.221754
3.12 -0.213369
3.13 -0.203948
3.14 -0.193267
3.15 -0.180966
3.16 -0.166899
3.17 -0.150937
3.18 -0.132941
3.19 -0.112807
3.2 -0.090478
3.21 -0.0659013
3.22 -0.0389741
3.23 -0.0100248
3.24 0.0207753
3.25 0.0532028
3.26 0.0869861
3.27 0.121811
3.28 0.15735
3.29 0.193148
3.3 0.22878
3.31 0.263841
3.32 0.297932
3.33 0.330667
3.34 0.361663
3.35 0.390357
3.36 0.41666
3.37 0.440343
3.38 0.461227
3.39 0.479187
3.4 0.494154
3.41 0.505927
3.42 0.514581
3.43 0.520379
3.44 0.523459
3.45 0.523997
3.46 0.522193
3.47 0.518271
3.48 0.512274
3.49 0.504679
3.5 0.495721
3.51 0.485624
3.52 0.474592
3.53 0.462809
3.54 0.450412
3.55 0.437543
3.56 0.424339
3.57 0.410872
3.58 0.397192
3.59 0.383329
3.6 0.369295
3.61 0.355074
3.62 0.340674
3.63 0.326093
3.64 0.311329
3.65 0.29639
3.66 0.2813
3.67 0.266096
3.68 0.250845
3.69 0.23564
3.7 0.220587
3.71 0.20581
3.72 0.191452
3.73 0.17767
3.74 0.164716
3.75 0.152734
3.76 0.141879
3.77 0.13232
3.78 0.124217
3.79 0.117713
3.8 0.112986
3.81 0.110253
3.82 0.10943
3.83 0.110553
3.84 0.113632
3.85 0.118643
3.86 0.125535
3.87 0.134371
3.88 0.144942
3.89 0.157057
3.9 0.170568
3.91 0.185316
3.92 0.201134
3.93 0.217864
3.94 0.235372
3.95 0.253409
3.96 0.271817
3.97 0.290453
3.98 0.309185
3.99 0.327894
4 0.346461
4.01 0.364789
4.02 0.382811
4.03 0.400465
4.04 0.417696
4.05 0.434457
4.06 0.4507
4.07 0.46632
4.08 0.481328
4.09 0.495675
4.1 0.509306
4.11 0.522159
4.12 0.534163
4.13 0.545179
4.14 0.555112
4.15 0.563922
4.16 0.571515
4.17 0.577795
4.18 0.582666
4.19 0.586038
4.2 0.587641
4.21 0.587572
4.22 0.585781
4.23 0.58223
4.24 0.576898
4.25 0.569784
4.26 0.560821
4.27 0.550026
4.28 0.537581
4.29 0.523567
4.3 0.50808
4.31 0.491229
4.32 0.473135
4.33 0.453821
4.34 0.433528
4.35 0.412402
4.36 0.390566
4.37 0.368137
4.38 0.345221
4.39 0.321901
4.4 0.298256
4.41 0.274378
4.42 0.250316
4.43 0.226106
4.44 0.201771
4.45 0.177325
4.46 0.152764
4.47 0.128095
4.48 0.10332
4.49 0.078439
4.5 0.0534575
4.51 0.0283888
4.52 0.00325505
4.53 -0.0219041
4.54 -0.0470313
4.55 -0.0720604
4.56 -0.0969116
4.57 -0.121492
4.58 -0.145697
4.59 -0.169364
4.6 -0.192377
4.61 -0.21463
4.62 -0.236
4.63 -0.256369
4.64 -0.275625
4.65 -0.29365
4.66 -0.310242
4.67 -0.325464
4.68 -0.339277
4.69 -0.351664
4.7 -0.362632
4.71 -0.372209
4.72 -0.38036
4.73 -0.387201
4.74 -0.392893
4.75 -0.397547
4.76 -0.401289
4.77 -0.404253
4.78 -0.406574
4.79 -0.408354
4.8 -0.409797
4.81 -0.411028
4.82 -0.412163
4.83 -0.413305
4.84 -0.414538
4.85 -0.415941
4.86 -0.417569
4.87 -0.419435
4.88 -0.421543
4.89 -0.423882
4.9 -0.426422
4.91 -0.429119
4.92 -0.431924
4.93 -0.434754
4.94 -0.437537
4.95 -0.4402
4.96 -0.442667
4.97 -0.444868
4.98 -0.446718
4.99 -0.448139
5 -0.449106
5.01 -0.449579
5.02 -0.449524
5.03 -0.448921
5.04 -0.447755
5.05 -0.445966
5.06 -0.443602
5.07 -0.440682
5.08 -0.43722
5.09 -0.433229
5.1 -0.428726
5.11 -0.423711
5.12 -0.418181
5.13 -0.412188
5.14 -0.405746
5.15 -0.398866
5.16 -0.391557
5.17 -0.383828
5.18 -0.375654
5.19 -0.367072
5.2 -0.358109
5.21 -0.348783
5.22 -0.33912
5.23 -0.329151
5.24 -0.318909
5.25 -0.308432
5.26 -0.297801
5.27 -0.287081
5.28 -0.276343
5.29 -0.265665
5.3 -0.255129
5.31 -0.244844
5.32 -0.234899
5.33 -0.225366
5.34 -0.216326
5.35 -0.207849
5.36 -0.199999
5.37 -0.192837
5.38 -0.186471
5.39 -0.180849
5.4 -0.175977
5.41 -0.171846
5.42 -0.168431
5.43 -0.165692
5.44 -0.163614
5.45 -0.162111
5.46 -0.161079
5.47 -0.160435
5.48 -0.160094
5.49 -0.159971
5.5 -0.159983
5.51 -0.160049
5.52 -0.160087
5.53 -0.160038
5.54 -0.159852
5.55 -0.159496
5.56 -0.158943
5.57 -0.158172
5.58 -0.157183
5.59 -0.156001
5.6 -0.154647
5.61 -0.153146
5.62 -0.151527
5.63 -0.149819
5.64 -0.148043
5.65 -0.146227
5.66 -0.144383
5.67 -0.142509
5.68 -0.140594
5.69 -0.138612
5.7 -0.136516
5.71 -0.13424
5.72 -0.131724
5.73 -0.128889
5.74 -0.125649
5.75 -0.121911
5.76 -0.117583
5.77 -0.112495
5.78 -0.106606
5.79 -0.0998533
5.8 -0.0921763
5.81 -0.0835298
5.82 -0.0738882
5.83 -0.0632151
5.84 -0.0514858
5.85 -0.0388338
5.86 -0.0253323
5.87 -0.0110772
5.88 0.0038154
5.89 0.0192113
5.9 0.0349781
5.91 0.0509154
5.92 0.0668463
5.93 0.0826036
5.94 0.0980246
5.95 0.112956
5.96 0.12724
5.97 0.140685
5.98 0.153257
5.99 0.164885
6 0.175522
6.01 0.185147
6.02 0.193768
6.03 0.201348
6.04 0.207983
6.05 0.213797
6.06 0.218885
6.07 0.223357
6.08 0.227327
6.09 0.230913
6.1 0.234218
6.11 0.237387
6.12 0.240513
6.13 0.243673
6.14 0.246924
6.15 0.250302
6.16 0.253824
6.17 0.257471
6.18 0.26119
6.19 0.264913
6.2 0.268553
6.21 0.272004
6.22 0.275148
6.23 0.277786
6.24 0.279824
6.25 0.281127
6.26 0.281565
6.27 0.281021
6.28 0.27939
6.29 0.276521
6.3 0.272326
6.31 0.266849
6.32 0.26008
6.33 0.252036
6.34 0.242759
6.35 0.232316
6.36 0.220692
6.37 0.208113
6.38 0.19472
6.39 0.18065
6.4 0.166052
6.41 0.151075
6.42 0.135861
6.43 0.120569
6.44 0.105342
6.45 0.0902963
6.46 0.0755276
6.47 0.0611151
6.48 0.0471176
6.49 0.0336174
6.5 0.0205974
6.51 0.0080398
6.52 -0.00408047
6.53 -0.0158037
6.54 -0.0271825
6.55 -0.0382726
6.56 -0.0491397
6.57 -0.0598776
6.58 -0.0705547
6.59 -0.0812339
6.6 -0.09197
6.61 -0.102807
6.62 -0.113788
6.63 -0.124923
6.64 -0.136203
6.65 -0.147607
6.66 -0.159102
6.67 -0.170636
6.68 -0.182144
6.69 -0.19353
6.7 -0.20471
6.71 -0.21559
6.72 -0.226073
6.73 -0.236057
6.74 -0.245445
6.75 -0.254084
6.76 -0.261893
6.77 -0.268823
6.78 -0.274805
6.79 -0.279779
6.8 -0.283696
6.81 -0.286509
6.82 -0.288078
6.83 -0.28851
6.84 -0.287801
6.85 -0.285956
6.86 -0.282988
6.87 -0.278912
6.88 -0.273687
6.89 -0.267346
6.9 -0.259974
6.91 -0.251597
6.92 -0.242238
6.93 -0.231918
6.94 -0.220658
6.95 -0.208368
6.96 -0.195166
6.97 -0.181065
6.98 -0.166075
6.99 -0.150202
7 -0.133455
7.01 -0.115799
7.02 -0.0972338
7.03 -0.0778314
7.04 -0.0576115
7.05 -0.0365992
7.06 -0.0148255
7.07 0.00767161
7.08 0.0309113
7.09 0.0547731
7.1 0.079185
7.11 0.104077
7.12 0.129372
7.13 0.154987
7.14 0.180837
7.15 0.206818
7.16 0.232815
7.17 0.258724
7.18 0.28444
7.19 0.309858
7.2 0.334872
7.21 0.359319
7.22 0.383117
7.23 0.406179
7.24 0.428406
7.25 0.449703
7.26 0.469981
7.27 0.489118
7.28 0.506951
7.29 0.523504
7.3 0.538705
7.31 0.55249
7.32 0.564799
7.33 0.575577
7.34 0.584644
7.35 0.592023
7.36 0.597736
7.37 0.601754
7.38 0.604055
7.39 0.604623
7.4 0.603418
7.41 0.600296
7.42 0.595436
7.43 0.588855
7.44 0.580574
7.45 0.570622
7.46 0.559037
7.47 0.545755
7.48 0.530875
7.49 0.51453
7.5 0.49679
7.51 0.477729
7.52 0.457428
7.53 0.435968
7.54 0.413342
7.55 0.389777
7.56 0.365378
7.57 0.340253
7.58 0.314517
7.59 0.288287
7.6 0.261671
7.61 0.234811
7.62 0.207856
7.63 0.180936
7.64 0.15418
7.65 0.127719
7.66 0.101684
7.67 0.0762805
7.68 0.0515894
7.69 0.0277307
7.7 0.00482298
7.71 -0.017021
7.72 -0.0376959
7.73 -0.05704
7.74 -0.0749263
7.75 -0.0913716
7.76 -0.106317
7.77 -0.119718
7.78 -0.131545
7.79 -0.141784
7.8 -0.150281
7.81 -0.157194
7.82 -0.16259
7.83 -0.166525
7.84 -0.169073
7.85 -0.170318
7.86 -0.17032
7.87 -0.169156
7.88 -0.167041
7.89 -0.1641
7.9 -0.160461
7.91 -0.15625
7.92 -0.151594
7.93 -0.146594
7.94 -0.141395
7.95 -0.136104
7.96 -0.130809
7.97 -0.125583
7.98 -0.120485
7.99 -0.115565
8 -0.110863
8.01 -0.106372
8.02 -0.102086
8.03 -0.0979873
8.04 -0.0940465
8.05 -0.0902257
8.06 -0.0864829
8.07 -0.0827609
8.08 -0.0790083
8.09 -0.075179
8.1 -0.071232
8.11 -0.0671331
8.12 -0.0628548
8.13 -0.0583656
8.14 -0.0536851
8.15 -0.048827
8.16 -0.0438171
8.17 -0.0386936
8.18 -0.033505
8.19 -0.0283136
8.2 -0.0231954
8.21 -0.0182217
8.22 -0.0134655
8.23 -0.008999
8.24 -0.00489044
8.25 -0.00120347
8.26 0.00195161
8.27 0.00458526
8.28 0.00667211
8.29 0.00820124
8.3 0.00917687
8.31 0.00961845
8.32 0.00953488
8.33 0.00898169
8.34 0.00805208
8.35 0.00681875
8.36 0.00536132
8.37 0.00376349
8.38 0.00211005
8.39 0.000495332
8.4 -0.000999533
8.41 -0.00230807
8.42 -0.00337498
8.43 -0.00415854
8.44 -0.00463232
8.45 -0.00477215
8.46 -0.00458041
8.47 -0.00410877
8.48 -0.00340184
8.49 -0.00251882
8.5 -0.00153145
8.51 -0.000521722
8.52 0.000405002
8.53 0.0011495
8.54 0.00161876
8.55 0.00172146
8.56 0.00137252
8.57 0.000496031
8.58 -0.0009943
8.59 -0.00318478
8.6 -0.00605566
8.61 -0.00962026
8.62 -0.0138748
8.63 -0.0187986
8.64 -0.0243552
8.65 -0.0305385
8.66 -0.0372419
8.67 -0.044372
8.68 -0.0518462
8.69 -0.0595781
8.7 -0.0674803
8.71 -0.0754679
8.72 -0.0834514
8.73 -0.0913542
8.74 -0.0991163
8.75 -0.106689
8.76 -0.114038
8.77 -0.121139
8.78 -0.127965
8.79 -0.134529
8.8 -0.140861
8.81 -0.146987
8.82 -0.15294
8.83 -0.15876
8.84 -0.164487
8.85 -0.170162
8.86 -0.175831
8.87 -0.181525
8.88 -0.187269
8.89 -0.193077
8.9 -0.198953
8.91 -0.204893
8.92 -0.210873
8.93 -0.216857
8.94 -0.222805
8.95 -0.228665
8.96 -0.234381
8.97 -0.239892
8.98 -0.245096
8.99 -0.249957
9 -0.254416
9.01 -0.258422
9.02 -0.26193
9.03 -0.264907
9.04 -0.2673
9.05 -0.269096
9.06 -0.270335
9.07 -0.271038
9.08 -0.271236
9.09 -0.270973
9.1 -0.270299
9.11 -0.269246
9.12 -0.267916
9.13 -0.266382
9.14 -0.26471
9.15 -0.262961
9.16 -0.261194
9.17 -0.259461
9.18 -0.257807
9.19 -0.256255
9.2 -0.254818
9.21 -0.253497
9.22 -0.252281
9.23 -0.251148
9.24 -0.250066
9.25 -0.248986
9.26 -0.24786
9.27 -0.246637
9.28 -0.245268
9.29 -0.243704
9.3 -0.241893
9.31 -0.239781
9.32 -0.237365
9.33 -0.234632
9.34 -0.231583
9.35 -0.228228
9.36 -0.224592
9.37 -0.220696
9.38 -0.216607
9.39 -0.212392
9.4 -0.208114
9.41 -0.203841
9.42 -0.199641
9.43 -0.195585
9.44 -0.191753
9.45 -0.188181
9.46 -0.184905
9.47 -0.181948
9.48 -0.179316
9.49 -0.177001
9.5 -0.174993
9.51 -0.173228
9.52 -0.171628
9.53 -0.170113
9.54 -0.168589
9.55 -0.16695
9.56 -0.165083
9.57 -0.162824
9.58 -0.160086
9.59 -0.156757
9.6 -0.152734
9.61 -0.147924
9.62 -0.142251
9.63 -0.13559
9.64 -0.127902
9.65 -0.119218
9.66 -0.109542
9.67 -0.0988938
9.68 -0.0873145
9.69 -0.0748626
9.7 -0.0615298
9.71 -0.0475045
9.72 -0.0328873
9.73 -0.0177833
9.74 -0.00230051
9.75 0.0134541
9.76 0.0293808
9.77 0.0453712
9.78 0.0613315
9.79 0.0771902
9.8 0.0928889
9.81 0.108384
9.82 0.123646
9.83 0.138633
9.84 0.153367
9.85 0.167865
9.86 0.182146
9.87 0.196238
9.88 0.210171
9.89 0.223974
9.9 0.237675
9.91 0.251307
9.92 0.264885
9.93 0.278414
9.94 0.291889
9.95 0.305289
9.96 0.31857
9.97 0.331685
9.98 0.344578
9.99 0.357177
10 0.369403
10.01 0.381169
10.02 0.392367
10.03 0.402857
10.04 0.412601
10.05 0.421518
10.06 0.429535
10.07 0.436593
10.08 0.442643
10.09 0.44757
10.1 0.451408
10.11 0.454204
10.12 0.455985
10.13 0.456796
10.14 0.456697
10.15 0.455751
10.16 0.454
10.17 0.451627
10.18 0.44874
10.19 0.445451
10.2 0.441872
10.21 0.438115
10.22 0.434285
10.23 0.430494
10.24 0.426828
10.25 0.423358
10.26 0.420141
10.27 0.417217
10.28 0.414615
10.29 0.41238
10.3 0.410467
10.31 0.408855
10.32 0.407509
10.33 0.406385
10.34 0.40543
10.35 0.404586
10.36 0.403778
10.37 0.402934
10.38 0.401986
10.39 0.400869
10.4 0.399519
10.41 0.397878
10.42 0.395848
10.43 0.393415
10.44 0.390539
10.45 0.387184
10.46 0.383323
10.47 0.378928
10.48 0.373953
10.49 0.368367
10.5 0.362193
10.51 0.355421
10.52 0.34804
10.53 0.340041
10.54 0.331414
10.55 0.322086
10.56 0.312105
10.57 0.301474
10.58 0.290189
10.59 0.278249
10.6 0.265655
10.61 0.252391
10.62 0.238443
10.63 0.223882
10.64 0.208735
10.65 0.193035
10.66 0.176824
10.67 0.160152
10.68 0.143045
10.69 0.125602
10.7 0.107905
10.71 0.090032
10.72 0.0720624
10.73 0.0540781
10.74 0.036165
10.75 0.0184223
10.76 0.000916605
10.77 -0.0162842
10.78 -0.0331204
10.79 -0.0495422
10.8 -0.0655105
10.81 -0.0809587
10.82 -0.0958928
10.83 -0.110333
10.84 -0.124292
10.85 -0.137796
10.86 -0.150882
10.87 -0.163588
10.88 -0.175948
10.89 -0.188056
10.9 -0.199974
10.91 -0.211762
10.92 -0.223478
10.93 -0.235176
10.94 -0.246908
10.95 -0.258715
10.96 -0.270621
10.97 -0.282639
10.98 -0.29477
10.99 -0.307002
11 -0.319311
11.01 -0.331659
11.02 -0.343987
11.03 -0.356235
11.04 -0.368336
11.05 -0.380214
11.06 -0.391793
11.07 -0.402966
11.08 -0.41364
11.09 -0.423762
11.1 -0.433261
11.11 -0.442071
11.12 -0.450135
11.13 -0.457404
11.14 -0.463742
11.15 -0.469205
11.16 -0.473782
11.17 -0.477464
11.18 -0.480252
11.19 -0.482155
11.2 -0.483149
11.21 -0.483237
11.22 -0.482507
11.23 -0.480987
11.24 -0.478706
11.25 -0.475694
11.26 -0.471979
11.27 -0.467523
11.28 -0.462407
11.29 -0.456662
11.3 -0.450306
11.31 -0.443353
11.32 -0.435814
11.33 -0.427678
11.34 -0.418928
11.35 -0.409617
11.36 -0.399753
11.37 -0.389344
11.38 -0.378401
11.39 -0.366937
11.4 -0.354925
11.41 -0.342419
11.42 -0.329458
11.43 -0.316071
11.44 -0.302293
11.45 -0.288158
11.46 -0.273702
11.47 -0.258953
11.48 -0.243985
11.49 -0.228844
11.5 -0.213576
11.51 -0.198227
11.52 -0.182842
11.53 -0.167466
11.54 -0.152147
11.55 -0.136921
11.56 -0.121824
11.57 -0.106888
11.58 -0.0921449
11.59 -0.077626
11.6 -0.0633844
11.61 -0.0494225
11.62 -0.0357656
11.63 -0.0224395
11.64 -0.00947007
11.65 0.00311563
11.66 0.0152605
11.67 0.0269372
11.68 0.0381368
11.69 0.0488286
11.7 0.0589819
11.71 0.0685671
11.72 0.0775546
11.73 0.0858462
11.74 0.0934906
11.75 0.100472
11.76 0.106783
11.77 0.112419
11.78 0.117388
11.79 0.121669
11.8 0.125286
11.81 0.128314
11.82 0.130796
11.83 0.132781
11.84 0.134328
11.85 0.135499
11.86 0.136332
11.87 0.136934
11.88 0.137373
11.89 0.137712
11.9 0.138007
11.91 0.138307
11.92 0.138655
11.93 0.13908
11.94 0.139589
11.95 0.140176
11.96 0.140819
11.97 0.141481
11.98 0.14211
11.99 0.142622
12 0.142933
12.01 0.142952
12.02 0.142578
12.03 0.141705
12.04 0.140224
12.05 0.138002
12.06 0.134881
12.07 0.13083
12.08 0.125769
12.09 0.119633
12.1 0.112371
12.11 0.103955
12.12 0.094273
12.13 0.0834055
12.14 0.0714257
12.15 0.0583912
12.16 0.0443783
12.17 0.029481
