# xPDFsuite Configuration #
[PDF]
wavelength = 0.1
dataformat = QA
inputfile = BiMsol6_insitu_700 C-00114.xy
backgroundfile = Quartz2mm-dist500-00000.xy
mode = xray
bgscale = 0.0042
composition = Bi2Fe4O9
outputtype = gr
qmaxinst = 24.998449118
qmin = 0.1
qmax = 21.4986662415
rmax = 80.0
rmin = 0.0
rstep = 0.01
rpoly = 0.9

[Misc]
inputdir = C:/Data/Seafile/CPH/Beamtime/Desy Oct 20/In situ data/Processed/BiMsol6/PDF
savedir = C:/Data/Seafile/CPH/Beamtime/Desy Oct 20/In situ data/PDF/BiMsol6
backgroundfilefull = C:/Data/Seafile/CPH/Beamtime/Desy Oct 20/In situ data/Processed/Standard_Empty_Cap/Quartz2mm-dist500-00000.xy

#### start data
#S 1
#L r($\AA$)  G($\AA^{-2}$)
0 0
0.01 0.00627906
0.02 0.0122063
0.03 0.0174806
0.04 0.0218317
0.05 0.0250327
0.06 0.0269104
0.07 0.0272753
0.08 0.0260717
0.09 0.0234385
0.1 0.0194896
0.11 0.0144021
0.12 0.00840858
0.13 0.00178651
0.14 -0.0051524
0.15 -0.0120144
0.16 -0.0184673
0.17 -0.0241993
0.18 -0.0289309
0.19 -0.0324278
0.2 -0.0344496
0.21 -0.0348312
0.22 -0.0336665
0.23 -0.0310184
0.24 -0.0270259
0.25 -0.0218994
0.26 -0.0159128
0.27 -0.00937698
0.28 -0.00274265
0.29 0.00358928
0.3 0.00922938
0.31 0.0138072
0.32 0.0169892
0.33 0.0184379
0.34 0.0178226
0.35 0.0151917
0.36 0.0105408
0.37 0.00396661
0.38 -0.00433146
0.39 -0.0140543
0.4 -0.0248553
0.41 -0.0361351
0.42 -0.0473053
0.43 -0.057767
0.44 -0.0669007
0.45 -0.0740886
0.46 -0.0786773
0.47 -0.0798258
0.48 -0.0773488
0.49 -0.0709046
0.5 -0.06027
0.51 -0.0453542
0.52 -0.0262093
0.53 -0.00276801
0.54 0.0244347
0.55 0.0546934
0.56 0.0873524
0.57 0.121644
0.58 0.15671
0.59 0.191614
0.6 0.225162
0.61 0.256418
0.62 0.284441
0.63 0.308347
0.64 0.32734
0.65 0.340738
0.66 0.347593
0.67 0.347517
0.68 0.340684
0.69 0.327102
0.7 0.306956
0.71 0.280611
0.72 0.248595
0.73 0.211112
0.74 0.169631
0.75 0.125107
0.76 0.0785518
0.77 0.0310189
0.78 -0.0164308
0.79 -0.0626486
0.8 -0.106478
0.81 -0.147128
0.82 -0.183836
0.83 -0.215974
0.84 -0.24306
0.85 -0.264778
0.86 -0.280401
0.87 -0.290471
0.88 -0.295278
0.89 -0.295181
0.9 -0.290666
0.91 -0.282331
0.92 -0.270763
0.93 -0.256723
0.94 -0.241223
0.95 -0.22504
0.96 -0.208923
0.97 -0.193569
0.98 -0.179604
0.99 -0.167781
1 -0.158431
1.01 -0.151789
1.02 -0.148017
1.03 -0.147158
1.04 -0.149142
1.05 -0.153858
1.06 -0.161134
1.07 -0.170367
1.08 -0.181136
1.09 -0.192985
1.1 -0.205439
1.11 -0.218031
1.12 -0.230256
1.13 -0.241678
1.14 -0.251978
1.15 -0.26089
1.16 -0.268227
1.17 -0.27388
1.18 -0.277792
1.19 -0.279891
1.2 -0.280489
1.21 -0.279781
1.22 -0.278013
1.23 -0.275462
1.24 -0.272423
1.25 -0.269202
1.26 -0.266129
1.27 -0.263461
1.28 -0.261411
1.29 -0.260138
1.3 -0.259747
1.31 -0.260286
1.32 -0.26182
1.33 -0.26415
1.34 -0.267126
1.35 -0.270553
1.36 -0.274199
1.37 -0.277809
1.38 -0.281084
1.39 -0.28372
1.4 -0.285499
1.41 -0.286212
1.42 -0.285695
1.43 -0.283836
1.44 -0.280581
1.45 -0.275795
1.46 -0.269722
1.47 -0.262524
1.48 -0.254416
1.49 -0.24566
1.5 -0.236558
1.51 -0.227456
1.52 -0.218758
1.53 -0.2108
1.54 -0.203905
1.55 -0.19836
1.56 -0.194409
1.57 -0.192237
1.58 -0.192159
1.59 -0.194048
1.6 -0.197821
1.61 -0.203347
1.62 -0.210419
1.63 -0.218764
1.64 -0.228067
1.65 -0.237908
1.66 -0.247794
1.67 -0.257282
1.68 -0.265931
1.69 -0.273317
1.7 -0.279046
1.71 -0.282563
1.72 -0.283684
1.73 -0.282268
1.74 -0.278199
1.75 -0.271444
1.76 -0.26206
1.77 -0.250127
1.78 -0.235754
1.79 -0.219478
1.8 -0.201664
1.81 -0.182727
1.82 -0.163108
1.83 -0.143267
1.84 -0.123712
1.85 -0.104926
1.86 -0.08729
1.87 -0.071146
1.88 -0.0567741
1.89 -0.0443832
1.9 -0.0341375
1.91 -0.0262744
1.92 -0.0205248
1.93 -0.0167623
1.94 -0.0147914
1.95 -0.0143571
1.96 -0.0151565
1.97 -0.0168869
1.98 -0.0191201
1.99 -0.0214533
2 -0.0235399
2.01 -0.0250631
2.02 -0.025748
2.03 -0.0253696
2.04 -0.023626
2.05 -0.0205749
2.06 -0.0162235
2.07 -0.0106533
2.08 -0.00401733
2.09 0.00346536
2.1 0.0115311
2.11 0.0198009
2.12 0.0278775
2.13 0.0353791
2.14 0.0419222
2.15 0.0471364
2.16 0.0506784
2.17 0.0520024
2.18 0.0510481
2.19 0.0476637
2.2 0.0417552
2.21 0.033305
2.22 0.022374
2.23 0.00900354
2.24 -0.00660971
2.25 -0.0240061
2.26 -0.0428375
2.27 -0.0627136
2.28 -0.0832143
2.29 -0.103904
2.3 -0.124278
2.31 -0.143889
2.32 -0.162355
2.33 -0.179333
2.34 -0.194529
2.35 -0.207713
2.36 -0.218646
2.37 -0.227124
2.38 -0.233332
2.39 -0.237342
2.4 -0.239293
2.41 -0.239381
2.42 -0.237856
2.43 -0.234917
2.44 -0.231001
2.45 -0.226483
2.46 -0.2217
2.47 -0.216978
2.48 -0.212619
2.49 -0.208918
2.5 -0.206189
2.51 -0.204537
2.52 -0.204078
2.53 -0.204874
2.54 -0.206928
2.55 -0.210193
2.56 -0.214646
2.57 -0.220083
2.58 -0.226273
2.59 -0.233007
2.6 -0.24006
2.61 -0.247199
2.62 -0.254191
2.63 -0.260759
2.64 -0.266732
2.65 -0.271947
2.66 -0.276275
2.67 -0.279623
2.68 -0.281939
2.69 -0.283144
2.7 -0.283284
2.71 -0.282484
2.72 -0.280842
2.73 -0.27848
2.74 -0.27554
2.75 -0.272172
2.76 -0.268518
2.77 -0.264772
2.78 -0.261073
2.79 -0.25754
2.8 -0.254272
2.81 -0.251341
2.82 -0.248812
2.83 -0.246702
2.84 -0.244964
2.85 -0.24355
2.86 -0.242387
2.87 -0.241383
2.88 -0.240431
2.89 -0.239394
2.9 -0.238145
2.91 -0.236567
2.92 -0.234551
2.93 -0.232001
2.94 -0.22884
2.95 -0.224979
2.96 -0.220364
2.97 -0.21504
2.98 -0.209032
2.99 -0.202385
3 -0.195166
3.01 -0.187459
3.02 -0.179337
3.03 -0.17095
3.04 -0.162418
3.05 -0.153853
3.06 -0.145359
3.07 -0.137029
3.08 -0.128951
3.09 -0.121203
3.1 -0.113796
3.11 -0.106739
3.12 -0.100018
3.13 -0.093594
3.14 -0.0874102
3.15 -0.0813954
3.16 -0.0754356
3.17 -0.0694201
3.18 -0.0632377
3.19 -0.0567757
3.2 -0.0499247
3.21 -0.0425703
3.22 -0.0345685
3.23 -0.0258974
3.24 -0.0165045
3.25 -0.00635734
3.26 0.00455565
3.27 0.0162251
3.28 0.0286715
3.29 0.0418152
3.3 0.0555567
3.31 0.0698161
3.32 0.0845042
3.33 0.0995274
3.34 0.114792
3.35 0.130209
3.36 0.14567
3.37 0.161102
3.38 0.176442
3.39 0.191642
3.4 0.206668
3.41 0.221488
3.42 0.236102
3.43 0.25053
3.44 0.264794
3.45 0.278922
3.46 0.292946
3.47 0.306899
3.48 0.320808
3.49 0.334703
3.5 0.348593
3.51 0.362476
3.52 0.376333
3.53 0.390129
3.54 0.403802
3.55 0.417265
3.56 0.430434
3.57 0.443202
3.58 0.455451
3.59 0.467052
3.6 0.477872
3.61 0.487666
3.62 0.496373
3.63 0.503881
3.64 0.510079
3.65 0.514872
3.66 0.518184
3.67 0.519897
3.68 0.519922
3.69 0.518379
3.7 0.515294
3.71 0.510718
3.72 0.504725
3.73 0.49741
3.74 0.488786
3.75 0.479083
3.76 0.468473
3.77 0.457102
3.78 0.44512
3.79 0.432677
3.8 0.419908
3.81 0.406952
3.82 0.393951
3.83 0.381007
3.84 0.368203
3.85 0.355605
3.86 0.343262
3.87 0.33123
3.88 0.319507
3.89 0.308078
3.9 0.296927
3.91 0.286026
3.92 0.275342
3.93 0.264839
3.94 0.254484
3.95 0.244222
3.96 0.23402
3.97 0.223849
3.98 0.21369
3.99 0.20353
4 0.193366
4.01 0.183206
4.02 0.173064
4.03 0.162964
4.04 0.152933
4.05 0.143002
4.06 0.133206
4.07 0.1236
4.08 0.114199
4.09 0.105031
4.1 0.0961169
4.11 0.0874736
4.12 0.0791091
4.13 0.0710414
4.14 0.0632612
4.15 0.0557379
4.16 0.0484513
4.17 0.0413764
4.18 0.0344857
4.19 0.0277502
4.2 0.0211526
4.21 0.0146512
4.22 0.00822442
4.23 0.00185721
4.24 -0.0044588
4.25 -0.0107243
4.26 -0.0169283
4.27 -0.0230507
4.28 -0.0290705
4.29 -0.0349565
4.3 -0.0406723
4.31 -0.0461783
4.32 -0.0514329
4.33 -0.0563616
4.34 -0.060948
4.35 -0.0651646
4.36 -0.0689863
4.37 -0.0723966
4.38 -0.0753894
4.39 -0.0779538
4.4 -0.0800933
4.41 -0.0818707
4.42 -0.0833268
4.43 -0.0845119
4.44 -0.0854842
4.45 -0.0863077
4.46 -0.0870496
4.47 -0.0877925
4.48 -0.0886053
4.49 -0.0895503
4.5 -0.0906828
4.51 -0.0920487
4.52 -0.0936903
4.53 -0.0956488
4.54 -0.0979032
4.55 -0.100443
4.56 -0.103243
4.57 -0.106265
4.58 -0.109457
4.59 -0.112762
4.6 -0.116093
4.61 -0.119371
4.62 -0.122515
4.63 -0.125448
4.64 -0.128093
4.65 -0.130375
4.66 -0.132194
4.67 -0.13354
4.68 -0.134383
4.69 -0.134707
4.7 -0.134511
4.71 -0.133809
4.72 -0.132603
4.73 -0.130956
4.74 -0.128952
4.75 -0.126662
4.76 -0.124166
4.77 -0.121549
4.78 -0.118897
4.79 -0.116314
4.8 -0.113884
4.81 -0.111683
4.82 -0.109779
4.83 -0.108227
4.84 -0.107074
4.85 -0.106375
4.86 -0.106149
4.87 -0.106373
4.88 -0.107033
4.89 -0.108104
4.9 -0.109552
4.91 -0.111335
4.92 -0.113426
4.93 -0.115736
4.94 -0.118206
4.95 -0.120779
4.96 -0.123401
4.97 -0.126022
4.98 -0.128592
4.99 -0.131067
5 -0.133422
5.01 -0.135636
5.02 -0.137695
5.03 -0.139595
5.04 -0.141333
5.05 -0.142902
5.06 -0.144325
5.07 -0.145616
5.08 -0.14679
5.09 -0.147859
5.1 -0.148834
5.11 -0.14972
5.12 -0.15052
5.13 -0.151239
5.14 -0.151873
5.15 -0.152415
5.16 -0.152852
5.17 -0.153169
5.18 -0.153337
5.19 -0.153346
5.2 -0.153184
5.21 -0.152837
5.22 -0.152297
5.23 -0.151558
5.24 -0.150617
5.25 -0.14947
5.26 -0.14815
5.27 -0.14668
5.28 -0.145086
5.29 -0.143404
5.3 -0.14167
5.31 -0.139926
5.32 -0.13822
5.33 -0.136592
5.34 -0.135078
5.35 -0.133712
5.36 -0.132517
5.37 -0.131514
5.38 -0.130728
5.39 -0.130133
5.4 -0.129713
5.41 -0.129441
5.42 -0.12928
5.43 -0.129183
5.44 -0.129093
5.45 -0.12894
5.46 -0.128661
5.47 -0.12819
5.48 -0.127467
5.49 -0.126434
5.5 -0.12504
5.51 -0.123195
5.52 -0.120918
5.53 -0.118198
5.54 -0.115037
5.55 -0.111455
5.56 -0.107484
5.57 -0.103159
5.58 -0.0985492
5.59 -0.0937504
5.6 -0.0888453
5.61 -0.0839219
5.62 -0.0790701
5.63 -0.0743783
5.64 -0.0699651
5.65 -0.0658875
5.66 -0.0622043
5.67 -0.0589621
5.68 -0.0561909
5.69 -0.0539027
5.7 -0.0521106
5.71 -0.0507951
5.72 -0.0498727
5.73 -0.0492776
5.74 -0.0489299
5.75 -0.0487381
5.76 -0.0486023
5.77 -0.0484026
5.78 -0.0480256
5.79 -0.0473719
5.8 -0.046349
5.81 -0.0448761
5.82 -0.0428874
5.83 -0.0403155
5.84 -0.0371011
5.85 -0.0332915
5.86 -0.028908
5.87 -0.023993
5.88 -0.0186093
5.89 -0.0128377
5.9 -0.00675903
5.91 -0.000512702
5.92 0.00577468
5.93 0.0119825
5.94 0.017992
5.95 0.0236904
5.96 0.0289641
5.97 0.033679
5.98 0.0378112
5.99 0.0413169
6 0.0441752
6.01 0.0463889
6.02 0.0479851
6.03 0.048977
6.04 0.0494685
6.05 0.0495789
6.06 0.0494188
6.07 0.0491098
6.08 0.0487799
6.09 0.048562
6.1 0.0486206
6.11 0.0490581
6.12 0.0499777
6.13 0.0514655
6.14 0.0535871
6.15 0.056385
6.16 0.0599204
6.17 0.0641721
6.18 0.0690619
6.19 0.0745238
6.2 0.0804699
6.21 0.0867922
6.22 0.093367
6.23 0.100055
6.24 0.106686
6.25 0.113113
6.26 0.119194
6.27 0.124797
6.28 0.129799
6.29 0.134054
6.3 0.13746
6.31 0.140007
6.32 0.141667
6.33 0.142434
6.34 0.14233
6.35 0.141401
6.36 0.139645
6.37 0.137235
6.38 0.134289
6.39 0.130927
6.4 0.12728
6.41 0.12348
6.42 0.119662
6.43 0.115972
6.44 0.112522
6.45 0.109412
6.46 0.106722
6.47 0.104513
6.48 0.102828
6.49 0.101735
6.5 0.101188
6.51 0.101147
6.52 0.101563
6.53 0.102371
6.54 0.103493
6.55 0.104843
6.56 0.106319
6.57 0.107803
6.58 0.109196
6.59 0.110403
6.6 0.111341
6.61 0.111932
6.62 0.112077
6.63 0.111747
6.64 0.110928
6.65 0.109611
6.66 0.107802
6.67 0.105525
6.68 0.102808
6.69 0.0996793
6.7 0.0962419
6.71 0.0925651
6.72 0.0887227
6.73 0.08479
6.74 0.0808416
6.75 0.0769574
6.76 0.0732091
6.77 0.0696489
6.78 0.0663223
6.79 0.0632643
6.8 0.0604985
6.81 0.0580401
6.82 0.05592
6.83 0.0540935
6.84 0.0525403
6.85 0.0512328
6.86 0.0501374
6.87 0.0492168
6.88 0.0484367
6.89 0.0477502
6.9 0.0471114
6.91 0.0464845
6.92 0.0458381
6.93 0.0451453
6.94 0.0443851
6.95 0.0435315
6.96 0.0425844
6.97 0.0415411
6.98 0.0404037
6.99 0.0391778
7 0.037872
7.01 0.0364937
7.02 0.0350546
7.03 0.0335697
7.04 0.0320476
7.05 0.0304947
7.06 0.0289145
7.07 0.0273068
7.08 0.0256644
7.09 0.0239816
7.1 0.0222483
7.11 0.0204514
7.12 0.0185764
7.13 0.0166083
7.14 0.0145279
7.15 0.0123159
7.16 0.00997183
7.17 0.00749033
7.18 0.00487101
7.19 0.00211906
7.2 -0.000754328
7.21 -0.00373897
7.22 -0.00680012
7.23 -0.00990384
7.24 -0.0130135
7.25 -0.016088
7.26 -0.0190831
7.27 -0.0219473
7.28 -0.0246167
7.29 -0.0270575
7.3 -0.0292265
7.31 -0.0310851
7.32 -0.0326
7.33 -0.0337446
7.34 -0.034468
7.35 -0.034778
7.36 -0.0346907
7.37 -0.0342172
7.38 -0.0333783
7.39 -0.0322035
7.4 -0.0307265
7.41 -0.0289782
7.42 -0.0270405
7.43 -0.0249708
7.44 -0.0228294
7.45 -0.020678
7.46 -0.0185779
7.47 -0.0166008
7.48 -0.0148076
7.49 -0.0132427
7.5 -0.0119498
7.51 -0.0109653
7.52 -0.0103176
7.53 -0.0100286
7.54 -0.0101482
7.55 -0.0106361
7.56 -0.011483
7.57 -0.0126719
7.58 -0.0141782
7.59 -0.0159706
7.6 -0.0180244
7.61 -0.0202906
7.62 -0.0227097
7.63 -0.0252339
7.64 -0.0278152
7.65 -0.0304055
7.66 -0.0329586
7.67 -0.035417
7.68 -0.0377458
7.69 -0.0399108
7.7 -0.0418819
7.71 -0.043635
7.72 -0.0451517
7.73 -0.0464073
7.74 -0.0473905
7.75 -0.0481201
7.76 -0.0486039
7.77 -0.0488548
7.78 -0.0488911
7.79 -0.0487358
7.8 -0.0484021
7.81 -0.0479381
7.82 -0.0473794
7.83 -0.0467611
7.84 -0.0461184
7.85 -0.0454865
7.86 -0.0449023
7.87 -0.0444051
7.88 -0.0440188
7.89 -0.0437672
7.9 -0.0436696
7.91 -0.0437395
7.92 -0.0439846
7.93 -0.0444214
7.94 -0.0450316
7.95 -0.0457959
7.96 -0.0466934
7.97 -0.0476969
7.98 -0.0487733
7.99 -0.049884
8 -0.0509801
8.01 -0.0520132
8.02 -0.052936
8.03 -0.0537013
8.04 -0.0542633
8.05 -0.0545797
8.06 -0.0545877
8.07 -0.0542643
8.08 -0.0535989
8.09 -0.0525788
8.1 -0.0512017
8.11 -0.0494756
8.12 -0.0474154
8.13 -0.0450303
8.14 -0.0423974
8.15 -0.0395704
8.16 -0.0366113
8.17 -0.0335892
8.18 -0.0305786
8.19 -0.0276683
8.2 -0.0249464
8.21 -0.0224839
8.22 -0.0203518
8.23 -0.0186141
8.24 -0.0173254
8.25 -0.0165304
8.26 -0.0163183
8.27 -0.0166427
8.28 -0.0174985
8.29 -0.0188641
8.3 -0.0207018
8.31 -0.0229583
8.32 -0.0255812
8.33 -0.0284772
8.34 -0.0315326
8.35 -0.034647
8.36 -0.037716
8.37 -0.040634
8.38 -0.0432976
8.39 -0.0455603
8.4 -0.0473617
8.41 -0.04863
8.42 -0.0493057
8.43 -0.0493459
8.44 -0.0487256
8.45 -0.0474098
8.46 -0.0453999
8.47 -0.0427817
8.48 -0.0396109
8.49 -0.0359591
8.5 -0.0319117
8.51 -0.0275646
8.52 -0.0230135
8.53 -0.0183944
8.54 -0.0138192
8.55 -0.00939226
8.56 -0.00521076
8.57 -0.00136124
8.58 0.00206706
8.59 0.00498855
8.6 0.00740288
8.61 0.00929392
8.62 0.0106646
8.63 0.0115366
8.64 0.011949
8.65 0.0119279
8.66 0.0115755
8.67 0.0109856
8.68 0.0102463
8.69 0.00944898
8.7 0.00868449
8.71 0.00804427
8.72 0.00763065
8.73 0.00749595
8.74 0.00769121
8.75 0.00825146
8.76 0.00919437
8.77 0.0105196
8.78 0.0122334
8.79 0.0142797
8.8 0.0165879
8.81 0.019089
8.82 0.0217037
8.83 0.0243455
8.84 0.026922
8.85 0.0293176
8.86 0.0314555
8.87 0.0332585
8.88 0.0346609
8.89 0.035611
8.9 0.0360736
8.91 0.0359987
8.92 0.0353982
8.93 0.0343247
8.94 0.0328231
8.95 0.0309551
8.96 0.0287971
8.97 0.0264376
8.98 0.0239743
8.99 0.0215318
9 0.0192137
9.01 0.0171199
9.02 0.0153426
9.03 0.0139629
9.04 0.0130755
9.05 0.012739
9.06 0.0129483
9.07 0.0137071
9.08 0.0149978
9.09 0.016782
9.1 0.0190016
9.11 0.0216094
9.12 0.0244678
9.13 0.0274677
9.14 0.0304964
9.15 0.0334385
9.16 0.0361796
9.17 0.0385929
9.18 0.0405536
9.19 0.0420044
9.2 0.0428808
9.21 0.0431383
9.22 0.0427541
9.23 0.041728
9.24 0.0400274
9.25 0.0377525
9.26 0.0349872
9.27 0.03182
9.28 0.0283539
9.29 0.0247027
9.3 0.0209896
9.31 0.0173579
9.32 0.0139316
9.33 0.0108233
9.34 0.00813444
9.35 0.00595122
9.36 0.00434172
9.37 0.00340825
9.38 0.00314246
9.39 0.0035195
9.4 0.00451176
9.41 0.00606965
9.42 0.00812334
9.43 0.0105915
9.44 0.0133806
9.45 0.0163379
9.46 0.0193429
9.47 0.0222741
9.48 0.0250129
9.49 0.0274483
9.5 0.0294444
9.51 0.0309195
9.52 0.03183
9.53 0.0321346
9.54 0.0318141
9.55 0.0308715
9.56 0.0293266
9.57 0.0271798
9.58 0.024565
9.59 0.0215682
9.6 0.0182883
9.61 0.0148329
9.62 0.0113148
9.63 0.00785844
9.64 0.00458993
9.65 0.00160672
9.66 -0.00100157
9.67 -0.00315987
9.68 -0.00481007
9.69 -0.00591282
9.7 -0.00638329
9.71 -0.00629101
9.72 -0.00566291
9.73 -0.0045433
9.74 -0.00299283
9.75 -0.00108594
9.76 0.00110086
9.77 0.00346247
9.78 0.00588478
9.79 0.00827135
9.8 0.01053
9.81 0.0125763
9.82 0.0143363
9.83 0.015708
9.84 0.0166763
9.85 0.0172214
9.86 0.0173367
9.87 0.0170329
9.88 0.0163375
9.89 0.0152815
9.9 0.0139204
9.91 0.0123502
9.92 0.0106483
9.93 0.00889649
9.94 0.00717791
9.95 0.00557371
9.96 0.0041844
9.97 0.00307128
9.98 0.00228431
9.99 0.00186525
10 0.00184152
10.01 0.0022253
10.02 0.00302437
10.03 0.00423797
10.04 0.00579357
10.05 0.00764132
10.06 0.00972054
10.07 0.011962
10.08 0.0142905
10.09 0.0166212
10.1 0.0188647
10.11 0.0209452
10.12 0.0227925
10.13 0.0243443
10.14 0.0255481
10.15 0.0263554
10.16 0.0267026
10.17 0.0266179
10.18 0.0261044
10.19 0.0251783
10.2 0.0238684
10.21 0.022215
10.22 0.0202515
10.23 0.0180528
10.24 0.0156971
10.25 0.0132527
10.26 0.0107887
10.27 0.00837292
10.28 0.00607082
10.29 0.00396536
10.3 0.00209245
10.31 0.000493057
10.32 -0.000801549
10.33 -0.00177038
10.34 -0.00240297
10.35 -0.00267982
10.36 -0.0026151
10.37 -0.00224986
10.38 -0.00161406
10.39 -0.000744505
10.4 0.000316477
10.41 0.00152248
10.42 0.00282965
10.43 0.00417259
10.44 0.00550147
10.45 0.00676886
10.46 0.00793043
10.47 0.00894594
10.48 0.00976966
10.49 0.0103642
10.5 0.0107201
10.51 0.0108215
10.52 0.0106588
10.53 0.0102284
10.54 0.00953278
10.55 0.00855496
10.56 0.0073327
10.57 0.00588881
10.58 0.00424619
10.59 0.00243118
10.6 0.00047299
10.61 -0.00159963
10.62 -0.00375154
10.63 -0.00593928
10.64 -0.00812709
10.65 -0.010279
10.66 -0.0123592
10.67 -0.0143327
10.68 -0.0161499
10.69 -0.0177844
10.7 -0.0192108
10.71 -0.0204029
10.72 -0.0213379
10.73 -0.0219971
10.74 -0.0223583
10.75 -0.0223927
10.76 -0.0221246
10.77 -0.0215581
10.78 -0.0207032
10.79 -0.0195763
10.8 -0.0182004
10.81 -0.0165898
10.82 -0.0147943
10.83 -0.0128638
10.84 -0.0108442
10.85 -0.00878532
10.86 -0.00673904
10.87 -0.00476062
10.88 -0.00292
10.89 -0.00126041
10.9 0.000170572
10.91 0.00133019
10.92 0.0021818
10.93 0.00269614
10.94 0.00282697
10.95 0.00257
10.96 0.00194395
10.97 0.000960356
10.98 -0.000358983
10.99 -0.00198242
11 -0.00387004
11.01 -0.00598914
11.02 -0.00825337
11.03 -0.0106
11.04 -0.0129633
11.05 -0.0152759
11.06 -0.0174714
11.07 -0.0194718
11.08 -0.0212089
11.09 -0.0226434
11.1 -0.0237327
11.11 -0.0244442
11.12 -0.0247561
11.13 -0.0246576
11.14 -0.0241063
11.15 -0.023161
11.16 -0.0218513
11.17 -0.0202141
11.18 -0.0182952
11.19 -0.0161476
11.2 -0.0138247
11.21 -0.0113955
11.22 -0.00893461
11.23 -0.00650432
11.24 -0.00416362
11.25 -0.00196644
11.26 3.99871e-05
11.27 0.00179071
11.28 0.00327327
11.29 0.00447483
11.3 0.00538879
11.31 0.00601877
11.32 0.00637818
11.33 0.00648166
11.34 0.00635425
11.35 0.00605362
11.36 0.00562159
11.37 0.00510225
11.38 0.00454005
11.39 0.00397797
11.4 0.00346241
11.41 0.00302899
11.42 0.00270302
11.43 0.00250341
11.44 0.00244078
11.45 0.0025171
11.46 0.00272858
11.47 0.00306545
11.48 0.00349144
11.49 0.00397642
11.5 0.00448575
11.51 0.00498184
11.52 0.00542592
11.53 0.00577004
11.54 0.00597776
11.55 0.0060229
11.56 0.00588164
11.57 0.00553759
11.58 0.00498275
11.59 0.00421554
11.6 0.00323064
11.61 0.00207179
11.62 0.000769464
11.63 -0.000638389
11.64 -0.00210761
11.65 -0.0035894
11.66 -0.00502586
11.67 -0.00635734
11.68 -0.00753547
11.69 -0.00851321
11.7 -0.00924915
11.71 -0.00970918
11.72 -0.00986736
11.73 -0.00967208
11.74 -0.00915716
11.75 -0.00833249
11.76 -0.00721917
11.77 -0.00584891
11.78 -0.00426313
11.79 -0.00250588
11.8 -0.000642627
11.81 0.00125437
11.82 0.00312051
11.83 0.00489134
