# xPDFsuite Configuration #
[PDF]
wavelength = 0.1
dataformat = QA
inputfile = BiMsol6_insitu_700 C-00362.xy
backgroundfile = Quartz2mm-dist500-00000.xy
mode = xray
bgscale = 0.0042
composition = Bi2Fe4O9
outputtype = gr
qmaxinst = 24.998449118
qmin = 0.1
qmax = 21.4986662415
rmax = 80.0
rmin = 0.0
rstep = 0.01
rpoly = 0.9

[Misc]
inputdir = C:/Data/Seafile/CPH/Beamtime/Desy Oct 20/In situ data/Processed/BiMsol6/PDF
savedir = C:/Data/Seafile/CPH/Beamtime/Desy Oct 20/In situ data/PDF/BiMsol6
backgroundfilefull = C:/Data/Seafile/CPH/Beamtime/Desy Oct 20/In situ data/Processed/Standard_Empty_Cap/Quartz2mm-dist500-00000.xy

#### start data
#S 1
#L r($\AA$)  G($\AA^{-2}$)
0 0
0.01 0.00676914
0.02 0.0131592
0.03 0.0188457
0.04 0.0235373
0.05 0.0269891
0.06 0.029014
0.07 0.029407
0.08 0.0281072
0.09 0.0252631
0.1 0.0209964
0.11 0.0154966
0.12 0.00901329
0.13 0.00184445
0.14 -0.00567589
0.15 -0.013123
0.16 -0.020139
0.17 -0.0263873
0.18 -0.0315658
0.19 -0.0354207
0.2 -0.0376911
0.21 -0.0381965
0.22 -0.037035
0.23 -0.0342715
0.24 -0.0300527
0.25 -0.0246026
0.26 -0.0182136
0.27 -0.0112174
0.28 -0.00409888
0.29 0.00270993
0.3 0.00878893
0.31 0.0137373
0.32 0.0171933
0.33 0.0187893
0.34 0.0181638
0.35 0.0153624
0.36 0.010374
0.37 0.003296
0.38 -0.00566394
0.39 -0.0161902
0.4 -0.0279194
0.41 -0.0402095
0.42 -0.0524287
0.43 -0.0639339
0.44 -0.0740572
0.45 -0.0821305
0.46 -0.0874458
0.47 -0.0890906
0.48 -0.0868506
0.49 -0.0803442
0.5 -0.0693155
0.51 -0.0536492
0.52 -0.0333824
0.53 -0.00841618
0.54 0.0206946
0.55 0.0532076
0.56 0.0884352
0.57 0.125568
0.58 0.163697
0.59 0.201828
0.6 0.238702
0.61 0.273294
0.62 0.30459
0.63 0.331631
0.64 0.353552
0.65 0.3696
0.66 0.378741
0.67 0.380529
0.68 0.375114
0.69 0.362472
0.7 0.34277
0.71 0.316365
0.72 0.28379
0.73 0.245213
0.74 0.202192
0.75 0.155724
0.76 0.106873
0.77 0.0567474
0.78 0.00647331
0.79 -0.0427391
0.8 -0.0896562
0.81 -0.13341
0.82 -0.173174
0.83 -0.20826
0.84 -0.238136
0.85 -0.262437
0.86 -0.280377
0.87 -0.29249
0.88 -0.299057
0.89 -0.300432
0.9 -0.297111
0.91 -0.289705
0.92 -0.278819
0.93 -0.265241
0.94 -0.250041
0.95 -0.234036
0.96 -0.218019
0.97 -0.202732
0.98 -0.188844
0.99 -0.177156
1 -0.168035
1.01 -0.161742
1.02 -0.158464
1.03 -0.15826
1.04 -0.161066
1.05 -0.166778
1.06 -0.175223
1.07 -0.185772
1.08 -0.19798
1.09 -0.211365
1.1 -0.225424
1.11 -0.239658
1.12 -0.253526
1.13 -0.266555
1.14 -0.278393
1.15 -0.288748
1.16 -0.297407
1.17 -0.30424
1.18 -0.309175
1.19 -0.312117
1.2 -0.31339
1.21 -0.313196
1.22 -0.311791
1.23 -0.309466
1.24 -0.306536
1.25 -0.303326
1.26 -0.300196
1.27 -0.297437
1.28 -0.295286
1.29 -0.293932
1.3 -0.293502
1.31 -0.294067
1.32 -0.295721
1.33 -0.29827
1.34 -0.301572
1.35 -0.305433
1.36 -0.309621
1.37 -0.313873
1.38 -0.317884
1.39 -0.321332
1.4 -0.323974
1.41 -0.32558
1.42 -0.325963
1.43 -0.324987
1.44 -0.322578
1.45 -0.318569
1.46 -0.313191
1.47 -0.306591
1.48 -0.298971
1.49 -0.290588
1.5 -0.281739
1.51 -0.272768
1.52 -0.264082
1.53 -0.256038
1.54 -0.248973
1.55 -0.243193
1.56 -0.238961
1.57 -0.236484
1.58 -0.236102
1.59 -0.237716
1.6 -0.241263
1.61 -0.246633
1.62 -0.253637
1.63 -0.262017
1.64 -0.271476
1.65 -0.281608
1.66 -0.291915
1.67 -0.301954
1.68 -0.311282
1.69 -0.319468
1.7 -0.326108
1.71 -0.330646
1.72 -0.332876
1.73 -0.332641
1.74 -0.329812
1.75 -0.324344
1.76 -0.31628
1.77 -0.305693
1.78 -0.292687
1.79 -0.277791
1.8 -0.261372
1.81 -0.243847
1.82 -0.225664
1.83 -0.207291
1.84 -0.189253
1.85 -0.172047
1.86 -0.156067
1.87 -0.141671
1.88 -0.129155
1.89 -0.118742
1.9 -0.11061
1.91 -0.10502
1.92 -0.101692
1.93 -0.100502
1.94 -0.101247
1.95 -0.103664
1.96 -0.107433
1.97 -0.112234
1.98 -0.117605
1.99 -0.123104
2 -0.128344
2.01 -0.132967
2.02 -0.136649
2.03 -0.139116
2.04 -0.139988
2.05 -0.139289
2.06 -0.136977
2.07 -0.133086
2.08 -0.127728
2.09 -0.121081
2.1 -0.113348
2.11 -0.104879
2.12 -0.0960839
2.13 -0.0873363
2.14 -0.0790214
2.15 -0.0715202
2.16 -0.0651953
2.17 -0.0605737
2.18 -0.0578054
2.19 -0.0570923
2.2 -0.0585821
2.21 -0.0623516
2.22 -0.0684039
2.23 -0.0767627
2.24 -0.0873099
2.25 -0.0996649
2.26 -0.113549
2.27 -0.12864
2.28 -0.144581
2.29 -0.160995
2.3 -0.17747
2.31 -0.193581
2.32 -0.208977
2.33 -0.223343
2.34 -0.236406
2.35 -0.247948
2.36 -0.257747
2.37 -0.265618
2.38 -0.271686
2.39 -0.276003
2.4 -0.278677
2.41 -0.27987
2.42 -0.279792
2.43 -0.278623
2.44 -0.276732
2.45 -0.274439
2.46 -0.272036
2.47 -0.269805
2.48 -0.268009
2.49 -0.266904
2.5 -0.266766
2.51 -0.267672
2.52 -0.269716
2.53 -0.272941
2.54 -0.27734
2.55 -0.282862
2.56 -0.289474
2.57 -0.296979
2.58 -0.30516
2.59 -0.313816
2.6 -0.322734
2.61 -0.331695
2.62 -0.340475
2.63 -0.348809
2.64 -0.356535
2.65 -0.363493
2.66 -0.369552
2.67 -0.374615
2.68 -0.378614
2.69 -0.381447
2.7 -0.383132
2.71 -0.383761
2.72 -0.383393
2.73 -0.382107
2.74 -0.379992
2.75 -0.377145
2.76 -0.373603
2.77 -0.369539
2.78 -0.365032
2.79 -0.360146
2.8 -0.354925
2.81 -0.349394
2.82 -0.343535
2.83 -0.337319
2.84 -0.330719
2.85 -0.323672
2.86 -0.316103
2.87 -0.307928
2.88 -0.29906
2.89 -0.28932
2.9 -0.278702
2.91 -0.267152
2.92 -0.254628
2.93 -0.241111
2.94 -0.226606
2.95 -0.211108
2.96 -0.194662
2.97 -0.177432
2.98 -0.15954
2.99 -0.141124
3 -0.122345
3.01 -0.103372
3.02 -0.0843994
3.03 -0.0656257
3.04 -0.0472212
3.05 -0.029343
3.06 -0.0121295
3.07 0.00430429
3.08 0.0198413
3.09 0.0343724
3.1 0.0479573
3.11 0.0606142
3.12 0.0723929
3.13 0.0833735
3.14 0.0936624
3.15 0.103353
3.16 0.112643
3.17 0.121708
3.18 0.13071
3.19 0.139808
3.2 0.149152
3.21 0.158885
3.22 0.169169
3.23 0.180046
3.24 0.191565
3.25 0.203745
3.26 0.216571
3.27 0.229998
3.28 0.243978
3.29 0.258371
3.3 0.27302
3.31 0.28777
3.32 0.302456
3.33 0.316903
3.34 0.330931
3.35 0.344296
3.36 0.356889
3.37 0.368576
3.38 0.379243
3.39 0.3888
3.4 0.397188
3.41 0.404302
3.42 0.410157
3.43 0.414859
3.44 0.418472
3.45 0.421088
3.46 0.422818
3.47 0.423792
3.48 0.424097
3.49 0.423966
3.5 0.423549
3.51 0.422992
3.52 0.422432
3.53 0.421993
3.54 0.421801
3.55 0.421961
3.56 0.42252
3.57 0.423521
3.58 0.424984
3.59 0.426912
3.6 0.429288
3.61 0.432116
3.62 0.435307
3.63 0.438796
3.64 0.44252
3.65 0.446413
3.66 0.450412
3.67 0.454453
3.68 0.458478
3.69 0.46244
3.7 0.466308
3.71 0.470059
3.72 0.473684
3.73 0.477181
3.74 0.480548
3.75 0.483813
3.76 0.486998
3.77 0.490124
3.78 0.493212
3.79 0.496278
3.8 0.499329
3.81 0.502363
3.82 0.505364
3.83 0.508304
3.84 0.511138
3.85 0.513808
3.86 0.51624
3.87 0.518313
3.88 0.519929
3.89 0.520989
3.9 0.521374
3.91 0.520963
3.92 0.519633
3.93 0.517243
3.94 0.513574
3.95 0.508628
3.96 0.502316
3.97 0.494564
3.98 0.485317
3.99 0.474537
4 0.462094
4.01 0.448036
4.02 0.432461
4.03 0.415417
4.04 0.396969
4.05 0.377199
4.06 0.356195
4.07 0.333967
4.08 0.310765
4.09 0.286719
4.1 0.261959
4.11 0.236619
4.12 0.210831
4.13 0.184717
4.14 0.158424
4.15 0.132091
4.16 0.105833
4.17 0.0797581
4.18 0.0539698
4.19 0.0285629
4.2 0.00368885
4.21 -0.0206149
4.22 -0.0442756
4.23 -0.0672241
4.24 -0.0893967
4.25 -0.110735
4.26 -0.131138
4.27 -0.150533
4.28 -0.168939
4.29 -0.186319
4.3 -0.202642
4.31 -0.217886
4.32 -0.232034
4.33 -0.244966
4.34 -0.256782
4.35 -0.267511
4.36 -0.277179
4.37 -0.285819
4.38 -0.293476
4.39 -0.300174
4.4 -0.305951
4.41 -0.310955
4.42 -0.315267
4.43 -0.318974
4.44 -0.322166
4.45 -0.324934
4.46 -0.327346
4.47 -0.329519
4.48 -0.33154
4.49 -0.333481
4.5 -0.335402
4.51 -0.337352
4.52 -0.339371
4.53 -0.341488
4.54 -0.343702
4.55 -0.346005
4.56 -0.348377
4.57 -0.350784
4.58 -0.353185
4.59 -0.355521
4.6 -0.35773
4.61 -0.359757
4.62 -0.361541
4.63 -0.363028
4.64 -0.364168
4.65 -0.364912
4.66 -0.365188
4.67 -0.36502
4.68 -0.364403
4.69 -0.363348
4.7 -0.361877
4.71 -0.360028
4.72 -0.357832
4.73 -0.355367
4.74 -0.352722
4.75 -0.349975
4.76 -0.347211
4.77 -0.344513
4.78 -0.341969
4.79 -0.339691
4.8 -0.337734
4.81 -0.33616
4.82 -0.335024
4.83 -0.334364
4.84 -0.33421
4.85 -0.334604
4.86 -0.335545
4.87 -0.336986
4.88 -0.338899
4.89 -0.341242
4.9 -0.343968
4.91 -0.34702
4.92 -0.350359
4.93 -0.353884
4.94 -0.357528
4.95 -0.361226
4.96 -0.364915
4.97 -0.368535
4.98 -0.372027
4.99 -0.37533
5 -0.378416
5.01 -0.381248
5.02 -0.383799
5.03 -0.386044
5.04 -0.387961
5.05 -0.389497
5.06 -0.390659
5.07 -0.391434
5.08 -0.3918
5.09 -0.391731
5.1 -0.391199
5.11 -0.390146
5.12 -0.3885
5.13 -0.386252
5.14 -0.383347
5.15 -0.379723
5.16 -0.375315
5.17 -0.370056
5.18 -0.363789
5.19 -0.356491
5.2 -0.348124
5.21 -0.338626
5.22 -0.327944
5.23 -0.316032
5.24 -0.302822
5.25 -0.288198
5.26 -0.27227
5.27 -0.255041
5.28 -0.236526
5.29 -0.216756
5.3 -0.19577
5.31 -0.173536
5.32 -0.150172
5.33 -0.125797
5.34 -0.100492
5.35 -0.0743444
5.36 -0.0474441
5.37 -0.0198779
5.38 0.00829777
5.39 0.0369206
5.4 0.0658948
5.41 0.0951248
5.42 0.124516
5.43 0.153973
5.44 0.183392
5.45 0.212663
5.46 0.241688
5.47 0.270364
5.48 0.298581
5.49 0.326228
5.5 0.35318
5.51 0.379202
5.52 0.404238
5.53 0.428145
5.54 0.450771
5.55 0.471961
5.56 0.491554
5.57 0.509283
5.58 0.524954
5.59 0.538522
5.6 0.549844
5.61 0.558787
5.62 0.565235
5.63 0.569093
5.64 0.56999
5.65 0.568145
5.66 0.563568
5.67 0.556277
5.68 0.546322
5.69 0.533785
5.7 0.518675
5.71 0.501093
5.72 0.481394
5.73 0.459782
5.74 0.436476
5.75 0.411714
5.76 0.385745
5.77 0.358755
5.78 0.331102
5.79 0.303052
5.8 0.274842
5.81 0.246694
5.82 0.21881
5.83 0.19139
5.84 0.164636
5.85 0.138626
5.86 0.113451
5.87 0.0891765
5.88 0.0658383
5.89 0.0434502
5.9 0.0220831
5.91 0.00165417
5.92 -0.0179073
5.93 -0.0366505
5.94 -0.0546273
5.95 -0.0718881
5.96 -0.0884631
5.97 -0.104343
5.98 -0.119607
5.99 -0.134254
6 -0.148266
6.01 -0.161604
6.02 -0.17421
6.03 -0.18594
6.04 -0.196713
6.05 -0.206455
6.06 -0.215049
6.07 -0.222371
6.08 -0.2283
6.09 -0.232702
6.1 -0.235303
6.11 -0.236181
6.12 -0.235268
6.13 -0.232524
6.14 -0.227934
6.15 -0.221514
6.16 -0.213204
6.17 -0.203119
6.18 -0.191473
6.19 -0.178415
6.2 -0.164117
6.21 -0.148778
6.22 -0.132611
6.23 -0.115802
6.24 -0.0986776
6.25 -0.0814734
6.26 -0.0644182
6.27 -0.0477292
6.28 -0.0316058
6.29 -0.0162729
6.3 -0.00190986
6.31 0.0114213
6.32 0.023642
6.33 0.034708
6.34 0.04461
6.35 0.0533721
6.36 0.0609456
6.37 0.0675331
6.38 0.0732654
6.39 0.0782821
6.4 0.0827382
6.41 0.0868001
6.42 0.090638
6.43 0.0944469
6.44 0.098407
6.45 0.102673
6.46 0.107387
6.47 0.11267
6.48 0.118624
6.49 0.125407
6.5 0.133021
6.51 0.141475
6.52 0.150772
6.53 0.160892
6.54 0.171796
6.55 0.183447
6.56 0.195802
6.57 0.208712
6.58 0.222089
6.59 0.235836
6.6 0.24986
6.61 0.264068
6.62 0.278374
6.63 0.292683
6.64 0.306925
6.65 0.321039
6.66 0.334975
6.67 0.348696
6.68 0.362163
6.69 0.375331
6.7 0.388208
6.71 0.400784
6.72 0.413046
6.73 0.424985
6.74 0.436585
6.75 0.4478
6.76 0.45861
6.77 0.468994
6.78 0.478908
6.79 0.488294
6.8 0.497088
6.81 0.505208
6.82 0.512482
6.83 0.518889
6.84 0.524331
6.85 0.528702
6.86 0.531897
6.87 0.533812
6.88 0.534254
6.89 0.533121
6.9 0.530404
6.91 0.52603
6.92 0.519935
6.93 0.51207
6.94 0.502401
6.95 0.490701
6.96 0.477176
6.97 0.461849
6.98 0.444755
6.99 0.425943
7 0.405478
7.01 0.383362
7.02 0.359673
7.03 0.334616
7.04 0.3083
7.05 0.280838
7.06 0.252349
7.07 0.222956
7.08 0.192715
7.09 0.161832
7.1 0.130443
7.11 0.0986705
7.12 0.066634
7.13 0.0344522
7.14 0.00224441
7.15 -0.0298573
7.16 -0.0617424
7.17 -0.0933042
7.18 -0.124438
7.19 -0.155042
7.2 -0.185018
7.21 -0.214194
7.22 -0.242514
7.23 -0.269908
7.24 -0.296293
7.25 -0.321586
7.26 -0.345715
7.27 -0.368574
7.28 -0.390015
7.29 -0.410098
7.3 -0.428781
7.31 -0.446031
7.32 -0.461826
7.33 -0.476156
7.34 -0.488903
7.35 -0.500148
7.36 -0.509973
7.37 -0.518414
7.38 -0.525521
7.39 -0.531353
7.4 -0.535958
7.41 -0.539329
7.42 -0.541668
7.43 -0.543063
7.44 -0.543604
7.45 -0.543381
7.46 -0.542486
7.47 -0.540971
7.48 -0.538944
7.49 -0.536506
7.5 -0.533726
7.51 -0.530662
7.52 -0.527365
7.53 -0.523871
7.54 -0.520194
7.55 -0.51637
7.56 -0.5124
7.57 -0.508279
7.58 -0.50399
7.59 -0.499508
7.6 -0.494785
7.61 -0.489776
7.62 -0.484449
7.63 -0.478756
7.64 -0.47265
7.65 -0.466081
7.66 -0.459005
7.67 -0.451313
7.68 -0.443025
7.69 -0.434115
7.7 -0.424563
7.71 -0.414358
7.72 -0.403499
7.73 -0.391968
7.74 -0.379776
7.75 -0.367004
7.76 -0.353698
7.77 -0.339917
7.78 -0.325728
7.79 -0.311209
7.8 -0.29643
7.81 -0.281516
7.82 -0.266572
7.83 -0.251702
7.84 -0.23701
7.85 -0.222605
7.86 -0.208608
7.87 -0.195156
7.88 -0.18231
7.89 -0.170159
7.9 -0.158781
7.91 -0.148243
7.92 -0.138603
7.93 -0.129992
7.94 -0.122385
7.95 -0.115769
7.96 -0.110146
7.97 -0.105503
7.98 -0.101814
7.99 -0.099067
8 -0.0972633
8.01 -0.096262
8.02 -0.095998
8.03 -0.0964018
8.04 -0.0974005
8.05 -0.0989207
8.06 -0.100919
8.07 -0.1033
8.08 -0.105984
8.09 -0.108913
8.1 -0.112039
8.11 -0.115323
8.12 -0.118736
8.13 -0.122264
8.14 -0.125887
8.15 -0.129602
8.16 -0.133417
8.17 -0.137344
8.18 -0.141398
8.19 -0.145608
8.2 -0.149993
8.21 -0.154558
8.22 -0.159314
8.23 -0.164259
8.24 -0.169386
8.25 -0.174675
8.26 -0.180101
8.27 -0.185596
8.28 -0.191093
8.29 -0.196512
8.3 -0.201759
8.31 -0.206726
8.32 -0.211265
8.33 -0.215226
8.34 -0.218496
8.35 -0.220939
8.36 -0.222414
8.37 -0.222788
8.38 -0.221932
8.39 -0.219568
8.4 -0.215722
8.41 -0.21032
8.42 -0.203298
8.43 -0.194611
8.44 -0.18424
8.45 -0.172109
8.46 -0.158208
8.47 -0.142709
8.48 -0.125688
8.49 -0.107236
8.5 -0.0874636
8.51 -0.0664921
8.52 -0.0443638
8.53 -0.0213189
8.54 0.00248056
8.55 0.0268939
8.56 0.0517855
8.57 0.0770279
8.58 0.102509
8.59 0.128118
8.6 0.153755
8.61 0.179352
8.62 0.204855
8.63 0.230231
8.64 0.255457
8.65 0.280512
8.66 0.30541
8.67 0.330168
8.68 0.354803
8.69 0.379331
8.7 0.403768
8.71 0.428119
8.72 0.452375
8.73 0.476526
8.74 0.500539
8.75 0.524363
8.76 0.547929
8.77 0.571149
8.78 0.59387
8.79 0.615963
8.8 0.637301
8.81 0.657724
8.82 0.67706
8.83 0.695133
8.84 0.71174
8.85 0.726527
8.86 0.739475
8.87 0.750419
8.88 0.759208
8.89 0.765708
8.9 0.769803
8.91 0.771236
8.92 0.769965
8.93 0.766089
8.94 0.759599
8.95 0.750515
8.96 0.738881
8.97 0.724763
8.98 0.707989
8.99 0.688958
9 0.6678
9.01 0.644657
9.02 0.619678
9.03 0.593019
9.04 0.564765
9.05 0.535086
9.06 0.504229
9.07 0.472343
9.08 0.439567
9.09 0.406035
9.1 0.371871
9.11 0.337147
9.12 0.302031
9.13 0.266628
9.14 0.231031
9.15 0.195334
9.16 0.159626
9.17 0.124006
9.18 0.0885878
9.19 0.0534634
9.2 0.0187389
9.21 -0.0154725
9.22 -0.0490497
9.23 -0.0818634
9.24 -0.113676
9.25 -0.144394
9.26 -0.173886
9.27 -0.201998
9.28 -0.228575
9.29 -0.253464
9.3 -0.276454
9.31 -0.29728
9.32 -0.315973
9.33 -0.332421
9.34 -0.346527
9.35 -0.358214
9.36 -0.367424
9.37 -0.373909
9.38 -0.377792
9.39 -0.379171
9.4 -0.378087
9.41 -0.374602
9.42 -0.368799
9.43 -0.360733
9.44 -0.35038
9.45 -0.338082
9.46 -0.323983
9.47 -0.308228
9.48 -0.290969
9.49 -0.272358
9.5 -0.252466
9.51 -0.231492
9.52 -0.209623
9.53 -0.186987
9.54 -0.163702
9.55 -0.139877
9.56 -0.115607
9.57 -0.0909587
9.58 -0.0660579
9.59 -0.0409796
9.6 -0.0157943
9.61 0.00942962
9.62 0.034624
9.63 0.0597083
9.64 0.0845984
9.65 0.109221
9.66 0.133489
9.67 0.15731
9.68 0.180583
9.69 0.2032
9.7 0.224944
9.71 0.24577
9.72 0.265555
9.73 0.284173
9.74 0.301501
9.75 0.317418
9.76 0.331729
9.77 0.344292
9.78 0.355123
9.79 0.364151
9.8 0.371326
9.81 0.376614
9.82 0.380006
9.83 0.38132
9.84 0.380773
9.85 0.37845
9.86 0.374436
9.87 0.368835
9.88 0.361766
9.89 0.353316
9.9 0.343609
9.91 0.332902
9.92 0.321352
9.93 0.309117
9.94 0.296351
9.95 0.283201
9.96 0.269791
9.97 0.256273
9.98 0.242755
9.99 0.229323
10 0.216043
10.01 0.202965
10.02 0.190124
10.03 0.177546
10.04 0.165203
10.05 0.153071
10.06 0.141117
10.07 0.129299
10.08 0.117568
10.09 0.105871
10.1 0.0941507
10.11 0.0823581
10.12 0.070453
10.13 0.0584037
10.14 0.046189
10.15 0.033796
10.16 0.0212161
10.17 0.00848685
10.18 -0.00435905
10.19 -0.0172767
10.2 -0.0302105
10.21 -0.0430955
10.22 -0.0558454
10.23 -0.0683747
10.24 -0.0806095
10.25 -0.092471
10.26 -0.103883
10.27 -0.114776
10.28 -0.125083
10.29 -0.13468
10.3 -0.143596
10.31 -0.151805
10.32 -0.159297
10.33 -0.166074
10.34 -0.172152
10.35 -0.177522
10.36 -0.182238
10.37 -0.186391
10.38 -0.190046
10.39 -0.193273
10.4 -0.196146
10.41 -0.198743
10.42 -0.20113
10.43 -0.20341
10.44 -0.205655
10.45 -0.20793
10.46 -0.210295
10.47 -0.212798
10.48 -0.21549
10.49 -0.218409
10.5 -0.22156
10.51 -0.224951
10.52 -0.22858
10.53 -0.232439
10.54 -0.236509
10.55 -0.240784
10.56 -0.245213
10.57 -0.249762
10.58 -0.254395
10.59 -0.259076
10.6 -0.26377
10.61 -0.268441
10.62 -0.273052
10.63 -0.277578
10.64 -0.281997
10.65 -0.286292
10.66 -0.290447
10.67 -0.294455
10.68 -0.298297
10.69 -0.301981
10.7 -0.305514
10.71 -0.308903
10.72 -0.312155
10.73 -0.315278
10.74 -0.318279
10.75 -0.321161
10.76 -0.323942
10.77 -0.326631
10.78 -0.329232
10.79 -0.33175
10.8 -0.334187
10.81 -0.336538
10.82 -0.338805
10.83 -0.340988
10.84 -0.343085
10.85 -0.345091
10.86 -0.347002
10.87 -0.348812
10.88 -0.350509
10.89 -0.3521
10.9 -0.353583
10.91 -0.354958
10.92 -0.356223
10.93 -0.357379
10.94 -0.358421
10.95 -0.359353
10.96 -0.36018
10.97 -0.360902
10.98 -0.361519
10.99 -0.362028
11 -0.362422
11.01 -0.362679
11.02 -0.3628
11.03 -0.362768
11.04 -0.362563
11.05 -0.362162
11.06 -0.361538
11.07 -0.360642
11.08 -0.359434
11.09 -0.357893
11.1 -0.35598
11.11 -0.353656
11.12 -0.350881
11.13 -0.347619
11.14 -0.343773
11.15 -0.339362
11.16 -0.334365
11.17 -0.328761
11.18 -0.322537
11.19 -0.315688
11.2 -0.308185
11.21 -0.300029
11.22 -0.291282
11.23 -0.281974
11.24 -0.272143
11.25 -0.261831
11.26 -0.251091
11.27 -0.239947
11.28 -0.228498
11.29 -0.216814
11.3 -0.204961
11.31 -0.193004
11.32 -0.181005
11.33 -0.169027
11.34 -0.157137
11.35 -0.145377
11.36 -0.133789
11.37 -0.122402
11.38 -0.111239
11.39 -0.100312
11.4 -0.0896426
11.41 -0.0792064
11.42 -0.0689768
11.43 -0.058925
11.44 -0.0490141
11.45 -0.0392007
11.46 -0.0294351
11.47 -0.019656
11.48 -0.00980318
11.49 0.00018083
11.5 0.0103525
11.51 0.020766
11.52 0.0314714
11.53 0.0425428
11.54 0.0540102
11.55 0.0658888
11.56 0.0781991
11.57 0.0909528
11.58 0.104153
11.59 0.117798
11.6 0.131908
11.61 0.146413
11.62 0.161279
11.63 0.176467
11.64 0.19193
11.65 0.20762
11.66 0.223491
11.67 0.239478
11.68 0.255516
11.69 0.27155
11.7 0.287525
11.71 0.30339
11.72 0.319094
11.73 0.334563
11.74 0.349775
11.75 0.36469
11.76 0.379272
11.77 0.393488
11.78 0.407306
11.79 0.420671
11.8 0.433545
11.81 0.445922
11.82 0.457772
11.83 0.469058
11.84 0.479744
11.85 0.489787
11.86 0.499062
11.87 0.50758
11.88 0.515294
11.89 0.522143
11.9 0.528065
11.91 0.532995
11.92 0.536816
11.93 0.539422
11.94 0.540823
11.95 0.540961
11.96 0.539779
11.97 0.537227
11.98 0.533264
11.99 0.52772
12 0.520684
12.01 0.512184
12.02 0.502231
12.03 0.490852
12.04 0.478087
12.05 0.463952
12.06 0.448466
12.07 0.431829
12.08 0.414143
12.09 0.395523
12.1 0.376091
12.11 0.355979
12.12 0.335291
12.13 0.314215
12.14 0.292912
12.15 0.271522
12.16 0.250185
12.17 0.229033
12.18 0.208202
12.19 0.187855
12.2 0.168064
12.21 0.148924
12.22 0.130514
12.23 0.112906
12.24 0.0961558
12.25 0.0803804
12.26 0.065588
