# xPDFsuite Configuration #
[PDF]
wavelength = 0.1
dataformat = QA
inputfile = BiMsol6_insitu_700 C-00691.xy
backgroundfile = Quartz2mm-dist500-00000.xy
mode = xray
bgscale = 0.0042
composition = Bi2Fe4O9
outputtype = gr
qmaxinst = 24.998449118
qmin = 0.1
qmax = 21.4986662415
rmax = 80.0
rmin = 0.0
rstep = 0.01
rpoly = 0.9

[Misc]
inputdir = C:/Data/Seafile/CPH/Beamtime/Desy Oct 20/In situ data/Processed/BiMsol6/PDF
savedir = C:/Data/Seafile/CPH/Beamtime/Desy Oct 20/In situ data/PDF/BiMsol6
backgroundfilefull = C:/Data/Seafile/CPH/Beamtime/Desy Oct 20/In situ data/Processed/Standard_Empty_Cap/Quartz2mm-dist500-00000.xy

#### start data
#S 1
#L r($\AA$)  G($\AA^{-2}$)
0 0
0.01 0.00629426
0.02 0.012231
0.03 0.0175042
0.04 0.0218396
0.05 0.0250067
0.06 0.0268304
0.07 0.0271188
0.08 0.0258167
0.09 0.0230663
0.1 0.0189847
0.11 0.0137532
0.12 0.00760939
0.13 0.000836571
0.14 -0.00624649
0.15 -0.0132401
0.16 -0.019807
0.17 -0.025631
0.18 -0.030429
0.19 -0.033965
0.2 -0.035997
0.21 -0.0363608
0.22 -0.0351556
0.23 -0.0324495
0.24 -0.0283877
0.25 -0.0231883
0.26 -0.0171334
0.27 -0.0105451
0.28 -0.00388282
0.29 0.00244463
0.3 0.00804064
0.31 0.012529
0.32 0.0155723
0.33 0.0168298
0.34 0.0159691
0.35 0.0130471
0.36 0.00806604
0.37 0.0011318
0.38 -0.00754481
0.39 -0.0176512
0.4 -0.0288237
0.41 -0.0404452
0.42 -0.0519112
0.43 -0.062607
0.44 -0.0718978
0.45 -0.0791527
0.46 -0.083705
0.47 -0.0846966
0.48 -0.0819484
0.49 -0.0751187
0.5 -0.0639882
0.51 -0.0484743
0.52 -0.028641
0.53 -0.00443259
0.54 0.0235916
0.55 0.0547009
0.56 0.0882148
0.57 0.123341
0.58 0.159194
0.59 0.194814
0.6 0.228969
0.61 0.260712
0.62 0.289084
0.63 0.313188
0.64 0.33222
0.65 0.345495
0.66 0.352054
0.67 0.351521
0.68 0.344093
0.69 0.329794
0.7 0.308833
0.71 0.2816
0.72 0.248653
0.73 0.210228
0.74 0.167831
0.75 0.122448
0.76 0.0751202
0.77 0.0269287
0.78 -0.0210415
0.79 -0.0676131
0.8 -0.111611
0.81 -0.152246
0.82 -0.188756
0.83 -0.220514
0.84 -0.247053
0.85 -0.268069
0.86 -0.282849
0.87 -0.291976
0.88 -0.295773
0.89 -0.294635
0.9 -0.289086
0.91 -0.279759
0.92 -0.267286
0.93 -0.252473
0.94 -0.23636
0.95 -0.219754
0.96 -0.203428
0.97 -0.188102
0.98 -0.174416
0.99 -0.163157
1 -0.154639
1.01 -0.149084
1.02 -0.146644
1.03 -0.147342
1.04 -0.151084
1.05 -0.157733
1.06 -0.167086
1.07 -0.178488
1.08 -0.191476
1.09 -0.205549
1.1 -0.220192
1.11 -0.234892
1.12 -0.249089
1.13 -0.262309
1.14 -0.274201
1.15 -0.284467
1.16 -0.292892
1.17 -0.299348
1.18 -0.303755
1.19 -0.306008
1.2 -0.306445
1.21 -0.30527
1.22 -0.302739
1.23 -0.299149
1.24 -0.29482
1.25 -0.290075
1.26 -0.285291
1.27 -0.280777
1.28 -0.276788
1.29 -0.273532
1.3 -0.271161
1.31 -0.269774
1.32 -0.269499
1.33 -0.270175
1.34 -0.271695
1.35 -0.273902
1.36 -0.276595
1.37 -0.279547
1.38 -0.282497
1.39 -0.285152
1.4 -0.287277
1.41 -0.288654
1.42 -0.289103
1.43 -0.288486
1.44 -0.286717
1.45 -0.283636
1.46 -0.279411
1.47 -0.27415
1.48 -0.268006
1.49 -0.261182
1.5 -0.253916
1.51 -0.246483
1.52 -0.239213
1.53 -0.232402
1.54 -0.226325
1.55 -0.221231
1.56 -0.217334
1.57 -0.2148
1.58 -0.213894
1.59 -0.214535
1.6 -0.216666
1.61 -0.220187
1.62 -0.224939
1.63 -0.230702
1.64 -0.237222
1.65 -0.244157
1.66 -0.251108
1.67 -0.257714
1.68 -0.26362
1.69 -0.26848
1.7 -0.271979
1.71 -0.273671
1.72 -0.273417
1.73 -0.271113
1.74 -0.266676
1.75 -0.260095
1.76 -0.25143
1.77 -0.240764
1.78 -0.228209
1.79 -0.214204
1.8 -0.199059
1.81 -0.183116
1.82 -0.166738
1.83 -0.150293
1.84 -0.134197
1.85 -0.118821
1.86 -0.104454
1.87 -0.0913483
1.88 -0.0797053
1.89 -0.0696643
1.9 -0.0613253
1.91 -0.0548386
1.92 -0.0499591
1.93 -0.046556
1.94 -0.044447
1.95 -0.043407
1.96 -0.043179
1.97 -0.043502
1.98 -0.0440405
1.99 -0.0444949
2 -0.0446117
2.01 -0.0441703
2.02 -0.0429932
2.03 -0.0409503
2.04 -0.0378692
2.05 -0.0338598
2.06 -0.0289938
2.07 -0.023403
2.08 -0.0172749
2.09 -0.0108459
2.1 -0.00440939
2.11 0.00167643
2.12 0.00708609
2.13 0.0114915
2.14 0.0145759
2.15 0.0160463
2.16 0.0156454
2.17 0.0129162
2.18 0.00791131
2.19 0.000570387
2.2 -0.0091155
2.21 -0.0210865
2.22 -0.0352149
2.23 -0.0513858
2.24 -0.0693483
2.25 -0.0886498
2.26 -0.108938
2.27 -0.129834
2.28 -0.150943
2.29 -0.171869
2.3 -0.192134
2.31 -0.211386
2.32 -0.229317
2.33 -0.245656
2.34 -0.260183
2.35 -0.27274
2.36 -0.283158
2.37 -0.291306
2.38 -0.297406
2.39 -0.301563
2.4 -0.303938
2.41 -0.304734
2.42 -0.304196
2.43 -0.302524
2.44 -0.300106
2.45 -0.297264
2.46 -0.294286
2.47 -0.291441
2.48 -0.288975
2.49 -0.287119
2.5 -0.286119
2.51 -0.286035
2.52 -0.28694
2.53 -0.288864
2.54 -0.291791
2.55 -0.295662
2.56 -0.30044
2.57 -0.305948
2.58 -0.311996
2.59 -0.318416
2.6 -0.325029
2.61 -0.331657
2.62 -0.338124
2.63 -0.344224
2.64 -0.349843
2.65 -0.354869
2.66 -0.359216
2.67 -0.362828
2.68 -0.365674
2.69 -0.367705
2.7 -0.368961
2.71 -0.369532
2.72 -0.369486
2.73 -0.368902
2.74 -0.367869
2.75 -0.366477
2.76 -0.364796
2.77 -0.362946
2.78 -0.360998
2.79 -0.359013
2.8 -0.357033
2.81 -0.355087
2.82 -0.353192
2.83 -0.351342
2.84 -0.349517
2.85 -0.347687
2.86 -0.345818
2.87 -0.343868
2.88 -0.341796
2.89 -0.339542
2.9 -0.337083
2.91 -0.334398
2.92 -0.331469
2.93 -0.32829
2.94 -0.324867
2.95 -0.321203
2.96 -0.317317
2.97 -0.313256
2.98 -0.309049
2.99 -0.304726
3 -0.30031
3.01 -0.295817
3.02 -0.291242
3.03 -0.286571
3.04 -0.281771
3.05 -0.276784
3.06 -0.27153
3.07 -0.265908
3.08 -0.259777
3.09 -0.252941
3.1 -0.245285
3.11 -0.236637
3.12 -0.226826
3.13 -0.215675
3.14 -0.20302
3.15 -0.188553
3.16 -0.172215
3.17 -0.153959
3.18 -0.133719
3.19 -0.111464
3.2 -0.0872029
3.21 -0.060951
3.22 -0.0326841
3.23 -0.00274252
3.24 0.0286782
3.25 0.0613441
3.26 0.0949867
3.27 0.129309
3.28 0.163992
3.29 0.198642
3.3 0.232902
3.31 0.266431
3.32 0.298899
3.33 0.329993
3.34 0.359405
3.35 0.386659
3.36 0.411728
3.37 0.434437
3.38 0.454654
3.39 0.472289
3.4 0.487296
3.41 0.499503
3.42 0.508974
3.43 0.515928
3.44 0.520465
3.45 0.522712
3.46 0.52281
3.47 0.520915
3.48 0.516993
3.49 0.51143
3.5 0.504386
3.51 0.496007
3.52 0.486431
3.53 0.475779
3.54 0.464118
3.55 0.451539
3.56 0.438184
3.57 0.424118
3.58 0.409398
3.59 0.394075
3.6 0.3782
3.61 0.361774
3.62 0.344906
3.63 0.327667
3.64 0.310133
3.65 0.292392
3.66 0.274548
3.67 0.256723
3.68 0.239077
3.69 0.221755
3.7 0.204917
3.71 0.188728
3.72 0.173361
3.73 0.158986
3.74 0.145895
3.75 0.134182
3.76 0.123963
3.77 0.115363
3.78 0.108487
3.79 0.103416
3.8 0.100262
3.81 0.0991633
3.82 0.0999506
3.83 0.102591
3.84 0.107027
3.85 0.113179
3.86 0.120947
3.87 0.130326
3.88 0.1411
3.89 0.153077
3.9 0.166117
3.91 0.180081
3.92 0.194834
3.93 0.210259
3.94 0.226271
3.95 0.242708
3.96 0.259483
3.97 0.276526
3.98 0.293779
3.99 0.311194
4 0.328743
4.01 0.346389
4.02 0.364102
4.03 0.381857
4.04 0.399626
4.05 0.417371
4.06 0.435048
4.07 0.452576
4.08 0.469886
4.09 0.486887
4.1 0.50347
4.11 0.519509
4.12 0.534867
4.13 0.549334
4.14 0.562727
4.15 0.57493
4.16 0.585776
4.17 0.595105
4.18 0.602764
4.19 0.608614
4.2 0.612304
4.21 0.613939
4.22 0.613458
4.23 0.61082
4.24 0.606014
4.25 0.599056
4.26 0.589894
4.27 0.578581
4.28 0.565363
4.29 0.55037
4.3 0.533747
4.31 0.515652
4.32 0.496254
4.33 0.475625
4.34 0.454051
4.35 0.431709
4.36 0.408751
4.37 0.385312
4.38 0.36151
4.39 0.337437
4.4 0.313174
4.41 0.288792
4.42 0.264324
4.43 0.239788
4.44 0.215184
4.45 0.190502
4.46 0.165715
4.47 0.140802
4.48 0.115746
4.49 0.0905329
4.5 0.0651556
4.51 0.0396208
4.52 0.0139476
4.53 -0.011824
4.54 -0.0376202
4.55 -0.0633609
4.56 -0.0889486
4.57 -0.11427
4.58 -0.139199
4.59 -0.163545
4.6 -0.18717
4.61 -0.209951
4.62 -0.231748
4.63 -0.25243
4.64 -0.271879
4.65 -0.289973
4.66 -0.306502
4.67 -0.321554
4.68 -0.335106
4.69 -0.347159
4.7 -0.357744
4.71 -0.366918
4.72 -0.374677
4.73 -0.38117
4.74 -0.386586
4.75 -0.391065
4.76 -0.394755
4.77 -0.39781
4.78 -0.400379
4.79 -0.40259
4.8 -0.404629
4.81 -0.406614
4.82 -0.408648
4.83 -0.410812
4.84 -0.413166
4.85 -0.41576
4.86 -0.418608
4.87 -0.421681
4.88 -0.424946
4.89 -0.428352
4.9 -0.431834
4.91 -0.435317
4.92 -0.438698
4.93 -0.441891
4.94 -0.44481
4.95 -0.447376
4.96 -0.449515
4.97 -0.451165
4.98 -0.452248
4.99 -0.45271
5 -0.452571
5.01 -0.451826
5.02 -0.450482
5.03 -0.448558
5.04 -0.446084
5.05 -0.443048
5.06 -0.439539
5.07 -0.435609
5.08 -0.4313
5.09 -0.42665
5.1 -0.42169
5.11 -0.416439
5.12 -0.410901
5.13 -0.405104
5.14 -0.399046
5.15 -0.392716
5.16 -0.386096
5.17 -0.379164
5.18 -0.371862
5.19 -0.364183
5.2 -0.356116
5.21 -0.347647
5.22 -0.338768
5.23 -0.329486
5.24 -0.319809
5.25 -0.309751
5.26 -0.299399
5.27 -0.28882
5.28 -0.278094
5.29 -0.267315
5.3 -0.256587
5.31 -0.246046
5.32 -0.23582
5.33 -0.22602
5.34 -0.216763
5.35 -0.208157
5.36 -0.200301
5.37 -0.193291
5.38 -0.187281
5.39 -0.182225
5.4 -0.178142
5.41 -0.175027
5.42 -0.172855
5.43 -0.171577
5.44 -0.17117
5.45 -0.171518
5.46 -0.172471
5.47 -0.17391
5.48 -0.175708
5.49 -0.177736
5.5 -0.179863
5.51 -0.181951
5.52 -0.183879
5.53 -0.185549
5.54 -0.186878
5.55 -0.187803
5.56 -0.188279
5.57 -0.188253
5.58 -0.187718
5.59 -0.18672
5.6 -0.185289
5.61 -0.183468
5.62 -0.18131
5.63 -0.178871
5.64 -0.176191
5.65 -0.17335
5.66 -0.170396
5.67 -0.167363
5.68 -0.164271
5.69 -0.161121
5.7 -0.157896
5.71 -0.154551
5.72 -0.151035
5.73 -0.147276
5.74 -0.143187
5.75 -0.138671
5.76 -0.133622
5.77 -0.127858
5.78 -0.121313
5.79 -0.113899
5.8 -0.105534
5.81 -0.0961463
5.82 -0.0856895
5.83 -0.0741033
5.84 -0.0613391
5.85 -0.0475282
5.86 -0.0327387
5.87 -0.017067
5.88 -0.000635998
5.89 0.0164073
5.9 0.0339177
5.91 0.0516626
5.92 0.069433
5.93 0.0870295
5.94 0.104255
5.95 0.12092
5.96 0.13683
5.97 0.151747
5.98 0.165616
5.99 0.178342
6 0.189859
6.01 0.200133
6.02 0.209164
6.03 0.216896
6.04 0.223445
6.05 0.228957
6.06 0.233551
6.07 0.237362
6.08 0.240536
6.09 0.243222
6.1 0.24556
6.11 0.247741
6.12 0.249894
6.13 0.25213
6.14 0.254538
6.15 0.257178
6.16 0.260099
6.17 0.263296
6.18 0.266718
6.19 0.270298
6.2 0.273943
6.21 0.277535
6.22 0.28094
6.23 0.283949
6.24 0.286425
6.25 0.288206
6.26 0.289134
6.27 0.289062
6.28 0.287856
6.29 0.285336
6.3 0.281386
6.31 0.276038
6.32 0.269268
6.33 0.261086
6.34 0.251531
6.35 0.240673
6.36 0.228492
6.37 0.215239
6.38 0.201073
6.39 0.186153
6.4 0.170646
6.41 0.154722
6.42 0.138549
6.43 0.122306
6.44 0.106157
6.45 0.0902317
6.46 0.0746378
6.47 0.0594616
6.48 0.0447649
6.49 0.0306344
6.5 0.0170415
6.51 0.00395691
6.52 -0.00865756
6.53 -0.0208577
6.54 -0.0327132
6.55 -0.0442986
6.56 -0.0557008
6.57 -0.0670276
6.58 -0.0783602
6.59 -0.0897719
6.6 -0.101323
6.61 -0.113061
6.62 -0.125031
6.63 -0.13723
6.64 -0.149634
6.65 -0.162206
6.66 -0.174891
6.67 -0.187615
6.68 -0.200286
6.69 -0.212777
6.7 -0.22498
6.71 -0.236778
6.72 -0.248051
6.73 -0.258682
6.74 -0.268559
6.75 -0.27751
6.76 -0.285454
6.77 -0.292355
6.78 -0.298153
6.79 -0.302804
6.8 -0.30628
6.81 -0.308556
6.82 -0.309517
6.83 -0.309309
6.84 -0.307961
6.85 -0.305506
6.86 -0.301985
6.87 -0.29744
6.88 -0.291856
6.89 -0.285284
6.9 -0.277812
6.91 -0.269464
6.92 -0.26026
6.93 -0.250207
6.94 -0.239305
6.95 -0.227444
6.96 -0.214699
6.97 -0.201045
6.98 -0.186452
6.99 -0.170885
7 -0.154312
7.01 -0.136646
7.02 -0.117841
7.03 -0.0979506
7.04 -0.0769683
7.05 -0.0549005
7.06 -0.0317679
7.07 -0.00760589
7.08 0.0176276
7.09 0.0437668
7.1 0.07071
7.11 0.0983541
7.12 0.126582
7.13 0.155265
7.14 0.184271
7.15 0.213437
7.16 0.242589
7.17 0.271571
7.18 0.300231
7.19 0.328418
7.2 0.355986
7.21 0.382715
7.22 0.408516
7.23 0.433291
7.24 0.456937
7.25 0.479363
7.26 0.500491
7.27 0.520212
7.28 0.53838
7.29 0.555074
7.3 0.570261
7.31 0.583915
7.32 0.596018
7.33 0.606555
7.34 0.615387
7.35 0.622577
7.36 0.628174
7.37 0.632172
7.38 0.634563
7.39 0.635341
7.4 0.634469
7.41 0.631802
7.42 0.627493
7.43 0.621537
7.44 0.613927
7.45 0.604662
7.46 0.593745
7.47 0.581071
7.48 0.566698
7.49 0.550729
7.5 0.533203
7.51 0.514168
7.52 0.493684
7.53 0.471817
7.54 0.448528
7.55 0.424069
7.56 0.398555
7.57 0.372112
7.58 0.344875
7.59 0.31699
7.6 0.288593
7.61 0.259872
7.62 0.23102
7.63 0.202208
7.64 0.173604
7.65 0.145379
7.66 0.117697
7.67 0.0908136
7.68 0.0648182
7.69 0.0398472
7.7 0.0160285
7.71 -0.0065228
7.72 -0.0277062
7.73 -0.0473637
7.74 -0.0653863
7.75 -0.0818288
7.76 -0.0966617
7.77 -0.109873
7.78 -0.121468
7.79 -0.131469
7.8 -0.139763
7.81 -0.146541
7.82 -0.151898
7.83 -0.155917
7.84 -0.158689
7.85 -0.160312
7.86 -0.160859
7.87 -0.160412
7.88 -0.159165
7.89 -0.157227
7.9 -0.154706
7.91 -0.151702
7.92 -0.14831
7.93 -0.144596
7.94 -0.140662
7.95 -0.136578
7.96 -0.132395
7.97 -0.128149
7.98 -0.123868
7.99 -0.119564
8 -0.115241
8.01 -0.110892
8.02 -0.106499
8.03 -0.102041
8.04 -0.0974919
8.05 -0.092823
8.06 -0.0879926
8.07 -0.0829784
8.08 -0.0777664
8.09 -0.0723439
8.1 -0.0667064
8.11 -0.0608593
8.12 -0.0548163
8.13 -0.0485947
8.14 -0.0422557
8.15 -0.0358513
8.16 -0.0294435
8.17 -0.0231023
8.18 -0.0169043
8.19 -0.0109514
8.2 -0.00533428
8.21 -0.000122601
8.22 0.00460671
8.23 0.00878373
8.24 0.0123481
8.25 0.0152491
8.26 0.0173736
8.27 0.0187837
8.28 0.0194828
8.29 0.0194919
8.3 0.0188494
8.31 0.0176109
8.32 0.0158229
8.33 0.0135835
8.34 0.0110229
8.35 0.0082478
8.36 0.00536914
8.37 0.00249889
8.38 -0.000253778
8.39 -0.00275173
8.4 -0.00491777
8.41 -0.00667842
8.42 -0.00797533
8.43 -0.00876936
8.44 -0.00904217
8.45 -0.00877518
8.46 -0.00798835
8.47 -0.00677236
8.48 -0.00520109
8.49 -0.00336664
8.5 -0.00137669
8.51 0.000648656
8.52 0.00255788
8.53 0.00420939
8.54 0.00547145
8.55 0.00621506
8.56 0.00632001
8.57 0.00567866
8.58 0.00416805
8.59 0.00166401
8.6 -0.00180801
8.61 -0.00627012
8.62 -0.0117207
8.63 -0.0181344
8.64 -0.0254632
8.65 -0.0337037
8.66 -0.0427053
8.67 -0.052335
8.68 -0.0624731
8.69 -0.0729921
8.7 -0.0837606
8.71 -0.0946467
8.72 -0.105507
8.73 -0.116214
8.74 -0.126665
8.75 -0.136768
8.76 -0.146449
8.77 -0.155653
8.78 -0.164302
8.79 -0.172395
8.8 -0.179961
8.81 -0.187018
8.82 -0.193604
8.83 -0.199765
8.84 -0.205554
8.85 -0.211013
8.86 -0.216242
8.87 -0.221306
8.88 -0.226261
8.89 -0.231157
8.9 -0.236036
8.91 -0.240927
8.92 -0.245844
8.93 -0.250786
8.94 -0.255735
8.95 -0.260661
8.96 -0.265523
8.97 -0.27027
8.98 -0.274813
8.99 -0.279102
9 -0.283069
9.01 -0.286648
9.02 -0.289777
9.03 -0.2924
9.04 -0.29444
9.05 -0.295853
9.06 -0.296657
9.07 -0.296847
9.08 -0.296434
9.09 -0.295443
9.1 -0.293913
9.11 -0.291847
9.12 -0.289362
9.13 -0.286533
9.14 -0.283436
9.15 -0.280146
9.16 -0.276739
9.17 -0.27329
9.18 -0.269874
9.19 -0.266546
9.2 -0.263352
9.21 -0.260321
9.22 -0.257473
9.23 -0.254812
9.24 -0.252346
9.25 -0.250036
9.26 -0.247845
9.27 -0.245731
9.28 -0.243648
9.29 -0.241543
9.3 -0.239361
9.31 -0.23704
9.32 -0.234543
9.33 -0.231834
9.34 -0.228889
9.35 -0.225692
9.36 -0.222241
9.37 -0.218527
9.38 -0.214591
9.39 -0.210477
9.4 -0.206236
9.41 -0.201921
9.42 -0.197596
9.43 -0.193327
9.44 -0.189199
9.45 -0.185265
9.46 -0.18158
9.47 -0.17819
9.48 -0.175127
9.49 -0.172409
9.5 -0.170065
9.51 -0.168064
9.52 -0.166353
9.53 -0.164878
9.54 -0.163567
9.55 -0.162335
9.56 -0.161081
9.57 -0.159669
9.58 -0.157986
9.59 -0.15591
9.6 -0.153322
9.61 -0.150107
9.62 -0.146157
9.63 -0.141319
9.64 -0.135506
9.65 -0.128703
9.66 -0.120869
9.67 -0.11198
9.68 -0.102036
9.69 -0.0910532
9.7 -0.0789613
9.71 -0.0659381
9.72 -0.0520609
9.73 -0.0374181
9.74 -0.022108
9.75 -0.00623543
9.76 0.0101083
9.77 0.0268031
9.78 0.0437156
9.79 0.0607474
9.8 0.0778087
9.81 0.0948203
9.82 0.111715
9.83 0.128416
9.84 0.144896
9.85 0.161131
9.86 0.177107
9.87 0.192821
9.88 0.208275
9.89 0.22347
9.9 0.238411
9.91 0.253133
9.92 0.267646
9.93 0.281956
9.94 0.296065
9.95 0.309964
9.96 0.323612
9.97 0.336992
9.98 0.350069
9.99 0.362792
10 0.375103
10.01 0.386935
10.02 0.398197
10.03 0.408768
10.04 0.418621
10.05 0.427686
10.06 0.435895
10.07 0.443191
10.08 0.449528
10.09 0.454787
10.1 0.458998
10.11 0.462198
10.12 0.464406
10.13 0.465659
10.14 0.466012
10.15 0.465519
10.16 0.464217
10.17 0.462286
10.18 0.459832
10.19 0.45697
10.2 0.453816
10.21 0.450485
10.22 0.447094
10.23 0.443764
10.24 0.440589
10.25 0.43765
10.26 0.435012
10.27 0.432726
10.28 0.430825
10.29 0.429365
10.3 0.428294
10.31 0.427588
10.32 0.427204
10.33 0.427089
10.34 0.427175
10.35 0.427388
10.36 0.42763
10.37 0.427804
10.38 0.427821
10.39 0.427589
10.4 0.427024
10.41 0.426043
10.42 0.42451
10.43 0.422409
10.44 0.419686
10.45 0.4163
10.46 0.412217
10.47 0.407413
10.48 0.401837
10.49 0.395472
10.5 0.388369
10.51 0.380541
10.52 0.372
10.53 0.362765
10.54 0.352858
10.55 0.342235
10.56 0.33098
10.57 0.319123
10.58 0.306688
10.59 0.293694
10.6 0.280164
10.61 0.266098
10.62 0.2515
10.63 0.236433
10.64 0.22092
10.65 0.204986
10.66 0.188662
10.67 0.171981
10.68 0.154954
10.69 0.13765
10.7 0.120125
10.71 0.10243
10.72 0.0846221
10.73 0.0667593
10.74 0.0489048
10.75 0.0311328
10.76 0.0135031
10.77 -0.00392541
10.78 -0.0210975
10.79 -0.0379631
10.8 -0.0544786
10.81 -0.070575
10.82 -0.0862395
10.83 -0.101472
10.84 -0.116267
10.85 -0.130629
10.86 -0.144574
10.87 -0.158119
10.88 -0.171269
10.89 -0.184104
10.9 -0.196668
10.91 -0.209008
10.92 -0.221173
10.93 -0.233209
10.94 -0.245157
10.95 -0.257061
10.96 -0.268956
10.97 -0.280862
10.98 -0.29279
10.99 -0.304741
11 -0.316704
11.01 -0.328652
11.02 -0.340549
11.03 -0.352351
11.04 -0.364002
11.05 -0.375444
11.06 -0.386609
11.07 -0.397404
11.08 -0.407747
11.09 -0.417588
11.1 -0.426862
11.11 -0.435506
11.12 -0.443466
11.13 -0.450693
11.14 -0.457062
11.15 -0.462623
11.16 -0.467363
11.17 -0.471278
11.18 -0.474369
11.19 -0.476647
11.2 -0.478094
11.21 -0.478719
11.22 -0.478608
11.23 -0.47779
11.24 -0.476298
11.25 -0.47416
11.26 -0.471404
11.27 -0.467995
11.28 -0.464002
11.29 -0.459444
11.3 -0.454327
11.31 -0.448648
11.32 -0.442399
11.33 -0.435546
11.34 -0.428042
11.35 -0.419915
11.36 -0.411144
11.37 -0.401708
11.38 -0.391591
11.39 -0.38078
11.4 -0.369207
11.41 -0.356915
11.42 -0.343938
11.43 -0.330298
11.44 -0.316027
11.45 -0.301169
11.46 -0.285767
11.47 -0.269862
11.48 -0.253579
11.49 -0.237
11.5 -0.220214
11.51 -0.203312
11.52 -0.18639
11.53 -0.169554
11.54 -0.152905
11.55 -0.136527
11.56 -0.120499
11.57 -0.104892
11.58 -0.0897682
11.59 -0.0751873
11.6 -0.0612454
11.61 -0.0479118
11.62 -0.0352014
11.63 -0.0231183
11.64 -0.011657
11.65 -0.000803397
11.66 0.0094269
11.67 0.0190744
11.68 0.0282002
11.69 0.0368378
11.7 0.0450202
11.71 0.0527794
11.72 0.0601434
11.73 0.067098
11.74 0.0737062
11.75 0.079981
11.76 0.0859294
11.77 0.0915531
11.78 0.0968483
11.79 0.101787
11.8 0.106354
11.81 0.110554
11.82 0.114372
11.83 0.117792
11.84 0.120801
11.85 0.123388
11.86 0.125499
11.87 0.127175
11.88 0.128424
11.89 0.129256
11.9 0.129688
11.91 0.12974
11.92 0.129424
11.93 0.128762
11.94 0.127814
11.95 0.126609
11.96 0.125181
11.97 0.123556
11.98 0.121758
11.99 0.119792
12 0.117679
12.01 0.11542
12.02 0.113006
12.03 0.110416
12.04 0.107617
12.05 0.104559
12.06 0.101168
12.07 0.0974037
12.08 0.0931984
12.09 0.0884801
12.1 0.0831742
12.11 0.0772064
12.12 0.0704356
12.13 0.0628279
12.14 0.0543498
12.15 0.0449555
12.16 0.0346121
12.17 0.0233015
12.18 0.0110014
