# xPDFsuite Configuration #
[PDF]
wavelength = 0.1
dataformat = QA
inputfile = BiMsol6_insitu_700 C-00341.xy
backgroundfile = Quartz2mm-dist500-00000.xy
mode = xray
bgscale = 0.0042
composition = Bi2Fe4O9
outputtype = gr
qmaxinst = 24.998449118
qmin = 0.1
qmax = 21.4986662415
rmax = 80.0
rmin = 0.0
rstep = 0.01
rpoly = 0.9

[Misc]
inputdir = C:/Data/Seafile/CPH/Beamtime/Desy Oct 20/In situ data/Processed/BiMsol6/PDF
savedir = C:/Data/Seafile/CPH/Beamtime/Desy Oct 20/In situ data/PDF/BiMsol6
backgroundfilefull = C:/Data/Seafile/CPH/Beamtime/Desy Oct 20/In situ data/Processed/Standard_Empty_Cap/Quartz2mm-dist500-00000.xy

#### start data
#S 1
#L r($\AA$)  G($\AA^{-2}$)
0 0
0.01 0.00658946
0.02 0.0128078
0.03 0.0183374
0.04 0.0228931
0.05 0.0262356
0.06 0.0281824
0.07 0.0285336
0.08 0.0272308
0.09 0.0244206
0.1 0.0202234
0.11 0.0148263
0.12 0.00847493
0.13 0.00146239
0.14 -0.00588201
0.15 -0.0131428
0.16 -0.0199694
0.17 -0.0260328
0.18 -0.031038
0.19 -0.0347381
0.2 -0.0368797
0.21 -0.0372891
0.22 -0.0360662
0.23 -0.0332784
0.24 -0.0290734
0.25 -0.0236745
0.26 -0.0173721
0.27 -0.0104969
0.28 -0.00352583
0.29 0.00311636
0.3 0.0090169
0.31 0.0137831
0.32 0.0170614
0.33 0.0184936
0.34 0.0177287
0.35 0.0148185
0.36 0.00975824
0.37 0.00265056
0.38 -0.00629313
0.39 -0.0167554
0.4 -0.0283689
0.41 -0.0404967
0.42 -0.0525134
0.43 -0.0637823
0.44 -0.0736442
0.45 -0.0814413
0.46 -0.0864773
0.47 -0.0878553
0.48 -0.0853749
0.49 -0.0786687
0.5 -0.0674946
0.51 -0.0517508
0.52 -0.0314865
0.53 -0.00662081
0.54 0.0222845
0.55 0.0544854
0.56 0.0892916
0.57 0.125894
0.58 0.163388
0.59 0.200784
0.6 0.236827
0.61 0.270518
0.62 0.30086
0.63 0.326917
0.64 0.347843
0.65 0.362914
0.66 0.371124
0.67 0.372061
0.68 0.365898
0.69 0.352638
0.7 0.332474
0.71 0.305783
0.72 0.273121
0.73 0.234696
0.74 0.192053
0.75 0.146196
0.76 0.0981875
0.77 0.049132
0.78 0.000143003
0.79 -0.0475771
0.8 -0.0928187
0.81 -0.134756
0.82 -0.172597
0.83 -0.20569
0.84 -0.233544
0.85 -0.25584
0.86 -0.271844
0.87 -0.282136
0.88 -0.287038
0.89 -0.286947
0.9 -0.282394
0.91 -0.274024
0.92 -0.26248
0.93 -0.248587
0.94 -0.2334
0.95 -0.217742
0.96 -0.202399
0.97 -0.188101
0.98 -0.175494
0.99 -0.165371
1 -0.15804
1.01 -0.153711
1.02 -0.15252
1.03 -0.154473
1.04 -0.15945
1.05 -0.167286
1.06 -0.17774
1.07 -0.190131
1.08 -0.203967
1.09 -0.21872
1.1 -0.23385
1.11 -0.248828
1.12 -0.263062
1.13 -0.276084
1.14 -0.287557
1.15 -0.297199
1.16 -0.304818
1.17 -0.310316
1.18 -0.313654
1.19 -0.314775
1.2 -0.314081
1.21 -0.311832
1.22 -0.308343
1.23 -0.303968
1.24 -0.299082
1.25 -0.294081
1.26 -0.289379
1.27 -0.285304
1.28 -0.282129
1.29 -0.28007
1.3 -0.279269
1.31 -0.279807
1.32 -0.281804
1.33 -0.285011
1.34 -0.289257
1.35 -0.294312
1.36 -0.299897
1.37 -0.305701
1.38 -0.311362
1.39 -0.316491
1.4 -0.32078
1.41 -0.323942
1.42 -0.325737
1.43 -0.325979
1.44 -0.324553
1.45 -0.321226
1.46 -0.316234
1.47 -0.309717
1.48 -0.301878
1.49 -0.292984
1.5 -0.283356
1.51 -0.273361
1.52 -0.263449
1.53 -0.254044
1.54 -0.245536
1.55 -0.238291
1.56 -0.232629
1.57 -0.228815
1.58 -0.227265
1.59 -0.22792
1.6 -0.230756
1.61 -0.235693
1.62 -0.242566
1.63 -0.251125
1.64 -0.261083
1.65 -0.272034
1.66 -0.283424
1.67 -0.294777
1.68 -0.305601
1.69 -0.315413
1.7 -0.323749
1.71 -0.329985
1.72 -0.333842
1.73 -0.3351
1.74 -0.333569
1.75 -0.32915
1.76 -0.32184
1.77 -0.311665
1.78 -0.298676
1.79 -0.283421
1.8 -0.266268
1.81 -0.247647
1.82 -0.228032
1.83 -0.207926
1.84 -0.187888
1.85 -0.168488
1.86 -0.150195
1.87 -0.133436
1.88 -0.118577
1.89 -0.105912
1.9 -0.0956912
1.91 -0.0882651
1.92 -0.0833919
1.93 -0.0809907
1.94 -0.080896
1.95 -0.0828656
1.96 -0.0865912
1.97 -0.0917775
1.98 -0.0979366
1.99 -0.104577
2 -0.111275
2.01 -0.11762
2.02 -0.123236
2.03 -0.127786
2.04 -0.130827
2.05 -0.132304
2.06 -0.132112
2.07 -0.130226
2.08 -0.126704
2.09 -0.12168
2.1 -0.115307
2.11 -0.107902
2.12 -0.0998804
2.13 -0.0916155
2.14 -0.0835025
2.15 -0.0759427
2.16 -0.0693283
2.17 -0.0642079
2.18 -0.0608004
2.19 -0.0593584
2.2 -0.0600805
2.21 -0.0630944
2.22 -0.0684521
2.23 -0.0762286
2.24 -0.086353
2.25 -0.098466
2.26 -0.112309
2.27 -0.127571
2.28 -0.143897
2.29 -0.1609
2.3 -0.178164
2.31 -0.195221
2.32 -0.211678
2.33 -0.227177
2.34 -0.2414
2.35 -0.25408
2.36 -0.264942
2.37 -0.273743
2.38 -0.280573
2.39 -0.285446
2.4 -0.288442
2.41 -0.289705
2.42 -0.289433
2.43 -0.287783
2.44 -0.285152
2.45 -0.281891
2.46 -0.278323
2.47 -0.274771
2.48 -0.271542
2.49 -0.268944
2.5 -0.267317
2.51 -0.266796
2.52 -0.267529
2.53 -0.269612
2.54 -0.273085
2.55 -0.277933
2.56 -0.28418
2.57 -0.29164
2.58 -0.300091
2.59 -0.309331
2.6 -0.319132
2.61 -0.329249
2.62 -0.339429
2.63 -0.349375
2.64 -0.358848
2.65 -0.367633
2.66 -0.37554
2.67 -0.382408
2.68 -0.388114
2.69 -0.392482
2.7 -0.395476
2.71 -0.397154
2.72 -0.39754
2.73 -0.39669
2.74 -0.394678
2.75 -0.391597
2.76 -0.387458
2.77 -0.382493
2.78 -0.376813
2.79 -0.370521
2.8 -0.363707
2.81 -0.356446
2.82 -0.348778
2.83 -0.340738
2.84 -0.332361
2.85 -0.323639
2.86 -0.314545
2.87 -0.305042
2.88 -0.295077
2.89 -0.284533
2.9 -0.273396
2.91 -0.261619
2.92 -0.249157
2.93 -0.23598
2.94 -0.222074
2.95 -0.207413
2.96 -0.192011
2.97 -0.175975
2.98 -0.159382
2.99 -0.142328
3 -0.124927
3.01 -0.107306
3.02 -0.0896097
3.03 -0.0720041
3.04 -0.0546326
3.05 -0.0376312
3.06 -0.0211243
3.07 -0.00522019
3.08 0.00996849
3.09 0.0243316
3.1 0.0378982
3.11 0.050665
3.12 0.0626564
3.13 0.073924
3.14 0.084544
3.15 0.0945784
3.16 0.10419
3.17 0.113529
3.18 0.122735
3.19 0.13195
3.2 0.141311
3.21 0.150955
3.22 0.161037
3.23 0.171618
3.24 0.182764
3.25 0.194514
3.26 0.20688
3.27 0.219847
3.28 0.233407
3.29 0.247458
3.3 0.261876
3.31 0.276542
3.32 0.291322
3.33 0.306069
3.34 0.32063
3.35 0.334803
3.36 0.348465
3.37 0.361483
3.38 0.373738
3.39 0.385129
3.4 0.395578
3.41 0.404964
3.42 0.413265
3.43 0.420537
3.44 0.426802
3.45 0.43211
3.46 0.436525
3.47 0.440133
3.48 0.442957
3.49 0.445199
3.5 0.446969
3.51 0.44838
3.52 0.44954
3.53 0.450552
3.54 0.451508
3.55 0.452497
3.56 0.453584
3.57 0.454814
3.58 0.456218
3.59 0.45781
3.6 0.45959
3.61 0.461564
3.62 0.463687
3.63 0.465925
3.64 0.468238
3.65 0.470586
3.66 0.472928
3.67 0.47522
3.68 0.477421
3.69 0.479505
3.7 0.481451
3.71 0.483244
3.72 0.484879
3.73 0.486353
3.74 0.487658
3.75 0.488817
3.76 0.489845
3.77 0.490755
3.78 0.491556
3.79 0.492256
3.8 0.492851
3.81 0.493325
3.82 0.49367
3.83 0.493855
3.84 0.493841
3.85 0.493577
3.86 0.493003
3.87 0.492011
3.88 0.490531
3.89 0.488493
3.9 0.485808
3.91 0.482389
3.92 0.47815
3.93 0.472992
3.94 0.466752
3.95 0.459459
3.96 0.451062
3.97 0.441523
3.98 0.430819
3.99 0.418942
4 0.405817
4.01 0.391501
4.02 0.376089
4.03 0.359633
4.04 0.342197
4.05 0.323856
4.06 0.304685
4.07 0.284708
4.08 0.264105
4.09 0.242968
4.1 0.221391
4.11 0.199463
4.12 0.177272
4.13 0.154895
4.14 0.132425
4.15 0.109944
4.16 0.0875194
4.17 0.0652177
4.18 0.0431
4.19 0.0212258
4.2 -0.000306888
4.21 -0.0214683
4.22 -0.0422023
4.23 -0.0624507
4.24 -0.0821538
4.25 -0.101251
4.26 -0.119644
4.27 -0.137246
4.28 -0.154043
4.29 -0.169972
4.3 -0.184978
4.31 -0.199007
4.32 -0.212015
4.33 -0.223853
4.34 -0.234586
4.35 -0.244218
4.36 -0.252751
4.37 -0.260203
4.38 -0.266605
4.39 -0.271969
4.4 -0.276329
4.41 -0.279844
4.42 -0.282605
4.43 -0.284714
4.44 -0.286281
4.45 -0.287421
4.46 -0.288231
4.47 -0.288861
4.48 -0.289427
4.49 -0.290027
4.5 -0.290752
4.51 -0.291673
4.52 -0.292857
4.53 -0.294366
4.54 -0.296191
4.55 -0.298329
4.56 -0.300756
4.57 -0.303432
4.58 -0.306302
4.59 -0.309299
4.6 -0.312326
4.61 -0.31529
4.62 -0.318098
4.63 -0.320661
4.64 -0.322892
4.65 -0.324705
4.66 -0.325988
4.67 -0.326734
4.68 -0.326914
4.69 -0.326515
4.7 -0.325546
4.71 -0.324034
4.72 -0.321996
4.73 -0.319519
4.74 -0.316711
4.75 -0.313669
4.76 -0.3105
4.77 -0.307317
4.78 -0.304235
4.79 -0.301403
4.8 -0.298914
4.81 -0.296863
4.82 -0.295335
4.83 -0.294396
4.84 -0.294097
4.85 -0.294509
4.86 -0.295641
4.87 -0.29744
4.88 -0.299872
4.89 -0.302886
4.9 -0.306415
4.91 -0.310378
4.92 -0.314712
4.93 -0.319272
4.94 -0.323953
4.95 -0.328653
4.96 -0.333271
4.97 -0.337716
4.98 -0.341885
4.99 -0.345688
5 -0.349084
5.01 -0.352029
5.02 -0.35449
5.03 -0.356446
5.04 -0.357892
5.05 -0.358779
5.06 -0.359163
5.07 -0.359071
5.08 -0.358526
5.09 -0.357549
5.1 -0.35616
5.11 -0.354362
5.12 -0.352144
5.13 -0.349538
5.14 -0.346529
5.15 -0.343096
5.16 -0.339203
5.17 -0.334806
5.18 -0.329792
5.19 -0.324123
5.2 -0.317742
5.21 -0.310573
5.22 -0.302539
5.23 -0.293562
5.24 -0.283545
5.25 -0.272341
5.26 -0.259992
5.27 -0.246457
5.28 -0.23171
5.29 -0.21574
5.3 -0.198554
5.31 -0.180084
5.32 -0.160426
5.33 -0.139689
5.34 -0.117949
5.35 -0.0952981
5.36 -0.07184
5.37 -0.0476808
5.38 -0.0229065
5.39 0.00228495
5.4 0.0277625
5.41 0.0533946
5.42 0.0790509
5.43 0.104604
5.44 0.129909
5.45 0.154836
5.46 0.179288
5.47 0.203161
5.48 0.226361
5.49 0.248796
5.5 0.270379
5.51 0.290916
5.52 0.31043
5.53 0.328847
5.54 0.346094
5.55 0.362099
5.56 0.37679
5.57 0.390013
5.58 0.401677
5.59 0.411796
5.6 0.420299
5.61 0.42712
5.62 0.432194
5.63 0.435464
5.64 0.436674
5.65 0.435967
5.66 0.433334
5.67 0.428765
5.68 0.422265
5.69 0.413858
5.7 0.403504
5.71 0.391226
5.72 0.377244
5.73 0.361664
5.74 0.34461
5.75 0.326222
5.76 0.306654
5.77 0.285993
5.78 0.264515
5.79 0.242423
5.8 0.219904
5.81 0.197141
5.82 0.174315
5.83 0.151606
5.84 0.129209
5.85 0.107254
5.86 0.0858669
5.87 0.0651559
5.88 0.0452099
5.89 0.0260991
5.9 0.0079538
5.91 -0.00924035
5.92 -0.0254983
5.93 -0.0408212
5.94 -0.0552213
5.95 -0.0687196
5.96 -0.0813241
5.97 -0.0930059
5.98 -0.103876
5.99 -0.113959
6 -0.123274
6.01 -0.13183
6.02 -0.139628
6.03 -0.146601
6.04 -0.15275
6.05 -0.158072
6.06 -0.162528
6.07 -0.166067
6.08 -0.168635
6.09 -0.170163
6.1 -0.170485
6.11 -0.169658
6.12 -0.167638
6.13 -0.164389
6.14 -0.159891
6.15 -0.154135
6.16 -0.147057
6.17 -0.138707
6.18 -0.129207
6.19 -0.118634
6.2 -0.107084
6.21 -0.0946706
6.22 -0.0815249
6.23 -0.0677419
6.24 -0.0535625
6.25 -0.0391522
6.26 -0.0246792
6.27 -0.0103105
6.28 0.00379196
6.29 0.0174456
6.3 0.0304852
6.31 0.0428208
6.32 0.0543541
6.33 0.0650088
6.34 0.0747329
6.35 0.0834988
6.36 0.0912054
6.37 0.0979728
6.38 0.103864
6.39 0.108954
6.4 0.113334
6.41 0.117112
6.42 0.120395
6.43 0.123321
6.44 0.12606
6.45 0.128747
6.46 0.131516
6.47 0.134492
6.48 0.137793
6.49 0.141571
6.5 0.145892
6.51 0.150814
6.52 0.156389
6.53 0.162649
6.54 0.169609
6.55 0.177287
6.56 0.185697
6.57 0.194744
6.58 0.204377
6.59 0.214537
6.6 0.225157
6.61 0.236165
6.62 0.247502
6.63 0.259068
6.64 0.270775
6.65 0.282551
6.66 0.294326
6.67 0.306038
6.68 0.317624
6.69 0.329013
6.7 0.340173
6.71 0.351063
6.72 0.361649
6.73 0.371899
6.74 0.381781
6.75 0.391237
6.76 0.400244
6.77 0.408786
6.78 0.416829
6.79 0.424333
6.8 0.431255
6.81 0.437539
6.82 0.443053
6.83 0.447805
6.84 0.451729
6.85 0.454753
6.86 0.456803
6.87 0.457802
6.88 0.457601
6.89 0.456119
6.9 0.453349
6.91 0.449224
6.92 0.443685
6.93 0.436682
6.94 0.428173
6.95 0.417953
6.96 0.406177
6.97 0.392849
6.98 0.377985
6.99 0.361614
7 0.343779
7.01 0.32447
7.02 0.30375
7.03 0.281798
7.04 0.258713
7.05 0.234602
7.06 0.209581
7.07 0.183773
7.08 0.157252
7.09 0.130222
7.1 0.102826
7.11 0.0751963
7.12 0.0474639
7.13 0.0197566
7.14 -0.00779159
7.15 -0.0350371
7.16 -0.0618842
7.17 -0.0882315
7.18 -0.113986
7.19 -0.139062
7.2 -0.163385
7.21 -0.186806
7.22 -0.209316
7.23 -0.230888
7.24 -0.251483
7.25 -0.271069
7.26 -0.289621
7.27 -0.307092
7.28 -0.323406
7.29 -0.338651
7.3 -0.352831
7.31 -0.36595
7.32 -0.37802
7.33 -0.389054
7.34 -0.398991
7.35 -0.4079
7.36 -0.415843
7.37 -0.422849
7.38 -0.428948
7.39 -0.434171
7.4 -0.438542
7.41 -0.442034
7.42 -0.444771
7.43 -0.446793
7.44 -0.448142
7.45 -0.44886
7.46 -0.448992
7.47 -0.448546
7.48 -0.447585
7.49 -0.446177
7.5 -0.444363
7.51 -0.442184
7.52 -0.439677
7.53 -0.436874
7.54 -0.433783
7.55 -0.430461
7.56 -0.426929
7.57 -0.423204
7.58 -0.419296
7.59 -0.41521
7.6 -0.410934
7.61 -0.40646
7.62 -0.401784
7.63 -0.396889
7.64 -0.391752
7.65 -0.386344
7.66 -0.380638
7.67 -0.37456
7.68 -0.36811
7.69 -0.361258
7.7 -0.353976
7.71 -0.346238
7.72 -0.338022
7.73 -0.329291
7.74 -0.320027
7.75 -0.310269
7.76 -0.30003
7.77 -0.289334
7.78 -0.278217
7.79 -0.266723
7.8 -0.254886
7.81 -0.242806
7.82 -0.230568
7.83 -0.218259
7.84 -0.20597
7.85 -0.193801
7.86 -0.181863
7.87 -0.170288
7.88 -0.159154
7.89 -0.148557
7.9 -0.138587
7.91 -0.129324
7.92 -0.120839
7.93 -0.113269
7.94 -0.106611
7.95 -0.100868
7.96 -0.0960525
7.97 -0.0921615
7.98 -0.0891768
7.99 -0.0870875
8 -0.0858954
8.01 -0.0854617
8.02 -0.085718
8.03 -0.0865887
8.04 -0.0879938
8.05 -0.0898514
8.06 -0.0921023
8.07 -0.094643
8.08 -0.0973879
8.09 -0.100273
8.1 -0.103243
8.11 -0.106254
8.12 -0.109273
8.13 -0.112277
8.14 -0.115261
8.15 -0.118229
8.16 -0.121198
8.17 -0.124189
8.18 -0.127231
8.19 -0.130367
8.2 -0.133634
8.21 -0.137059
8.22 -0.140669
8.23 -0.144482
8.24 -0.14851
8.25 -0.152748
8.26 -0.157199
8.27 -0.161801
8.28 -0.166503
8.29 -0.171235
8.3 -0.175915
8.31 -0.180442
8.32 -0.184684
8.33 -0.188497
8.34 -0.191766
8.35 -0.194355
8.36 -0.196129
8.37 -0.196954
8.38 -0.196704
8.39 -0.195121
8.4 -0.192215
8.41 -0.187913
8.42 -0.182153
8.43 -0.174892
8.44 -0.166112
8.45 -0.155749
8.46 -0.143797
8.47 -0.130419
8.48 -0.11569
8.49 -0.099703
8.5 -0.082566
8.51 -0.0643993
8.52 -0.0452574
8.53 -0.0253621
8.54 -0.00486588
8.55 0.016098
8.56 0.0374029
8.57 0.0589313
8.58 0.080578
8.59 0.102242
8.6 0.123843
8.61 0.145324
8.62 0.166647
8.63 0.187787
8.64 0.208733
8.65 0.229472
8.66 0.250028
8.67 0.270427
8.68 0.290692
8.69 0.310844
8.7 0.330902
8.71 0.350875
8.72 0.370759
8.73 0.390546
8.74 0.410207
8.75 0.429697
8.76 0.448954
8.77 0.467897
8.78 0.486392
8.79 0.504324
8.8 0.521584
8.81 0.538034
8.82 0.55353
8.83 0.567924
8.84 0.58105
8.85 0.592616
8.86 0.602622
8.87 0.610944
8.88 0.617471
8.89 0.622112
8.9 0.624792
8.91 0.625327
8.92 0.623709
8.93 0.620041
8.94 0.61434
8.95 0.606645
8.96 0.597012
8.97 0.585513
8.98 0.57204
8.99 0.55691
9 0.540229
9.01 0.522111
9.02 0.502668
9.03 0.482013
9.04 0.460201
9.05 0.437342
9.06 0.413598
9.07 0.389057
9.08 0.363798
9.09 0.337892
9.1 0.311402
9.11 0.284338
9.12 0.256811
9.13 0.228879
9.14 0.200596
9.15 0.172019
9.16 0.14321
9.17 0.114239
9.18 0.0851935
9.19 0.0561799
9.2 0.0273039
9.21 -0.0013167
9.22 -0.0295517
9.23 -0.0572599
9.24 -0.0842102
9.25 -0.110275
9.26 -0.135305
9.27 -0.159133
9.28 -0.181596
9.29 -0.202533
9.3 -0.221736
9.31 -0.238952
9.32 -0.254209
9.33 -0.267405
9.34 -0.278462
9.35 -0.287326
9.36 -0.293964
9.37 -0.298184
9.38 -0.300126
9.39 -0.299912
9.4 -0.297614
9.41 -0.293321
9.42 -0.287143
9.43 -0.279168
9.44 -0.269425
9.45 -0.258225
9.46 -0.245713
9.47 -0.232034
9.48 -0.217329
9.49 -0.201734
9.5 -0.185327
9.51 -0.168262
9.52 -0.15067
9.53 -0.132639
9.54 -0.114243
9.55 -0.0955452
9.56 -0.0765952
9.57 -0.0574197
9.58 -0.0380788
9.59 -0.0186029
9.6 0.000978777
9.61 0.0206359
9.62 0.040334
9.63 0.0600295
9.64 0.0796651
9.65 0.0991796
9.66 0.118501
9.67 0.137546
9.68 0.156221
9.69 0.17442
9.7 0.191948
9.71 0.208741
9.72 0.224674
9.73 0.239622
9.74 0.253461
9.75 0.266073
9.76 0.277278
9.77 0.286945
9.78 0.295088
9.79 0.301648
9.8 0.306589
9.81 0.309894
9.82 0.311571
9.83 0.311487
9.84 0.309851
9.85 0.30676
9.86 0.302312
9.87 0.296618
9.88 0.289805
9.89 0.281972
9.9 0.273252
9.91 0.263859
9.92 0.253934
9.93 0.243612
9.94 0.233016
9.95 0.22226
9.96 0.211442
9.97 0.200656
9.98 0.189963
9.99 0.179402
10 0.168999
10.01 0.158761
10.02 0.148684
10.03 0.13875
10.04 0.128913
10.05 0.119132
10.06 0.109363
10.07 0.0995599
10.08 0.0896804
10.09 0.0796741
10.1 0.0695139
10.11 0.059186
10.12 0.0486843
10.13 0.0380154
10.14 0.0271988
10.15 0.0162658
10.16 0.00526217
10.17 -0.0057431
10.18 -0.0166835
10.19 -0.0274862
10.2 -0.0380747
10.21 -0.0483716
10.22 -0.0582699
10.23 -0.0676987
10.24 -0.076614
10.25 -0.0849646
10.26 -0.0927114
10.27 -0.0998288
10.28 -0.106301
10.29 -0.11207
10.3 -0.117227
10.31 -0.121811
10.32 -0.12587
10.33 -0.129466
10.34 -0.132667
10.35 -0.135537
10.36 -0.138167
10.37 -0.140657
10.38 -0.143084
10.39 -0.145523
10.4 -0.148039
10.41 -0.15069
10.42 -0.153546
10.43 -0.156622
10.44 -0.159933
10.45 -0.163485
10.46 -0.167269
10.47 -0.171263
10.48 -0.175444
10.49 -0.179766
10.5 -0.184169
10.51 -0.188599
10.52 -0.193002
10.53 -0.197324
10.54 -0.201512
10.55 -0.205498
10.56 -0.209254
10.57 -0.212753
10.58 -0.215978
10.59 -0.218917
10.6 -0.221573
10.61 -0.223947
10.62 -0.226056
10.63 -0.227951
10.64 -0.229673
10.65 -0.231264
10.66 -0.232772
10.67 -0.234244
10.68 -0.235732
10.69 -0.237285
10.7 -0.23894
10.71 -0.240726
10.72 -0.242668
10.73 -0.24478
10.74 -0.24707
10.75 -0.249542
10.76 -0.252165
10.77 -0.254912
10.78 -0.257753
10.79 -0.260649
10.8 -0.263559
10.81 -0.266431
10.82 -0.269217
10.83 -0.271875
10.84 -0.274366
10.85 -0.276657
10.86 -0.278721
10.87 -0.280535
10.88 -0.282067
10.89 -0.283342
10.9 -0.28437
10.91 -0.285171
10.92 -0.285769
10.93 -0.286197
10.94 -0.286485
10.95 -0.286682
10.96 -0.286834
10.97 -0.286981
10.98 -0.287158
10.99 -0.287395
11 -0.287715
11.01 -0.288144
11.02 -0.288673
11.03 -0.289291
11.04 -0.289976
11.05 -0.290697
11.06 -0.291408
11.07 -0.292049
11.08 -0.292545
11.09 -0.29283
11.1 -0.292827
11.11 -0.292458
11.12 -0.291646
11.13 -0.290314
11.14 -0.28832
11.15 -0.285656
11.16 -0.282275
11.17 -0.27814
11.18 -0.273222
11.19 -0.267512
11.2 -0.260975
11.21 -0.253619
11.22 -0.245535
11.23 -0.236776
11.24 -0.227408
11.25 -0.217504
11.26 -0.207152
11.27 -0.196418
11.28 -0.18544
11.29 -0.174323
11.3 -0.163167
11.31 -0.152065
11.32 -0.141106
11.33 -0.130381
11.34 -0.119982
11.35 -0.109945
11.36 -0.10031
11.37 -0.0911029
11.38 -0.0823367
11.39 -0.0740082
11.4 -0.0661345
11.41 -0.0586537
11.42 -0.0515076
11.43 -0.0446395
11.44 -0.0379842
11.45 -0.0314696
11.46 -0.0250185
11.47 -0.0185405
11.48 -0.0119519
11.49 -0.00517602
11.5 0.00185942
11.51 0.00922069
11.52 0.0169665
11.53 0.0251833
11.54 0.0338986
11.55 0.0431212
11.56 0.0528665
11.57 0.0631388
11.58 0.0739317
11.59 0.0852348
11.6 0.0970608
11.61 0.109321
11.62 0.12197
11.63 0.134958
11.64 0.14823
11.65 0.161728
11.66 0.175397
11.67 0.189164
11.68 0.202959
11.69 0.216722
11.7 0.230397
11.71 0.243927
11.72 0.257261
11.73 0.270318
11.74 0.28308
11.75 0.295507
11.76 0.307564
11.77 0.31922
11.78 0.330445
11.79 0.341185
11.8 0.351411
11.81 0.361128
11.82 0.370312
11.83 0.378943
11.84 0.386998
11.85 0.394454
11.86 0.401215
11.87 0.407316
11.88 0.412734
11.89 0.417441
11.9 0.421406
11.91 0.424597
11.92 0.426947
11.93 0.428394
11.94 0.428966
11.95 0.428633
11.96 0.427368
11.97 0.425145
11.98 0.421943
11.99 0.417647
12 0.412322
12.01 0.405984
12.02 0.398635
12.03 0.390285
12.04 0.380952
12.05 0.37063
12.06 0.359313
12.07 0.347124
12.08 0.334118
12.09 0.320354
12.1 0.305901
12.11 0.290835
12.12 0.2752
12.13 0.259124
12.14 0.242718
12.15 0.226078
12.16 0.209306
12.17 0.192502
12.18 0.175772
12.19 0.159242
12.2 0.143001
12.21 0.127144
12.22 0.111761
12.23 0.096936
