# xPDFsuite Configuration #
[PDF]
wavelength = 0.1
dataformat = QA
inputfile = BiMsol6_insitu_700 C-00122.xy
backgroundfile = Quartz2mm-dist500-00000.xy
mode = xray
bgscale = 0.0042
composition = Bi2Fe4O9
outputtype = gr
qmaxinst = 24.998449118
qmin = 0.1
qmax = 21.4986662415
rmax = 80.0
rmin = 0.0
rstep = 0.01
rpoly = 0.9

[Misc]
inputdir = C:/Data/Seafile/CPH/Beamtime/Desy Oct 20/In situ data/Processed/BiMsol6/PDF
savedir = C:/Data/Seafile/CPH/Beamtime/Desy Oct 20/In situ data/PDF/BiMsol6
backgroundfilefull = C:/Data/Seafile/CPH/Beamtime/Desy Oct 20/In situ data/Processed/Standard_Empty_Cap/Quartz2mm-dist500-00000.xy

#### start data
#S 1
#L r($\AA$)  G($\AA^{-2}$)
0 0
0.01 0.00631402
0.02 0.0122737
0.03 0.0175757
0.04 0.021948
0.05 0.0251621
0.06 0.0270438
0.07 0.0274027
0.08 0.0261832
0.09 0.0235256
0.1 0.0195452
0.11 0.0144209
0.12 0.00838749
0.13 0.00172485
0.14 -0.0052523
0.15 -0.0121476
0.16 -0.0186267
0.17 -0.024376
0.18 -0.0291143
0.19 -0.0326067
0.2 -0.0346121
0.21 -0.0349657
0.22 -0.0337637
0.23 -0.0310709
0.24 -0.027029
0.25 -0.0218512
0.26 -0.0158148
0.27 -0.00923503
0.28 -0.00256575
0.29 0.0037892
0.3 0.00943788
0.31 0.0140079
0.32 0.0171648
0.33 0.0185703
0.34 0.0178938
0.35 0.0151873
0.36 0.0104495
0.37 0.00378089
0.38 -0.00461441
0.39 -0.0144321
0.4 -0.0253189
0.41 -0.0366695
0.42 -0.0478903
0.43 -0.0583777
0.44 -0.0675077
0.45 -0.0746597
0.46 -0.0791775
0.47 -0.080217
0.48 -0.0775976
0.49 -0.0709804
0.5 -0.0601464
0.51 -0.0450109
0.52 -0.0256327
0.53 -0.0019527
0.54 0.025484
0.55 0.0559628
0.56 0.088819
0.57 0.123277
0.58 0.15847
0.59 0.193457
0.6 0.227032
0.61 0.258263
0.62 0.286208
0.63 0.309987
0.64 0.328808
0.65 0.341995
0.66 0.348607
0.67 0.34827
0.68 0.341172
0.69 0.327332
0.7 0.306951
0.71 0.280406
0.72 0.248237
0.73 0.210666
0.74 0.169166
0.75 0.124697
0.76 0.0782748
0.77 0.0309501
0.78 -0.0162191
0.79 -0.0620895
0.8 -0.105517
0.81 -0.14573
0.82 -0.181985
0.83 -0.213673
0.84 -0.240337
0.85 -0.26168
0.86 -0.277012
0.87 -0.286892
0.88 -0.291629
0.89 -0.291599
0.9 -0.287303
0.91 -0.279348
0.92 -0.268334
0.93 -0.255027
0.94 -0.240417
0.95 -0.225269
0.96 -0.210311
0.97 -0.196218
0.98 -0.183585
0.99 -0.173134
1 -0.16515
1.01 -0.159828
1.02 -0.157291
1.03 -0.157543
1.04 -0.160475
1.05 -0.165937
1.06 -0.173706
1.07 -0.183177
1.08 -0.19391
1.09 -0.205438
1.1 -0.217288
1.11 -0.228997
1.12 -0.240054
1.13 -0.250064
1.14 -0.258748
1.15 -0.26588
1.16 -0.271316
1.17 -0.274997
1.18 -0.276918
1.19 -0.277071
1.2 -0.275822
1.21 -0.273418
1.22 -0.270153
1.23 -0.266347
1.24 -0.262332
1.25 -0.258467
1.26 -0.255095
1.27 -0.252471
1.28 -0.250803
1.29 -0.250244
1.3 -0.250875
1.31 -0.252719
1.32 -0.255824
1.33 -0.259913
1.34 -0.264785
1.35 -0.270189
1.36 -0.275835
1.37 -0.28141
1.38 -0.286547
1.39 -0.290882
1.4 -0.294153
1.41 -0.296108
1.42 -0.29655
1.43 -0.29534
1.44 -0.292408
1.45 -0.287575
1.46 -0.281126
1.47 -0.273243
1.48 -0.264162
1.49 -0.254181
1.5 -0.243643
1.51 -0.232935
1.52 -0.222517
1.53 -0.212792
1.54 -0.204136
1.55 -0.196894
1.56 -0.191357
1.57 -0.187758
1.58 -0.186477
1.59 -0.187408
1.6 -0.190486
1.61 -0.195596
1.62 -0.202535
1.63 -0.211025
1.64 -0.220748
1.65 -0.231269
1.66 -0.242038
1.67 -0.252578
1.68 -0.262402
1.69 -0.271039
1.7 -0.278046
1.71 -0.282813
1.72 -0.285102
1.73 -0.28473
1.74 -0.281539
1.75 -0.275466
1.76 -0.26654
1.77 -0.254815
1.78 -0.240377
1.79 -0.223784
1.8 -0.205415
1.81 -0.185701
1.82 -0.165112
1.83 -0.14414
1.84 -0.123328
1.85 -0.103213
1.86 -0.0842289
1.87 -0.0667659
1.88 -0.0511516
1.89 -0.0376403
1.9 -0.0264408
1.91 -0.0178486
1.92 -0.0116053
1.93 -0.00760521
1.94 -0.00566564
1.95 -0.00553565
1.96 -0.00690754
1.97 -0.00948128
1.98 -0.0127985
1.99 -0.0164133
2 -0.0199429
2.01 -0.0230287
2.02 -0.0253514
2.03 -0.0266385
2.04 -0.0265331
2.05 -0.025045
2.06 -0.0221382
2.07 -0.0178555
2.08 -0.0123166
2.09 -0.00571347
2.1 0.00172399
2.11 0.0096303
2.12 0.0175956
2.13 0.0252318
2.14 0.0321418
2.15 0.0379342
2.16 0.0422393
2.17 0.0444917
2.18 0.0445757
2.19 0.0422997
2.2 0.0375298
2.21 0.0302095
2.22 0.0203626
2.23 0.00799163
2.24 -0.00674265
2.25 -0.0233969
2.26 -0.0416393
2.27 -0.0610888
2.28 -0.0813282
2.29 -0.101917
2.3 -0.122354
2.31 -0.14216
2.32 -0.160927
2.33 -0.178284
2.34 -0.193909
2.35 -0.207541
2.36 -0.218907
2.37 -0.22777
2.38 -0.234287
2.39 -0.238508
2.4 -0.240556
2.41 -0.240615
2.42 -0.238927
2.43 -0.235685
2.44 -0.231341
2.45 -0.22629
2.46 -0.22089
2.47 -0.215495
2.48 -0.210438
2.49 -0.206046
2.5 -0.202677
2.51 -0.20047
2.52 -0.199574
2.53 -0.200079
2.54 -0.202017
2.55 -0.205358
2.56 -0.210112
2.57 -0.21607
2.58 -0.222991
2.59 -0.230655
2.6 -0.238817
2.61 -0.247217
2.62 -0.25559
2.63 -0.263623
2.64 -0.271088
2.65 -0.277777
2.66 -0.283511
2.67 -0.288153
2.68 -0.291605
2.69 -0.29373
2.7 -0.294539
2.71 -0.294142
2.72 -0.292617
2.73 -0.290077
2.74 -0.286663
2.75 -0.282535
2.76 -0.277824
2.77 -0.272789
2.78 -0.267603
2.79 -0.262432
2.8 -0.257421
2.81 -0.252695
2.82 -0.248377
2.83 -0.244544
2.84 -0.241202
2.85 -0.238347
2.86 -0.23595
2.87 -0.233951
2.88 -0.232269
2.89 -0.230816
2.9 -0.229443
2.91 -0.228024
2.92 -0.226436
2.93 -0.224559
2.94 -0.222284
2.95 -0.21949
2.96 -0.216075
2.97 -0.212026
2.98 -0.207317
2.99 -0.201944
3 -0.195928
3.01 -0.189311
3.02 -0.182112
3.03 -0.17446
3.04 -0.16646
3.05 -0.158212
3.06 -0.149818
3.07 -0.141381
3.08 -0.132997
3.09 -0.124766
3.1 -0.116747
3.11 -0.108987
3.12 -0.10151
3.13 -0.0943235
3.14 -0.0874105
3.15 -0.0807499
3.16 -0.0742631
3.17 -0.0678659
3.18 -0.0614683
3.19 -0.0549706
3.2 -0.0482672
3.21 -0.0412419
3.22 -0.033745
3.23 -0.0257116
3.24 -0.0170554
3.25 -0.00770382
3.26 0.00239983
3.27 0.0132943
3.28 0.0250591
3.29 0.0376662
3.3 0.0510561
3.31 0.0651865
3.32 0.0799987
3.33 0.0954197
3.34 0.111369
3.35 0.127784
3.36 0.144509
3.37 0.161441
3.38 0.178482
3.39 0.195531
3.4 0.212499
3.41 0.229285
3.42 0.245808
3.43 0.262017
3.44 0.277861
3.45 0.293302
3.46 0.308311
3.47 0.322869
3.48 0.336911
3.49 0.350484
3.5 0.36359
3.51 0.37623
3.52 0.388409
3.53 0.400127
3.54 0.411357
3.55 0.422085
3.56 0.432329
3.57 0.442067
3.58 0.451274
3.59 0.459916
3.6 0.467953
3.61 0.475269
3.62 0.481867
3.63 0.487704
3.64 0.492725
3.65 0.496877
3.66 0.500108
3.67 0.502329
3.68 0.503457
3.69 0.50353
3.7 0.502524
3.71 0.50042
3.72 0.497211
3.73 0.492901
3.74 0.487402
3.75 0.48082
3.76 0.473217
3.77 0.46464
3.78 0.455144
3.79 0.444794
3.8 0.433641
3.81 0.421734
3.82 0.409223
3.83 0.396199
3.84 0.382753
3.85 0.368977
3.86 0.354967
3.87 0.34081
3.88 0.326618
3.89 0.312482
3.9 0.298487
3.91 0.284711
3.92 0.271227
3.93 0.258109
3.94 0.245454
3.95 0.233272
3.96 0.221599
3.97 0.210462
3.98 0.199877
3.99 0.189846
4 0.180402
4.01 0.171507
4.02 0.163103
4.03 0.155148
4.04 0.147589
4.05 0.140367
4.06 0.133417
4.07 0.126678
4.08 0.120045
4.09 0.113445
4.1 0.106803
4.11 0.100049
4.12 0.0931212
4.13 0.0859487
4.14 0.078484
4.15 0.0707138
4.16 0.0626256
4.17 0.0542225
4.18 0.0455232
4.19 0.0365628
4.2 0.027375
4.21 0.0180567
4.22 0.00868958
4.23 -0.000635254
4.24 -0.00981927
4.25 -0.0187593
4.26 -0.0273284
4.27 -0.0354012
4.28 -0.0429077
4.29 -0.0497634
4.3 -0.0558967
4.31 -0.0612518
4.32 -0.0657912
4.33 -0.0694129
4.34 -0.072198
4.35 -0.0741907
4.36 -0.0754444
4.37 -0.0760324
4.38 -0.0760466
4.39 -0.075582
4.4 -0.0747636
4.41 -0.0737581
4.42 -0.0727011
4.43 -0.0717274
4.44 -0.0709673
4.45 -0.070542
4.46 -0.0706083
4.47 -0.0712362
4.48 -0.0724786
4.49 -0.0743777
4.5 -0.0769506
4.51 -0.0801891
4.52 -0.084075
4.53 -0.0885754
4.54 -0.0935475
4.55 -0.0988854
4.56 -0.104468
4.57 -0.110161
4.58 -0.115825
4.59 -0.121292
4.6 -0.12641
4.61 -0.131054
4.62 -0.135108
4.63 -0.13847
4.64 -0.141057
4.65 -0.142799
4.66 -0.143586
4.67 -0.143504
4.68 -0.142577
4.69 -0.140858
4.7 -0.138421
4.71 -0.135361
4.72 -0.131764
4.73 -0.12779
4.74 -0.123599
4.75 -0.119334
4.76 -0.115137
4.77 -0.111143
4.78 -0.107483
4.79 -0.104329
4.8 -0.101733
4.81 -0.0997669
4.82 -0.0984813
4.83 -0.0979041
4.84 -0.0980403
4.85 -0.0989111
4.86 -0.100471
4.87 -0.102618
4.88 -0.105277
4.89 -0.108359
4.9 -0.11177
4.91 -0.115408
4.92 -0.119174
4.93 -0.122949
4.94 -0.12664
4.95 -0.130167
4.96 -0.133459
4.97 -0.136461
4.98 -0.139115
4.99 -0.141385
5 -0.143287
5.01 -0.144827
5.02 -0.146025
5.03 -0.14691
5.04 -0.147519
5.05 -0.147877
5.06 -0.148054
5.07 -0.148103
5.08 -0.148066
5.09 -0.147984
5.1 -0.14789
5.11 -0.147811
5.12 -0.147767
5.13 -0.147764
5.14 -0.147798
5.15 -0.147859
5.16 -0.14793
5.17 -0.147988
5.18 -0.148003
5.19 -0.147944
5.2 -0.147788
5.21 -0.147511
5.22 -0.147093
5.23 -0.146523
5.24 -0.145791
5.25 -0.14489
5.26 -0.143849
5.27 -0.142689
5.28 -0.141439
5.29 -0.140134
5.3 -0.138814
5.31 -0.137525
5.32 -0.136315
5.33 -0.135222
5.34 -0.134282
5.35 -0.133522
5.36 -0.132962
5.37 -0.132614
5.38 -0.132492
5.39 -0.132558
5.4 -0.13278
5.41 -0.133117
5.42 -0.133516
5.43 -0.133916
5.44 -0.13424
5.45 -0.134404
5.46 -0.134338
5.47 -0.133972
5.48 -0.133238
5.49 -0.132078
5.5 -0.130446
5.51 -0.128247
5.52 -0.125524
5.53 -0.12228
5.54 -0.118535
5.55 -0.114327
5.56 -0.109712
5.57 -0.104744
5.58 -0.0995189
5.59 -0.0941517
5.6 -0.088743
5.61 -0.0833961
5.62 -0.0782126
5.63 -0.073289
5.64 -0.0687589
5.65 -0.0646677
5.66 -0.0610674
5.67 -0.0579945
5.68 -0.0554653
5.69 -0.0534754
5.7 -0.0520193
5.71 -0.0510545
5.72 -0.0504735
5.73 -0.05019
5.74 -0.0501048
5.75 -0.0501092
5.76 -0.0500893
5.77 -0.0499055
5.78 -0.0494456
5.79 -0.0486115
5.8 -0.047315
5.81 -0.0454841
5.82 -0.0430662
5.83 -0.0400092
5.84 -0.0362751
5.85 -0.0319379
5.86 -0.0270422
5.87 -0.021654
5.88 -0.0158587
5.89 -0.00975752
5.9 -0.00345876
5.91 0.00288866
5.92 0.00915311
5.93 0.0152108
5.94 0.020945
5.95 0.0262503
5.96 0.0310238
5.97 0.0351449
5.98 0.038622
5.99 0.0414367
6 0.0435957
6.01 0.0451308
6.02 0.0460974
6.03 0.0465442
6.04 0.0466003
6.05 0.0464024
6.06 0.046077
6.07 0.0457563
6.08 0.0455733
6.09 0.045661
6.1 0.0461888
6.11 0.047227
6.12 0.0488582
6.13 0.0511425
6.14 0.054116
6.15 0.0577885
6.16 0.062184
6.17 0.0672412
6.18 0.0728495
6.19 0.0789122
6.2 0.0853139
6.21 0.0919245
6.22 0.0986034
6.23 0.105178
6.24 0.111498
6.25 0.117424
6.26 0.122826
6.27 0.12759
6.28 0.13162
6.29 0.134799
6.3 0.137064
6.31 0.138451
6.32 0.13897
6.33 0.138659
6.34 0.137577
6.35 0.135806
6.36 0.133397
6.37 0.130536
6.38 0.127357
6.39 0.123994
6.4 0.120581
6.41 0.117246
6.42 0.114124
6.43 0.111346
6.44 0.108982
6.45 0.107098
6.46 0.105739
6.47 0.104929
6.48 0.104666
6.49 0.104973
6.5 0.105759
6.51 0.106945
6.52 0.108449
6.53 0.110175
6.54 0.11202
6.55 0.113872
6.56 0.115605
6.57 0.117116
6.58 0.118309
6.59 0.119102
6.6 0.119424
6.61 0.119222
6.62 0.118412
6.63 0.117005
6.64 0.115028
6.65 0.112504
6.66 0.109474
6.67 0.105994
6.68 0.102126
6.69 0.0979358
6.7 0.0935443
6.71 0.0890409
6.72 0.0845142
6.73 0.0800499
6.74 0.0757278
6.75 0.07164
6.76 0.0678486
6.77 0.06439
6.78 0.0612977
6.79 0.0585916
6.8 0.0562784
6.81 0.0543553
6.82 0.0528378
6.83 0.0516533
6.84 0.0507626
6.85 0.0501202
6.86 0.0496762
6.87 0.0493785
6.88 0.049177
6.89 0.0490127
6.9 0.0488344
6.91 0.0486003
6.92 0.0482748
6.93 0.0478291
6.94 0.0472414
6.95 0.0464782
6.96 0.0455499
6.97 0.0444576
6.98 0.0432071
6.99 0.0418088
7 0.0402765
7.01 0.0386213
7.02 0.0368617
7.03 0.0350227
7.04 0.0331204
7.05 0.0311694
7.06 0.0291815
7.07 0.0271661
7.08 0.0251274
7.09 0.0230704
7.1 0.0209953
7.11 0.0188996
7.12 0.0167794
7.13 0.0146296
7.14 0.0124433
7.15 0.0102136
7.16 0.00793987
7.17 0.00562081
7.18 0.00325746
7.19 0.00085372
7.2 -0.0015835
7.21 -0.00404506
7.22 -0.0065142
7.23 -0.00897374
7.24 -0.0114047
7.25 -0.0137865
7.26 -0.0160972
7.27 -0.018311
7.28 -0.0203959
7.29 -0.0223396
7.3 -0.0241229
7.31 -0.0257287
7.32 -0.0271429
7.33 -0.0283543
7.34 -0.0293378
7.35 -0.0300986
7.36 -0.0306445
7.37 -0.0309791
7.38 -0.0311088
7.39 -0.0310432
7.4 -0.030791
7.41 -0.0303542
7.42 -0.0297665
7.43 -0.029045
7.44 -0.0282075
7.45 -0.0272723
7.46 -0.026258
7.47 -0.0251807
7.48 -0.0240633
7.49 -0.0229275
7.5 -0.0217926
7.51 -0.0206778
7.52 -0.019603
7.53 -0.0185887
7.54 -0.0176666
7.55 -0.0168507
7.56 -0.0161624
7.57 -0.0156236
7.58 -0.0152557
7.59 -0.0150797
7.6 -0.0151292
7.61 -0.0154249
7.62 -0.0159696
7.63 -0.0167753
7.64 -0.0178504
7.65 -0.0191982
7.66 -0.0208172
7.67 -0.0227279
7.68 -0.0248859
7.69 -0.027268
7.7 -0.029846
7.71 -0.0325856
7.72 -0.0354467
7.73 -0.0383856
7.74 -0.0413462
7.75 -0.0442714
7.76 -0.0471079
7.77 -0.0498027
7.78 -0.0523049
7.79 -0.0545669
7.8 -0.0565143
7.81 -0.0581328
7.82 -0.0594014
7.83 -0.0603037
7.84 -0.0608331
7.85 -0.0609932
7.86 -0.0607855
7.87 -0.0602241
7.88 -0.0593725
7.89 -0.0582739
7.9 -0.0569776
7.91 -0.0555374
7.92 -0.0540102
7.93 -0.0524556
7.94 -0.0509374
7.95 -0.0495069
7.96 -0.0482086
7.97 -0.0470792
7.98 -0.0461458
7.99 -0.0454308
8 -0.0449533
8.01 -0.0446843
8.02 -0.0446034
8.03 -0.0446801
8.04 -0.0448744
8.05 -0.045139
8.06 -0.0454177
8.07 -0.045646
8.08 -0.045767
8.09 -0.0457264
8.1 -0.0454752
8.11 -0.0449721
8.12 -0.0441805
8.13 -0.0430523
8.14 -0.0416137
8.15 -0.0398749
8.16 -0.0378608
8.17 -0.0356098
8.18 -0.0331738
8.19 -0.0306128
8.2 -0.0280141
8.21 -0.0254647
8.22 -0.0230496
8.23 -0.0208541
8.24 -0.0189607
8.25 -0.0174471
8.26 -0.0164355
8.27 -0.015932
8.28 -0.0159715
8.29 -0.0165713
8.3 -0.0177303
8.31 -0.0194276
8.32 -0.0216473
8.33 -0.0243201
8.34 -0.0273349
8.35 -0.0305959
8.36 -0.0339954
8.37 -0.0374172
8.38 -0.0407402
8.39 -0.0438051
8.4 -0.046505
8.41 -0.0487327
8.42 -0.0503915
8.43 -0.0514002
8.44 -0.0516959
8.45 -0.0512013
8.46 -0.0498769
8.47 -0.0477873
8.48 -0.0449658
8.49 -0.0414682
8.5 -0.0373703
8.51 -0.0327666
8.52 -0.0277394
8.53 -0.0224563
8.54 -0.0170538
8.55 -0.0116634
8.56 -0.00641406
8.57 -0.001428
8.58 0.00316676
8.59 0.00723893
8.6 0.0107468
8.61 0.0136364
8.62 0.0158761
8.63 0.0174567
8.64 0.0183917
8.65 0.0186684
8.66 0.0183874
8.67 0.0176445
8.68 0.016531
8.69 0.0151482
8.7 0.0136039
8.71 0.0120092
8.72 0.0104893
8.73 0.0091462
8.74 0.00806822
8.75 0.00732969
8.76 0.00698837
8.77 0.00708359
8.78 0.00766965
8.79 0.00872655
8.8 0.01021
8.81 0.0120764
8.82 0.014266
8.83 0.0167056
8.84 0.0193125
8.85 0.0219914
8.86 0.0246328
8.87 0.0271447
8.88 0.0294404
8.89 0.0314419
8.9 0.0330835
8.91 0.0342843
8.92 0.035012
8.93 0.0352762
8.94 0.0350824
8.95 0.0344542
8.96 0.0334318
8.97 0.0320704
8.98 0.0304155
8.99 0.0285852
9 0.0266647
9.01 0.0247416
9.02 0.0229019
9.03 0.0212268
9.04 0.0198057
9.05 0.0187108
9.06 0.0179708
9.07 0.0176141
9.08 0.0176524
9.09 0.0180802
9.1 0.0188752
9.11 0.0200284
9.12 0.0214479
9.13 0.0230628
9.14 0.0247975
9.15 0.0265709
9.16 0.0283
9.17 0.0298944
9.18 0.031261
9.19 0.032344
9.2 0.033089
9.21 0.0334555
9.22 0.0334179
9.23 0.0329674
9.24 0.0320756
9.25 0.0308028
9.26 0.0292018
9.27 0.0273299
9.28 0.0252554
9.29 0.0230553
9.3 0.0208128
9.31 0.0186256
9.32 0.0165775
9.33 0.0147442
9.34 0.0131928
9.35 0.0119789
9.36 0.0111444
9.37 0.0107512
9.38 0.0107864
9.39 0.0112255
9.4 0.0120405
9.41 0.0131882
9.42 0.014612
9.43 0.016246
9.44 0.0180124
9.45 0.0198088
9.46 0.02155
9.47 0.0231527
9.48 0.0245391
9.49 0.0256391
9.5 0.026365
9.51 0.026678
9.52 0.0265675
9.53 0.0260241
9.54 0.0250554
9.55 0.0236857
9.56 0.0219519
9.57 0.0198865
9.58 0.0175964
9.59 0.0151597
9.6 0.01266
9.61 0.0101834
9.62 0.0078153
9.63 0.00565379
9.64 0.00378131
9.65 0.0022478
9.66 0.00110119
9.67 0.00037467
9.68 8.54491e-05
9.69 0.000234212
9.7 0.000850226
9.71 0.00184777
9.72 0.00317634
9.73 0.0047741
9.74 0.00656966
9.75 0.00848484
9.76 0.0104351
9.77 0.0123252
9.78 0.0140749
9.79 0.0156122
9.8 0.0168741
9.81 0.0178096
9.82 0.0183806
9.83 0.0185229
9.84 0.0182669
9.85 0.0176304
9.86 0.0166409
9.87 0.0153403
9.88 0.0137825
9.89 0.0120267
9.9 0.0101512
9.91 0.00824715
9.92 0.00639255
9.93 0.00466348
9.94 0.00313111
9.95 0.00185908
9.96 0.000934456
9.97 0.000379744
9.98 0.000211921
9.99 0.000441104
10 0.00106269
10.01 0.00205767
10.02 0.00340195
10.03 0.00506042
10.04 0.00694584
10.05 0.00899267
10.06 0.0111303
10.07 0.0132855
10.08 0.0153854
10.09 0.0173438
10.1 0.0190947
10.11 0.0205879
10.12 0.0217785
10.13 0.0226329
10.14 0.0231298
10.15 0.023254
10.16 0.0229825
10.17 0.0223712
10.18 0.0214505
10.19 0.0202605
10.2 0.0188487
10.21 0.0172683
10.22 0.0155725
10.23 0.0138303
10.24 0.0121029
10.25 0.010443
10.26 0.00889792
10.27 0.00750784
10.28 0.00630619
10.29 0.0053389
10.3 0.00459512
10.31 0.00407554
10.32 0.00377164
10.33 0.00366648
10.34 0.00373576
10.35 0.00395566
10.36 0.00428517
10.37 0.00467845
10.38 0.00509715
10.39 0.00550408
10.4 0.00586477
10.41 0.00614882
10.42 0.00631742
10.43 0.0063621
10.44 0.00627281
10.45 0.00604593
10.46 0.00568451
10.47 0.00519775
10.48 0.00459585
10.49 0.00389937
10.5 0.0031385
10.51 0.00233748
10.52 0.00152066
10.53 0.000711106
10.54 -7.05905e-05
10.55 -0.000801592
10.56 -0.00147297
10.57 -0.00207969
10.58 -0.00262159
10.59 -0.00310408
10.6 -0.00353787
10.61 -0.00393786
10.62 -0.00432583
10.63 -0.00472672
10.64 -0.00516415
10.65 -0.00566148
10.66 -0.00624035
10.67 -0.00691934
10.68 -0.00772387
10.69 -0.00865511
10.7 -0.0097103
10.71 -0.0108825
10.72 -0.0121573
10.73 -0.0135128
10.74 -0.0149204
10.75 -0.0163407
10.76 -0.0177277
10.77 -0.0190362
10.78 -0.0202193
10.79 -0.0212299
10.8 -0.0220225
10.81 -0.0225316
10.82 -0.0227285
10.83 -0.0225962
10.84 -0.0221169
10.85 -0.0212829
10.86 -0.0200976
10.87 -0.018571
10.88 -0.0167075
10.89 -0.0145812
10.9 -0.0122425
10.91 -0.0097505
10.92 -0.00717147
10.93 -0.00457692
10.94 -0.00205096
10.95 0.000321424
10.96 0.00247069
10.97 0.0043286
10.98 0.00583384
10.99 0.00693413
11 0.00758585
11.01 0.00770675
11.02 0.00733632
11.03 0.00647736
11.04 0.00514717
11.05 0.00337725
11.06 0.00121255
11.07 -0.00130503
11.08 -0.00409604
11.09 -0.00706225
11.1 -0.0101192
11.11 -0.0131789
11.12 -0.0161527
11.13 -0.0189536
11.14 -0.0214622
11.15 -0.0236232
11.16 -0.0253744
11.17 -0.0266629
11.18 -0.0274486
11.19 -0.0277055
11.2 -0.027397
11.21 -0.0265159
11.22 -0.0251223
11.23 -0.0232512
11.24 -0.0209505
11.25 -0.0182787
11.26 -0.0153035
11.27 -0.0120852
11.28 -0.00873142
11.29 -0.0053286
11.3 -0.00195867
11.31 0.00129913
11.32 0.00437044
11.33 0.00717648
11.34 0.00963682
11.35 0.011727
11.36 0.0134121
11.37 0.014669
11.38 0.0154868
11.39 0.0158663
11.4 0.0157846
11.41 0.0152952
11.42 0.0144456
11.43 0.0132794
11.44 0.0118465
11.45 0.0102016
11.46 0.00840055
11.47 0.00650364
11.48 0.0045825
11.49 0.0026929
11.5 0.000886617
11.51 -0.000789814
11.52 -0.00229618
11.53 -0.00358173
11.54 -0.00462678
11.55 -0.0054247
11.56 -0.00596874
11.57 -0.00626007
11.58 -0.00630733
11.59 -0.00612328
11.6 -0.00571392
11.61 -0.0051304
11.62 -0.00440412
11.63 -0.00356902
11.64 -0.0026604
11.65 -0.00171387
11.66 -0.000766279
11.67 0.000144908
11.68 0.000990471
11.69 0.00174477
11.7 0.00238643
11.71 0.00289876
11.72 0.00326973
11.73 0.00347578
11.74 0.00353312
11.75 0.0034462
11.76 0.00322385
11.77 0.00287881
11.78 0.00242715
11.79 0.00188403
11.8 0.00127322
11.81 0.000622344
11.82 -4.58591e-05
11.83 -0.000708932
11.84 -0.00134535
