# xPDFsuite Configuration #
[PDF]
wavelength = 0.1
dataformat = QA
inputfile = BiMsol6_insitu_700 C-00647.xy
backgroundfile = Quartz2mm-dist500-00000.xy
mode = xray
bgscale = 0.0042
composition = Bi2Fe4O9
outputtype = gr
qmaxinst = 24.998449118
qmin = 0.1
qmax = 21.4986662415
rmax = 80.0
rmin = 0.0
rstep = 0.01
rpoly = 0.9

[Misc]
inputdir = C:/Data/Seafile/CPH/Beamtime/Desy Oct 20/In situ data/Processed/BiMsol6/PDF
savedir = C:/Data/Seafile/CPH/Beamtime/Desy Oct 20/In situ data/PDF/BiMsol6
backgroundfilefull = C:/Data/Seafile/CPH/Beamtime/Desy Oct 20/In situ data/Processed/Standard_Empty_Cap/Quartz2mm-dist500-00000.xy

#### start data
#S 1
#L r($\AA$)  G($\AA^{-2}$)
0 0
0.01 0.0065171
0.02 0.0126657
0.03 0.0181303
0.04 0.0226281
0.05 0.0259214
0.06 0.0278292
0.07 0.0281533
0.08 0.0268363
0.09 0.0240238
0.1 0.0198359
0.11 0.0144587
0.12 0.00813617
0.13 0.0011596
0.14 -0.00614389
0.15 -0.0133622
0.16 -0.0201479
0.17 -0.0261749
0.18 -0.031151
0.19 -0.0348322
0.2 -0.0369677
0.21 -0.0373866
0.22 -0.0361886
0.23 -0.0334412
0.24 -0.0292914
0.25 -0.0239606
0.26 -0.0177366
0.27 -0.0109463
0.28 -0.00406086
0.29 0.00250073
0.3 0.00833196
0.31 0.0130467
0.32 0.0162981
0.33 0.0177356
0.34 0.0170166
0.35 0.0141949
0.36 0.00926874
0.37 0.00234228
0.38 -0.00637367
0.39 -0.0165645
0.4 -0.0278658
0.41 -0.0396521
0.42 -0.0513104
0.43 -0.0622181
0.44 -0.071732
0.45 -0.0792125
0.46 -0.0839847
0.47 -0.0851807
0.48 -0.0826161
0.49 -0.0759442
0.5 -0.0649426
0.51 -0.0495273
0.52 -0.0297623
0.53 -0.00559238
0.54 0.0224182
0.55 0.0535322
0.56 0.087063
0.57 0.122211
0.58 0.158085
0.59 0.193718
0.6 0.227869
0.61 0.259588
0.62 0.287913
0.63 0.311947
0.64 0.330885
0.65 0.344046
0.66 0.350477
0.67 0.349809
0.68 0.342249
0.69 0.327832
0.7 0.30678
0.71 0.279493
0.72 0.246542
0.73 0.208181
0.74 0.16592
0.75 0.120751
0.76 0.0737211
0.77 0.0259113
0.78 -0.0215949
0.79 -0.0676226
0.8 -0.111006
0.81 -0.150977
0.82 -0.186786
0.83 -0.217829
0.84 -0.243659
0.85 -0.263994
0.86 -0.278155
0.87 -0.286744
0.88 -0.290106
0.89 -0.288654
0.9 -0.282929
0.91 -0.273578
0.92 -0.261245
0.93 -0.246747
0.94 -0.231106
0.95 -0.215118
0.96 -0.199545
0.97 -0.185083
0.98 -0.172349
0.99 -0.162103
1 -0.15462
1.01 -0.150085
1.02 -0.148615
1.03 -0.1502
1.04 -0.154711
1.05 -0.161979
1.06 -0.171761
1.07 -0.183396
1.08 -0.19641
1.09 -0.210297
1.1 -0.224541
1.11 -0.23864
1.12 -0.252036
1.13 -0.264291
1.14 -0.27509
1.15 -0.284173
1.16 -0.291363
1.17 -0.296574
1.18 -0.299772
1.19 -0.300905
1.2 -0.300348
1.21 -0.298342
1.22 -0.295174
1.23 -0.291166
1.24 -0.286656
1.25 -0.281994
1.26 -0.277552
1.27 -0.273617
1.28 -0.270426
1.29 -0.268163
1.3 -0.266944
1.31 -0.26683
1.32 -0.267908
1.33 -0.269956
1.34 -0.272819
1.35 -0.27629
1.36 -0.280124
1.37 -0.284052
1.38 -0.287761
1.39 -0.290927
1.4 -0.293308
1.41 -0.294677
1.42 -0.294852
1.43 -0.293707
1.44 -0.291173
1.45 -0.2871
1.46 -0.28172
1.47 -0.275185
1.48 -0.267699
1.49 -0.259517
1.5 -0.250931
1.51 -0.242276
1.52 -0.233944
1.53 -0.226268
1.54 -0.219562
1.55 -0.214105
1.56 -0.210132
1.57 -0.207818
1.58 -0.207459
1.59 -0.208933
1.6 -0.212155
1.61 -0.216992
1.62 -0.223239
1.63 -0.230627
1.64 -0.238846
1.65 -0.247487
1.66 -0.256082
1.67 -0.264213
1.68 -0.271463
1.69 -0.277437
1.7 -0.281772
1.71 -0.283956
1.72 -0.283842
1.73 -0.28132
1.74 -0.276309
1.75 -0.268809
1.76 -0.258904
1.77 -0.246704
1.78 -0.232357
1.79 -0.216385
1.8 -0.199158
1.81 -0.181086
1.82 -0.162598
1.83 -0.144133
1.84 -0.126191
1.85 -0.109204
1.86 -0.0935076
1.87 -0.0794001
1.88 -0.0671155
1.89 -0.0568159
1.9 -0.0486174
1.91 -0.0427003
1.92 -0.0387613
1.93 -0.0366398
1.94 -0.036113
1.95 -0.0369062
1.96 -0.0387052
1.97 -0.0411899
1.98 -0.043946
1.99 -0.0466001
2 -0.0488322
2.01 -0.0503592
2.02 -0.0509465
2.03 -0.0504136
2.04 -0.0485118
2.05 -0.0453537
2.06 -0.0409952
2.07 -0.0355638
2.08 -0.0292542
2.09 -0.0223213
2.1 -0.0150726
2.11 -0.00790986
2.12 -0.00122306
2.13 0.00460758
2.14 0.00920986
2.15 0.0122341
2.16 0.0133666
2.17 0.0120838
2.18 0.0083932
2.19 0.00219437
2.2 -0.00655427
2.21 -0.0178166
2.22 -0.0314792
2.23 -0.0474425
2.24 -0.0654542
2.25 -0.0850268
2.26 -0.105783
2.27 -0.12731
2.28 -0.149177
2.29 -0.170946
2.3 -0.192092
2.31 -0.212211
2.32 -0.230954
2.33 -0.248007
2.34 -0.26312
2.35 -0.276104
2.36 -0.286765
2.37 -0.29495
2.38 -0.300894
2.39 -0.30471
2.4 -0.306573
2.41 -0.306711
2.42 -0.305395
2.43 -0.302859
2.44 -0.299536
2.45 -0.295793
2.46 -0.291956
2.47 -0.288335
2.48 -0.285209
2.49 -0.282844
2.5 -0.281523
2.51 -0.281308
2.52 -0.28228
2.53 -0.284463
2.54 -0.287833
2.55 -0.292314
2.56 -0.297849
2.57 -0.30422
2.58 -0.311192
2.59 -0.318556
2.6 -0.326089
2.61 -0.333571
2.62 -0.340782
2.63 -0.347461
2.64 -0.353475
2.65 -0.358689
2.66 -0.363001
2.67 -0.366348
2.68 -0.368702
2.69 -0.370012
2.7 -0.370347
2.71 -0.369839
2.72 -0.368593
2.73 -0.366735
2.74 -0.3644
2.75 -0.361729
2.76 -0.358858
2.77 -0.355953
2.78 -0.353129
2.79 -0.350485
2.8 -0.348097
2.81 -0.346017
2.82 -0.34429
2.83 -0.342918
2.84 -0.341849
2.85 -0.341035
2.86 -0.340409
2.87 -0.339892
2.88 -0.339394
2.89 -0.338806
2.9 -0.338033
2.91 -0.336992
2.92 -0.335606
2.93 -0.333815
2.94 -0.33157
2.95 -0.328818
2.96 -0.32553
2.97 -0.321746
2.98 -0.317484
2.99 -0.312773
3 -0.307647
3.01 -0.302144
3.02 -0.29627
3.03 -0.290084
3.04 -0.283609
3.05 -0.276847
3.06 -0.269782
3.07 -0.262378
3.08 -0.254562
3.09 -0.246216
3.1 -0.23727
3.11 -0.227599
3.12 -0.217068
3.13 -0.205527
3.14 -0.192825
3.15 -0.178685
3.16 -0.163016
3.17 -0.145734
3.18 -0.126735
3.19 -0.10594
3.2 -0.0833047
3.21 -0.0587836
3.22 -0.0322819
3.23 -0.00406469
3.24 0.0257373
3.25 0.0569507
3.26 0.0893614
3.27 0.122718
3.28 0.156763
3.29 0.191119
3.3 0.225424
3.31 0.259334
3.32 0.292501
3.33 0.324583
3.34 0.355233
3.35 0.38394
3.36 0.410588
3.37 0.43494
3.38 0.456795
3.39 0.475995
3.4 0.492429
3.41 0.50585
3.42 0.516263
3.43 0.523855
3.44 0.5287
3.45 0.530905
3.46 0.530608
3.47 0.527975
3.48 0.522963
3.49 0.516037
3.5 0.507405
3.51 0.497276
3.52 0.485853
3.53 0.47333
3.54 0.459853
3.55 0.445601
3.56 0.43078
3.57 0.415516
3.58 0.399923
3.59 0.384093
3.6 0.368105
3.61 0.352024
3.62 0.335917
3.63 0.319834
3.64 0.303819
3.65 0.287915
3.66 0.272169
3.67 0.256643
3.68 0.241414
3.69 0.226532
3.7 0.212076
3.71 0.19813
3.72 0.18479
3.73 0.172156
3.74 0.160424
3.75 0.149659
3.76 0.139953
3.77 0.131415
3.78 0.12415
3.79 0.118252
3.8 0.113852
3.81 0.111119
3.82 0.109978
3.83 0.110467
3.84 0.112604
3.85 0.116393
3.86 0.121818
3.87 0.128973
3.88 0.137724
3.89 0.147948
3.9 0.159565
3.91 0.172483
3.92 0.186603
3.93 0.201834
3.94 0.21813
3.95 0.235269
3.96 0.253134
3.97 0.271607
3.98 0.290572
3.99 0.309914
4 0.32953
4.01 0.349288
4.02 0.369065
4.03 0.388753
4.04 0.408245
4.05 0.427432
4.06 0.446203
4.07 0.464383
4.08 0.481908
4.09 0.498667
4.1 0.51455
4.11 0.529445
4.12 0.543243
4.13 0.555755
4.14 0.566868
4.15 0.576553
4.16 0.584722
4.17 0.591295
4.18 0.596202
4.19 0.599389
4.2 0.600611
4.21 0.600036
4.22 0.597664
4.23 0.593505
4.24 0.587588
4.25 0.579955
4.26 0.570585
4.27 0.559532
4.28 0.546991
4.29 0.533056
4.3 0.517825
4.31 0.5014
4.32 0.483884
4.33 0.465286
4.34 0.4458
4.35 0.425528
4.36 0.404551
4.37 0.382939
4.38 0.360754
4.39 0.338029
4.4 0.314789
4.41 0.291105
4.42 0.267001
4.43 0.242494
4.44 0.217599
4.45 0.192333
4.46 0.16668
4.47 0.14069
4.48 0.114401
4.49 0.0878527
4.5 0.0610963
4.51 0.0341942
4.52 0.00722224
4.53 -0.0197169
4.54 -0.0465149
4.55 -0.0730579
4.56 -0.0992234
4.57 -0.124883
4.58 -0.149904
4.59 -0.174082
4.6 -0.197304
4.61 -0.219479
4.62 -0.240497
4.63 -0.260262
4.64 -0.278695
4.65 -0.295713
4.66 -0.311151
4.67 -0.325141
4.68 -0.337694
4.69 -0.348844
4.7 -0.358646
4.71 -0.367174
4.72 -0.374447
4.73 -0.380612
4.74 -0.385846
4.75 -0.390277
4.76 -0.394034
4.77 -0.397247
4.78 -0.400039
4.79 -0.402508
4.8 -0.404802
4.81 -0.407012
4.82 -0.40921
4.83 -0.411456
4.84 -0.413788
4.85 -0.416237
4.86 -0.418808
4.87 -0.421481
4.88 -0.42423
4.89 -0.427017
4.9 -0.429797
4.91 -0.432519
4.92 -0.435109
4.93 -0.437519
4.94 -0.439698
4.95 -0.441597
4.96 -0.443175
4.97 -0.444398
4.98 -0.445221
4.99 -0.445615
5 -0.4456
5.01 -0.445176
5.02 -0.444348
5.03 -0.443126
5.04 -0.441525
5.05 -0.439523
5.06 -0.437166
5.07 -0.434471
5.08 -0.431445
5.09 -0.428088
5.1 -0.424396
5.11 -0.420347
5.12 -0.415902
5.13 -0.411067
5.14 -0.405813
5.15 -0.400111
5.16 -0.39393
5.17 -0.38724
5.18 -0.379967
5.19 -0.372123
5.2 -0.363714
5.21 -0.354745
5.22 -0.34523
5.23 -0.335201
5.24 -0.324691
5.25 -0.313742
5.26 -0.302477
5.27 -0.290987
5.28 -0.279376
5.29 -0.267757
5.3 -0.256252
5.31 -0.245013
5.32 -0.234171
5.33 -0.223837
5.34 -0.214122
5.35 -0.205129
5.36 -0.196944
5.37 -0.189651
5.38 -0.183387
5.39 -0.178087
5.4 -0.173752
5.41 -0.170364
5.42 -0.167883
5.43 -0.166251
5.44 -0.165436
5.45 -0.165316
5.46 -0.165749
5.47 -0.16662
5.48 -0.167811
5.49 -0.169206
5.5 -0.170691
5.51 -0.172147
5.52 -0.173473
5.53 -0.17459
5.54 -0.175434
5.55 -0.175958
5.56 -0.176131
5.57 -0.175919
5.58 -0.175323
5.59 -0.174384
5.6 -0.173131
5.61 -0.171602
5.62 -0.169836
5.63 -0.167879
5.64 -0.165757
5.65 -0.163524
5.66 -0.161206
5.67 -0.158814
5.68 -0.156348
5.69 -0.153792
5.7 -0.151108
5.71 -0.148236
5.72 -0.14512
5.73 -0.141683
5.74 -0.13784
5.75 -0.133499
5.76 -0.128564
5.77 -0.122863
5.78 -0.116354
5.79 -0.10897
5.8 -0.10065
5.81 -0.0913456
5.82 -0.0810304
5.83 -0.0696671
5.84 -0.0572306
5.85 -0.0438569
5.86 -0.0296212
5.87 -0.0146215
5.88 0.00102289
5.89 0.0171748
5.9 0.0336983
5.91 0.0503895
5.92 0.0670681
5.93 0.0835643
5.94 0.0997129
5.95 0.115358
5.96 0.13034
5.97 0.144465
5.98 0.157699
5.99 0.169968
6 0.181224
6.01 0.191445
6.02 0.200637
6.03 0.208755
6.04 0.215895
6.05 0.222175
6.06 0.227687
6.07 0.232532
6.08 0.236821
6.09 0.240661
6.1 0.244142
6.11 0.247407
6.12 0.250544
6.13 0.253625
6.14 0.256701
6.15 0.259805
6.16 0.262949
6.17 0.266114
6.18 0.26926
6.19 0.272325
6.2 0.275232
6.21 0.277888
6.22 0.280188
6.23 0.281953
6.24 0.283111
6.25 0.283548
6.26 0.283156
6.27 0.281838
6.28 0.27951
6.29 0.276046
6.3 0.271379
6.31 0.265559
6.32 0.258586
6.33 0.250481
6.34 0.241288
6.35 0.231069
6.36 0.219816
6.37 0.207724
6.38 0.194914
6.39 0.181502
6.4 0.16761
6.41 0.153356
6.42 0.138854
6.43 0.124223
6.44 0.109578
6.45 0.095004
6.46 0.0805716
6.47 0.0663364
6.48 0.0523378
6.49 0.0386251
6.5 0.025187
6.51 0.012009
6.52 -0.000928276
6.53 -0.0136536
6.54 -0.0262022
6.55 -0.0386102
6.56 -0.0509177
6.57 -0.0631738
6.58 -0.0754115
6.59 -0.087657
6.6 -0.0999275
6.61 -0.112231
6.62 -0.124564
6.63 -0.136907
6.64 -0.149228
6.65 -0.161489
6.66 -0.173637
6.67 -0.185615
6.68 -0.197351
6.69 -0.208742
6.7 -0.219736
6.71 -0.230261
6.72 -0.240242
6.73 -0.249609
6.74 -0.258297
6.75 -0.266188
6.76 -0.273244
6.77 -0.279453
6.78 -0.28478
6.79 -0.289196
6.8 -0.292679
6.81 -0.295205
6.82 -0.296668
6.83 -0.297165
6.84 -0.296693
6.85 -0.295251
6.86 -0.292838
6.87 -0.28945
6.88 -0.285025
6.89 -0.279561
6.9 -0.273101
6.91 -0.265633
6.92 -0.257143
6.93 -0.247613
6.94 -0.237025
6.95 -0.225236
6.96 -0.212347
6.97 -0.198347
6.98 -0.183226
6.99 -0.166978
7 -0.149607
7.01 -0.131066
7.02 -0.111362
7.03 -0.0905995
7.04 -0.0688208
7.05 -0.0460781
7.06 -0.0224342
7.07 0.00203821
7.08 0.0273245
7.09 0.0532562
7.1 0.0797234
7.11 0.106621
7.12 0.133838
7.13 0.161263
7.14 0.188781
7.15 0.21626
7.16 0.243583
7.17 0.27064
7.18 0.297325
7.19 0.323537
7.2 0.349178
7.21 0.374088
7.22 0.398216
7.23 0.421497
7.24 0.443857
7.25 0.465224
7.26 0.485529
7.27 0.504676
7.28 0.522522
7.29 0.539109
7.3 0.554379
7.31 0.568276
7.32 0.580745
7.33 0.591734
7.34 0.601062
7.35 0.608743
7.36 0.614787
7.37 0.619153
7.38 0.621803
7.39 0.622705
7.4 0.621806
7.41 0.618937
7.42 0.61427
7.43 0.607808
7.44 0.599565
7.45 0.589566
7.46 0.577846
7.47 0.564338
7.48 0.549149
7.49 0.532428
7.5 0.514257
7.51 0.494726
7.52 0.473935
7.53 0.451984
7.54 0.428891
7.55 0.404901
7.56 0.380137
7.57 0.354724
7.58 0.32879
7.59 0.302461
7.6 0.275855
7.61 0.249119
7.62 0.222388
7.63 0.195782
7.64 0.169418
7.65 0.143408
7.66 0.117861
7.67 0.0929572
7.68 0.0687442
7.69 0.045314
7.7 0.0227562
7.71 0.00115507
7.72 -0.0194104
7.73 -0.0388109
7.74 -0.056946
7.75 -0.0738358
7.76 -0.0894311
7.77 -0.103691
7.78 -0.116583
7.79 -0.128087
7.8 -0.138049
7.81 -0.146589
7.82 -0.153745
7.83 -0.159543
7.84 -0.164019
7.85 -0.167221
7.86 -0.169168
7.87 -0.169888
7.88 -0.169558
7.89 -0.168265
7.9 -0.166101
7.91 -0.163163
7.92 -0.159547
7.93 -0.155311
7.94 -0.150597
7.95 -0.145514
7.96 -0.140146
7.97 -0.134573
7.98 -0.128864
7.99 -0.123082
8 -0.11728
8.01 -0.111502
8.02 -0.105776
8.03 -0.10012
8.04 -0.0945433
8.05 -0.089048
8.06 -0.0836351
8.07 -0.0782908
8.08 -0.0730002
8.09 -0.0677505
8.1 -0.0625304
8.11 -0.0573313
8.12 -0.0521489
8.13 -0.0469869
8.14 -0.0418529
8.15 -0.0367632
8.16 -0.0317411
8.17 -0.0268162
8.18 -0.0220246
8.19 -0.0174215
8.2 -0.0130549
8.21 -0.00896189
8.22 -0.00518774
8.23 -0.00177526
8.24 0.00123736
8.25 0.00381684
8.26 0.00588787
8.27 0.0074893
8.28 0.00862139
8.29 0.00929612
8.3 0.00953736
8.31 0.00938063
8.32 0.0088558
8.33 0.00802764
8.34 0.00698276
8.35 0.00579212
8.36 0.0045294
8.37 0.00326838
8.38 0.00208016
8.39 0.00105191
8.4 0.000230793
8.41 -0.000340846
8.42 -0.000632876
8.43 -0.000630089
8.44 -0.000333311
8.45 0.000250917
8.46 0.00108757
8.47 0.00210286
8.48 0.00322843
8.49 0.00438371
8.5 0.00547838
8.51 0.00641521
8.52 0.00705769
8.53 0.00731431
8.54 0.00709371
8.55 0.00630708
8.56 0.00487641
8.57 0.00273732
8.58 -0.000185469
8.59 -0.00396202
8.6 -0.00853445
8.61 -0.0138882
8.62 -0.0199892
8.63 -0.0267844
8.64 -0.0342037
8.65 -0.0422005
8.66 -0.0506329
8.67 -0.0593772
8.68 -0.0683213
8.69 -0.0773522
8.7 -0.0863602
8.71 -0.0952369
8.72 -0.103863
8.73 -0.112177
8.74 -0.120119
8.75 -0.127646
8.76 -0.134737
8.77 -0.141387
8.78 -0.14758
8.79 -0.153372
8.8 -0.158832
8.81 -0.164024
8.82 -0.169023
8.83 -0.173907
8.84 -0.17876
8.85 -0.183677
8.86 -0.188731
8.87 -0.193987
8.88 -0.199494
8.89 -0.205289
8.9 -0.211389
8.91 -0.21781
8.92 -0.224524
8.93 -0.231468
8.94 -0.23858
8.95 -0.245782
8.96 -0.252979
8.97 -0.260069
8.98 -0.266902
8.99 -0.273378
9 -0.279384
9.01 -0.284814
9.02 -0.289568
9.03 -0.293562
9.04 -0.296678
9.05 -0.298852
9.06 -0.300114
9.07 -0.300459
9.08 -0.299908
9.09 -0.2985
9.1 -0.296295
9.11 -0.293307
9.12 -0.289712
9.13 -0.285625
9.14 -0.281165
9.15 -0.276452
9.16 -0.271609
9.17 -0.266758
9.18 -0.262026
9.19 -0.257508
9.2 -0.253285
9.21 -0.249422
9.22 -0.245962
9.23 -0.242933
9.24 -0.240381
9.25 -0.238256
9.26 -0.236514
9.27 -0.235104
9.28 -0.233963
9.29 -0.233018
9.3 -0.232189
9.31 -0.231384
9.32 -0.230512
9.33 -0.229496
9.34 -0.228265
9.35 -0.226759
9.36 -0.224931
9.37 -0.222717
9.38 -0.220116
9.39 -0.217143
9.4 -0.213814
9.41 -0.210159
9.42 -0.206222
9.43 -0.202053
9.44 -0.197708
9.45 -0.193275
9.46 -0.188821
9.47 -0.184412
9.48 -0.180106
9.49 -0.175955
9.5 -0.172016
9.51 -0.168311
9.52 -0.164842
9.53 -0.1616
9.54 -0.158561
9.55 -0.155687
9.56 -0.152922
9.57 -0.150191
9.58 -0.147401
9.59 -0.144459
9.6 -0.141268
9.61 -0.137726
9.62 -0.133731
9.63 -0.129145
9.64 -0.123869
9.65 -0.117852
9.66 -0.111026
9.67 -0.103337
9.68 -0.0947463
9.69 -0.0852306
9.7 -0.0746777
9.71 -0.0632085
9.72 -0.0508553
9.73 -0.0376635
9.74 -0.0236912
9.75 -0.00900799
9.76 0.006336
9.77 0.0222502
9.78 0.0386045
9.79 0.055308
9.8 0.0722712
9.81 0.0894075
9.82 0.106635
9.83 0.123873
9.84 0.141046
9.85 0.158095
9.86 0.17497
9.87 0.19163
9.88 0.208037
9.89 0.224153
9.9 0.23994
9.91 0.255402
9.92 0.270522
9.93 0.285287
9.94 0.29968
9.95 0.313685
9.96 0.327243
9.97 0.340356
9.98 0.353006
9.99 0.365162
10 0.376789
10.01 0.387848
10.02 0.39828
10.03 0.407999
10.04 0.417016
10.05 0.425292
10.06 0.432789
10.07 0.439476
10.08 0.445326
10.09 0.450251
10.1 0.454281
10.11 0.457452
10.12 0.459775
10.13 0.461277
10.14 0.461993
10.15 0.461957
10.16 0.461178
10.17 0.459796
10.18 0.457884
10.19 0.455523
10.2 0.452796
10.21 0.449786
10.22 0.446572
10.23 0.443251
10.24 0.43991
10.25 0.436618
10.26 0.433439
10.27 0.430425
10.28 0.427622
10.29 0.425089
10.3 0.42282
10.31 0.420818
10.32 0.419079
10.33 0.417584
10.34 0.416307
10.35 0.415216
10.36 0.414257
10.37 0.413367
10.38 0.412483
10.39 0.411543
10.4 0.410479
10.41 0.409222
10.42 0.407667
10.43 0.40577
10.44 0.403467
10.45 0.400697
10.46 0.397405
10.47 0.393538
10.48 0.389018
10.49 0.383786
10.5 0.377853
10.51 0.37119
10.52 0.363779
10.53 0.355605
10.54 0.346659
10.55 0.336862
10.56 0.326285
10.57 0.314952
10.58 0.302881
10.59 0.290094
10.6 0.27662
10.61 0.262469
10.62 0.247662
10.63 0.232293
10.64 0.216413
10.65 0.200076
10.66 0.183338
10.67 0.16626
10.68 0.148886
10.69 0.131306
10.7 0.113592
10.71 0.09581
10.72 0.0780243
10.73 0.0602966
10.74 0.0426905
10.75 0.0252784
10.76 0.00809698
10.77 -0.00881158
10.78 -0.0254119
10.79 -0.0416761
10.8 -0.0575836
10.81 -0.0730923
10.82 -0.0882142
10.83 -0.102968
10.84 -0.117367
10.85 -0.131429
10.86 -0.145178
10.87 -0.158641
10.88 -0.171831
10.89 -0.184812
10.9 -0.19762
10.91 -0.210287
10.92 -0.222845
10.93 -0.235324
10.94 -0.247743
10.95 -0.260123
10.96 -0.272474
10.97 -0.284799
10.98 -0.29709
10.99 -0.309335
11 -0.321509
11.01 -0.333569
11.02 -0.345486
11.03 -0.357214
11.04 -0.368706
11.05 -0.379909
11.06 -0.39077
11.07 -0.401205
11.08 -0.41115
11.09 -0.420575
11.1 -0.42943
11.11 -0.437667
11.12 -0.445244
11.13 -0.452125
11.14 -0.458196
11.15 -0.463505
11.16 -0.468041
11.17 -0.471794
11.18 -0.47476
11.19 -0.476938
11.2 -0.478298
11.21 -0.478834
11.22 -0.478614
11.23 -0.477652
11.24 -0.475967
11.25 -0.473576
11.26 -0.470496
11.27 -0.466679
11.28 -0.462195
11.29 -0.457071
11.3 -0.451317
11.31 -0.444943
11.32 -0.437957
11.33 -0.430344
11.34 -0.422082
11.35 -0.413225
11.36 -0.403778
11.37 -0.393748
11.38 -0.38314
11.39 -0.371965
11.4 -0.360187
11.41 -0.347858
11.42 -0.335015
11.43 -0.321681
11.44 -0.307887
11.45 -0.293666
11.46 -0.279049
11.47 -0.264062
11.48 -0.248786
11.49 -0.233275
11.5 -0.217582
11.51 -0.201764
11.52 -0.18588
11.53 -0.169992
11.54 -0.154168
11.55 -0.138467
11.56 -0.122944
11.57 -0.107654
11.58 -0.0926496
11.59 -0.0779825
11.6 -0.0637365
11.61 -0.0499147
11.62 -0.036551
11.63 -0.0236747
11.64 -0.0113102
11.65 0.000522873
11.66 0.0117728
11.67 0.0224369
11.68 0.0325382
11.69 0.0420761
11.7 0.0510535
11.71 0.0594767
11.72 0.067354
11.73 0.0746392
11.74 0.0814095
11.75 0.0876819
11.76 0.0934748
11.77 0.0988077
11.78 0.103701
11.79 0.108154
11.8 0.112188
11.81 0.115851
11.82 0.119161
11.83 0.12214
11.84 0.124806
11.85 0.127176
11.86 0.129236
11.87 0.13103
11.88 0.132569
11.89 0.133863
11.9 0.134917
11.91 0.135733
11.92 0.136301
11.93 0.136609
11.94 0.136667
11.95 0.136463
11.96 0.135985
11.97 0.135215
11.98 0.134135
11.99 0.132686
12 0.130868
12.01 0.128661
12.02 0.126037
12.03 0.122967
12.04 0.119423
12.05 0.115358
12.06 0.110713
12.07 0.105503
12.08 0.0997035
12.09 0.0932925
12.1 0.08625
12.11 0.0785594
12.12 0.0701507
12.13 0.061051
12.14 0.0512785
12.15 0.0408357
12.16 0.0297301
12.17 0.0179754
