# xPDFsuite Configuration #
[PDF]
wavelength = 0.1
dataformat = QA
inputfile = BiMsol6_insitu_700 C-00558.xy
backgroundfile = Quartz2mm-dist500-00000.xy
mode = xray
bgscale = 0.0042
composition = Bi2Fe4O9
outputtype = gr
qmaxinst = 24.998449118
qmin = 0.1
qmax = 21.4986662415
rmax = 80.0
rmin = 0.0
rstep = 0.01
rpoly = 0.9

[Misc]
inputdir = C:/Data/Seafile/CPH/Beamtime/Desy Oct 20/In situ data/Processed/BiMsol6/PDF
savedir = C:/Data/Seafile/CPH/Beamtime/Desy Oct 20/In situ data/PDF/BiMsol6
backgroundfilefull = C:/Data/Seafile/CPH/Beamtime/Desy Oct 20/In situ data/Processed/Standard_Empty_Cap/Quartz2mm-dist500-00000.xy

#### start data
#S 1
#L r($\AA$)  G($\AA^{-2}$)
0 0
0.01 0.00551625
0.02 0.0107129
0.03 0.0153167
0.04 0.0190827
0.05 0.021806
0.06 0.0233312
0.07 0.0234892
0.08 0.0222334
0.09 0.0196934
0.1 0.0159771
0.11 0.0112501
0.12 0.00572791
0.13 -0.000333134
0.14 -0.00664262
0.15 -0.0128439
0.16 -0.0186353
0.17 -0.0237349
0.18 -0.0278917
0.19 -0.0308985
0.2 -0.0325437
0.21 -0.032688
0.22 -0.0314298
0.23 -0.0288396
0.24 -0.0250576
0.25 -0.0202899
0.26 -0.0147996
0.27 -0.00889152
0.28 -0.00298308
0.29 0.00255346
0.3 0.00735765
0.31 0.0110898
0.32 0.0134478
0.33 0.0141277
0.34 0.0128359
0.35 0.0096411
0.36 0.00455991
0.37 -0.00229484
0.38 -0.0107134
0.39 -0.0203924
0.4 -0.0309742
0.41 -0.0418781
0.42 -0.0525367
0.43 -0.0623723
0.44 -0.0707906
0.45 -0.0772029
0.46 -0.0809875
0.47 -0.0813404
0.48 -0.0781111
0.49 -0.0709886
0.5 -0.0597774
0.51 -0.0444109
0.52 -0.02496
0.53 -0.00138287
0.54 0.0257832
0.55 0.0558416
0.56 0.0881447
0.57 0.12194
0.58 0.156389
0.59 0.190584
0.6 0.223357
0.61 0.253817
0.62 0.28106
0.63 0.30424
0.64 0.322598
0.65 0.335484
0.66 0.341994
0.67 0.341768
0.68 0.334991
0.69 0.32168
0.7 0.30203
0.71 0.276399
0.72 0.245309
0.73 0.208963
0.74 0.168782
0.75 0.125689
0.76 0.08066
0.77 0.0347062
0.78 -0.0111538
0.79 -0.0558196
0.8 -0.0981865
0.81 -0.137503
0.82 -0.173045
0.83 -0.204218
0.84 -0.230571
0.85 -0.251808
0.86 -0.26725
0.87 -0.277421
0.88 -0.282606
0.89 -0.283158
0.9 -0.279548
0.91 -0.272351
0.92 -0.262138
0.93 -0.249639
0.94 -0.235817
0.95 -0.22141
0.96 -0.207129
0.97 -0.193636
0.98 -0.18152
0.99 -0.171495
1 -0.16386
1.01 -0.158827
1.02 -0.156539
1.03 -0.157024
1.04 -0.160202
1.05 -0.165953
1.06 -0.174095
1.07 -0.184046
1.08 -0.195394
1.09 -0.207693
1.1 -0.220483
1.11 -0.233313
1.12 -0.245686
1.13 -0.257189
1.14 -0.267519
1.15 -0.276422
1.16 -0.28372
1.17 -0.289313
1.18 -0.293149
1.19 -0.295156
1.2 -0.295647
1.21 -0.294815
1.22 -0.292901
1.23 -0.290177
1.24 -0.286933
1.25 -0.283466
1.26 -0.280102
1.27 -0.277098
1.28 -0.274666
1.29 -0.272968
1.3 -0.272114
1.31 -0.272158
1.32 -0.273179
1.33 -0.274993
1.34 -0.277467
1.35 -0.280424
1.36 -0.283652
1.37 -0.286915
1.38 -0.28994
1.39 -0.292444
1.4 -0.294216
1.41 -0.29506
1.42 -0.294818
1.43 -0.293381
1.44 -0.290693
1.45 -0.286624
1.46 -0.281388
1.47 -0.275126
1.48 -0.268026
1.49 -0.260322
1.5 -0.252283
1.51 -0.244216
1.52 -0.236479
1.53 -0.229376
1.54 -0.223192
1.55 -0.218182
1.56 -0.214561
1.57 -0.212488
1.58 -0.212236
1.59 -0.213689
1.6 -0.216767
1.61 -0.221344
1.62 -0.227232
1.63 -0.234179
1.64 -0.241897
1.65 -0.250006
1.66 -0.258068
1.67 -0.265694
1.68 -0.272493
1.69 -0.278095
1.7 -0.282159
1.71 -0.284202
1.72 -0.28408
1.73 -0.281689
1.74 -0.276944
1.75 -0.269841
1.76 -0.260449
1.77 -0.248865
1.78 -0.235217
1.79 -0.21999
1.8 -0.203528
1.81 -0.186208
1.82 -0.168432
1.83 -0.150609
1.84 -0.133201
1.85 -0.11662
1.86 -0.101186
1.87 -0.087185
1.88 -0.0748423
1.89 -0.0643184
1.9 -0.0557308
1.91 -0.0492576
1.92 -0.0446279
1.93 -0.0417017
1.94 -0.0402801
1.95 -0.0401156
1.96 -0.0409225
1.97 -0.042412
1.98 -0.0442032
1.99 -0.0459499
2 -0.0473572
2.01 -0.0481633
2.02 -0.0481513
2.03 -0.0471541
2.04 -0.0449476
2.05 -0.0416306
2.06 -0.0372561
2.07 -0.0319443
2.08 -0.0258783
2.09 -0.0192975
2.1 -0.0124955
2.11 -0.00585069
2.12 0.000274264
2.13 0.00552121
2.14 0.00953957
2.15 0.0120001
2.16 0.0126077
2.17 0.0108623
2.18 0.00678005
2.19 0.00026918
2.2 -0.00870591
2.21 -0.0201065
2.22 -0.0338196
2.23 -0.0497456
2.24 -0.0676373
2.25 -0.0870219
2.26 -0.107532
2.27 -0.128766
2.28 -0.150305
2.29 -0.171721
2.3 -0.192502
2.31 -0.212255
2.32 -0.230639
2.33 -0.247349
2.34 -0.262139
2.35 -0.274825
2.36 -0.285216
2.37 -0.293162
2.38 -0.298894
2.39 -0.302525
2.4 -0.304227
2.41 -0.304226
2.42 -0.302792
2.43 -0.300156
2.44 -0.296751
2.45 -0.29294
2.46 -0.28905
2.47 -0.285391
2.48 -0.282245
2.49 -0.279879
2.5 -0.27858
2.51 -0.278412
2.52 -0.279457
2.53 -0.281744
2.54 -0.285249
2.55 -0.289896
2.56 -0.295633
2.57 -0.302237
2.58 -0.309471
2.59 -0.317121
2.6 -0.324958
2.61 -0.332755
2.62 -0.340286
2.63 -0.347279
2.64 -0.353591
2.65 -0.359077
2.66 -0.363629
2.67 -0.367172
2.68 -0.369673
2.69 -0.371068
2.7 -0.371421
2.71 -0.370866
2.72 -0.369507
2.73 -0.367469
2.74 -0.364891
2.75 -0.361919
2.76 -0.358689
2.77 -0.355381
2.78 -0.352121
2.79 -0.349018
2.8 -0.346157
2.81 -0.343601
2.82 -0.341404
2.83 -0.33958
2.84 -0.338084
2.85 -0.336873
2.86 -0.335885
2.87 -0.335044
2.88 -0.334262
2.89 -0.333432
2.9 -0.332453
2.91 -0.331236
2.92 -0.329702
2.93 -0.327782
2.94 -0.325423
2.95 -0.322564
2.96 -0.31917
2.97 -0.315274
2.98 -0.310889
2.99 -0.306042
3 -0.300764
3.01 -0.295092
3.02 -0.289033
3.03 -0.282648
3.04 -0.275965
3.05 -0.268992
3.06 -0.261719
3.07 -0.254116
3.08 -0.24612
3.09 -0.237621
3.1 -0.228555
3.11 -0.218805
3.12 -0.20824
3.13 -0.196716
3.14 -0.184087
3.15 -0.170082
3.16 -0.154608
3.17 -0.137581
3.18 -0.118893
3.19 -0.098465
3.2 -0.0762491
3.21 -0.0521965
3.22 -0.0262113
3.23 0.00145039
3.24 0.0306621
3.25 0.0612544
3.26 0.093017
3.27 0.125702
3.28 0.159053
3.29 0.192695
3.3 0.226271
3.31 0.259436
3.32 0.291846
3.33 0.32316
3.34 0.353033
3.35 0.380956
3.36 0.40682
3.37 0.430391
3.38 0.451475
3.39 0.469922
3.4 0.485629
3.41 0.498362
3.42 0.508138
3.43 0.515155
3.44 0.519498
3.45 0.521287
3.46 0.520673
3.47 0.517831
3.48 0.512743
3.49 0.505869
3.5 0.497423
3.51 0.487616
3.52 0.476651
3.53 0.464721
3.54 0.451969
3.55 0.438568
3.56 0.424702
3.57 0.410484
3.58 0.396008
3.59 0.381352
3.6 0.366577
3.61 0.351726
3.62 0.336847
3.63 0.321973
3.64 0.307134
3.65 0.292363
3.66 0.277696
3.67 0.26319
3.68 0.248917
3.69 0.234936
3.7 0.221333
3.71 0.208202
3.72 0.19565
3.73 0.183794
3.74 0.172844
3.75 0.162886
3.76 0.154025
3.77 0.146384
3.78 0.140077
3.79 0.135207
3.8 0.131908
3.81 0.130352
3.82 0.130447
3.83 0.132216
3.84 0.13566
3.85 0.140755
3.86 0.147457
3.87 0.155819
3.88 0.165667
3.89 0.176844
3.9 0.189231
3.91 0.202698
3.92 0.217112
3.93 0.232347
3.94 0.248302
3.95 0.264766
3.96 0.281613
3.97 0.298722
3.98 0.315986
3.99 0.333302
4 0.350574
4.01 0.367711
4.02 0.384647
4.03 0.401318
4.04 0.417667
4.05 0.433639
4.06 0.449177
4.07 0.464166
4.08 0.478598
4.09 0.492406
4.1 0.50552
4.11 0.517863
4.12 0.529348
4.13 0.539822
4.14 0.549177
4.15 0.557366
4.16 0.564287
4.17 0.569839
4.18 0.573927
4.19 0.576461
4.2 0.57717
4.21 0.576162
4.22 0.573397
4.23 0.568848
4.24 0.562507
4.25 0.554384
4.26 0.544431
4.27 0.53268
4.28 0.519328
4.29 0.50447
4.3 0.488218
4.31 0.470694
4.32 0.452028
4.33 0.432269
4.34 0.411655
4.35 0.390335
4.36 0.368436
4.37 0.346075
4.38 0.323356
4.39 0.300362
4.4 0.277168
4.41 0.253846
4.42 0.230434
4.43 0.206953
4.44 0.183411
4.45 0.159806
4.46 0.136116
4.47 0.11233
4.48 0.0884293
4.49 0.0643999
4.5 0.0402326
4.51 0.0159279
4.52 -0.00850419
4.53 -0.0330369
4.54 -0.0576115
4.55 -0.0821633
4.56 -0.106611
4.57 -0.130856
4.58 -0.154787
4.59 -0.178235
4.6 -0.201068
4.61 -0.223164
4.62 -0.244385
4.63 -0.264598
4.64 -0.283677
4.65 -0.301489
4.66 -0.317814
4.67 -0.332711
4.68 -0.346136
4.69 -0.358067
4.7 -0.368512
4.71 -0.377504
4.72 -0.385013
4.73 -0.39117
4.74 -0.396152
4.75 -0.40009
4.76 -0.40313
4.77 -0.405425
4.78 -0.407134
4.79 -0.408389
4.8 -0.409405
4.81 -0.410325
4.82 -0.411278
4.83 -0.412375
4.84 -0.413703
4.85 -0.415351
4.86 -0.417363
4.87 -0.419731
4.88 -0.422443
4.89 -0.425462
4.9 -0.428734
4.91 -0.432184
4.92 -0.435725
4.93 -0.439239
4.94 -0.442621
4.95 -0.445768
4.96 -0.448575
4.97 -0.45095
4.98 -0.452777
4.99 -0.453963
5 -0.45449
5.01 -0.454323
5.02 -0.453441
5.03 -0.451842
5.04 -0.449537
5.05 -0.446491
5.06 -0.442804
5.07 -0.438541
5.08 -0.43376
5.09 -0.428521
5.1 -0.422887
5.11 -0.416907
5.12 -0.410631
5.13 -0.404129
5.14 -0.397438
5.15 -0.390585
5.16 -0.383584
5.17 -0.376442
5.18 -0.36914
5.19 -0.361672
5.2 -0.35402
5.21 -0.346161
5.22 -0.338069
5.23 -0.32972
5.24 -0.321086
5.25 -0.312133
5.26 -0.302883
5.27 -0.293345
5.28 -0.28354
5.29 -0.273499
5.3 -0.26327
5.31 -0.252907
5.32 -0.242495
5.33 -0.232123
5.34 -0.22188
5.35 -0.21186
5.36 -0.20216
5.37 -0.19288
5.38 -0.184168
5.39 -0.176057
5.4 -0.168618
5.41 -0.161905
5.42 -0.155957
5.43 -0.150799
5.44 -0.146488
5.45 -0.142993
5.46 -0.140239
5.47 -0.138177
5.48 -0.13674
5.49 -0.135852
5.5 -0.135427
5.51 -0.135402
5.52 -0.13563
5.53 -0.136015
5.54 -0.136464
5.55 -0.136891
5.56 -0.137218
5.57 -0.137366
5.58 -0.137272
5.59 -0.136909
5.6 -0.136249
5.61 -0.135281
5.62 -0.134002
5.63 -0.13242
5.64 -0.130521
5.65 -0.128357
5.66 -0.125957
5.67 -0.123342
5.68 -0.120533
5.69 -0.117546
5.7 -0.114381
5.71 -0.11103
5.72 -0.107492
5.73 -0.103742
5.74 -0.099745
5.75 -0.0954565
5.76 -0.0908242
5.77 -0.0857441
5.78 -0.0801779
5.79 -0.074071
5.8 -0.067364
5.81 -0.0600035
5.82 -0.0519456
5.83 -0.0431339
5.84 -0.0335136
5.85 -0.0231514
5.86 -0.0120714
5.87 -0.000317085
5.88 0.0120486
5.89 0.0249437
5.9 0.0382962
5.91 0.0519512
5.92 0.0657666
5.93 0.079605
5.94 0.0933251
5.95 0.106786
5.96 0.119838
5.97 0.132301
5.98 0.144101
5.99 0.155146
6 0.165359
6.01 0.174688
6.02 0.183105
6.03 0.190536
6.04 0.197038
6.05 0.202698
6.06 0.207584
6.07 0.211781
6.08 0.215389
6.09 0.218512
6.1 0.221245
6.11 0.223749
6.12 0.226133
6.13 0.228494
6.14 0.230915
6.15 0.233462
6.16 0.236191
6.17 0.239121
6.18 0.24223
6.19 0.245483
6.2 0.24882
6.21 0.252158
6.22 0.255393
6.23 0.258364
6.24 0.260951
6.25 0.263012
6.26 0.264401
6.27 0.26498
6.28 0.264616
6.29 0.263127
6.3 0.260388
6.31 0.256392
6.32 0.251094
6.33 0.244471
6.34 0.236531
6.35 0.227311
6.36 0.216758
6.37 0.205089
6.38 0.192441
6.39 0.178951
6.4 0.164775
6.41 0.150078
6.42 0.135022
6.43 0.119797
6.44 0.104589
6.45 0.0895501
6.46 0.0748179
6.47 0.0605097
6.48 0.0467213
6.49 0.0335844
6.5 0.0211026
6.51 0.00927519
6.52 -0.00191034
6.53 -0.0124899
6.54 -0.0225204
6.55 -0.0320651
6.56 -0.0412053
6.57 -0.0500818
6.58 -0.0587998
6.59 -0.0674642
6.6 -0.076175
6.61 -0.0850231
6.62 -0.0941099
6.63 -0.103491
6.64 -0.113195
6.65 -0.123238
6.66 -0.133613
6.67 -0.14429
6.68 -0.155221
6.69 -0.166335
6.7 -0.177513
6.71 -0.188643
6.72 -0.199603
6.73 -0.210261
6.74 -0.22048
6.75 -0.230071
6.76 -0.238899
6.77 -0.246866
6.78 -0.253855
6.79 -0.259768
6.8 -0.264518
6.81 -0.268025
6.82 -0.270107
6.83 -0.270872
6.84 -0.270311
6.85 -0.268431
6.86 -0.265254
6.87 -0.260817
6.88 -0.255096
6.89 -0.248162
6.9 -0.240146
6.91 -0.231111
6.92 -0.221122
6.93 -0.210243
6.94 -0.19853
6.95 -0.185951
6.96 -0.172642
6.97 -0.158639
6.98 -0.143968
6.99 -0.128649
7 -0.112691
7.01 -0.0960706
7.02 -0.0787762
7.03 -0.0608481
7.04 -0.0422833
7.05 -0.0230808
7.06 -0.00324281
7.07 0.0172231
7.08 0.038363
7.09 0.0600946
7.1 0.0823738
7.11 0.105154
7.12 0.128378
7.13 0.151978
7.14 0.175883
7.15 0.199998
7.16 0.224202
7.17 0.248389
7.18 0.272446
7.19 0.296258
7.2 0.319708
7.21 0.342624
7.22 0.364909
7.23 0.386465
7.24 0.407185
7.25 0.426969
7.26 0.445726
7.27 0.463338
7.28 0.479647
7.29 0.494689
7.3 0.508406
7.31 0.520749
7.32 0.531678
7.33 0.541157
7.34 0.549036
7.35 0.555354
7.36 0.560148
7.37 0.563403
7.38 0.565108
7.39 0.565252
7.4 0.563804
7.41 0.560629
7.42 0.555882
7.43 0.549566
7.44 0.541686
7.45 0.532254
7.46 0.521284
7.47 0.508694
7.48 0.494552
7.49 0.478969
7.5 0.461992
7.51 0.443679
7.52 0.424098
7.53 0.403321
7.54 0.381333
7.55 0.358367
7.56 0.334537
7.57 0.309965
7.58 0.284781
7.59 0.259123
7.6 0.233125
7.61 0.206959
7.62 0.180793
7.63 0.154778
7.64 0.129063
7.65 0.103793
7.66 0.079107
7.67 0.0552321
7.68 0.0322248
7.69 0.010191
7.7 -0.0107718
7.71 -0.0305786
7.72 -0.0491584
7.73 -0.0663904
7.74 -0.082199
7.75 -0.0966487
7.76 -0.109728
7.77 -0.121439
7.78 -0.131795
7.79 -0.140821
7.8 -0.148427
7.81 -0.154773
7.82 -0.159932
7.83 -0.163965
7.84 -0.166936
7.85 -0.168913
7.86 -0.169933
7.87 -0.170041
7.88 -0.16938
7.89 -0.168019
7.9 -0.166026
7.91 -0.163464
7.92 -0.160394
7.93 -0.15684
7.94 -0.152889
7.95 -0.148602
7.96 -0.144024
7.97 -0.139195
7.98 -0.134154
7.99 -0.128931
8 -0.123551
8.01 -0.118059
8.02 -0.112479
8.03 -0.106836
8.04 -0.101154
8.05 -0.0954537
8.06 -0.0897602
8.07 -0.0840977
8.08 -0.0784878
8.09 -0.0729527
8.1 -0.0675155
8.11 -0.0621996
8.12 -0.0570314
8.13 -0.0520532
8.14 -0.0472741
8.15 -0.0427181
8.16 -0.0384087
8.17 -0.0343682
8.18 -0.0306172
8.19 -0.0271958
8.2 -0.0241159
8.21 -0.021373
8.22 -0.0189743
8.23 -0.0169221
8.24 -0.015214
8.25 -0.0138433
8.26 -0.0128299
8.27 -0.0121155
8.28 -0.0116744
8.29 -0.0114757
8.3 -0.0114838
8.31 -0.0116592
8.32 -0.0119634
8.33 -0.0123445
8.34 -0.0127488
8.35 -0.0131301
8.36 -0.0134437
8.37 -0.0136475
8.38 -0.0137038
8.39 -0.0135572
8.4 -0.0131988
8.41 -0.0126134
8.42 -0.011793
8.43 -0.0107386
8.44 -0.00946063
8.45 -0.00797126
8.46 -0.00630074
8.47 -0.00450387
8.48 -0.00262893
8.49 -0.000730976
8.5 0.00112945
8.51 0.0028878
8.52 0.00445384
8.53 0.00576614
8.54 0.00676253
8.55 0.00738111
8.56 0.0075653
8.57 0.00726545
8.58 0.00642112
8.59 0.00497055
8.6 0.00293962
8.61 0.000321351
8.62 -0.00287986
8.63 -0.0066484
8.64 -0.0109579
8.65 -0.015812
8.66 -0.0211299
8.67 -0.0268423
8.68 -0.0328898
8.69 -0.0392096
8.7 -0.0457374
8.71 -0.0524108
8.72 -0.0591664
8.73 -0.0659355
8.74 -0.072668
8.75 -0.079321
8.76 -0.08586
8.77 -0.0922595
8.78 -0.098491
8.79 -0.104554
8.8 -0.110458
8.81 -0.116217
8.82 -0.121849
8.83 -0.127378
8.84 -0.132832
8.85 -0.13824
8.86 -0.143639
8.87 -0.149058
8.88 -0.15452
8.89 -0.160043
8.9 -0.165639
8.91 -0.171317
8.92 -0.17707
8.93 -0.182877
8.94 -0.188713
8.95 -0.194547
8.96 -0.200337
8.97 -0.206036
8.98 -0.211571
8.99 -0.216897
9 -0.221959
9.01 -0.226702
9.02 -0.231074
9.03 -0.235031
9.04 -0.238506
9.05 -0.241461
9.06 -0.243907
9.07 -0.245839
9.08 -0.24726
9.09 -0.248187
9.1 -0.248647
9.11 -0.248637
9.12 -0.248252
9.13 -0.247552
9.14 -0.2466
9.15 -0.245459
9.16 -0.244197
9.17 -0.242877
9.18 -0.24157
9.19 -0.240333
9.2 -0.239212
9.21 -0.238243
9.22 -0.237452
9.23 -0.236852
9.24 -0.236464
9.25 -0.236258
9.26 -0.236208
9.27 -0.236277
9.28 -0.236422
9.29 -0.236592
9.3 -0.236728
9.31 -0.236757
9.32 -0.236624
9.33 -0.23627
9.34 -0.235644
9.35 -0.234696
9.36 -0.23339
9.37 -0.231662
9.38 -0.229512
9.39 -0.22695
9.4 -0.223983
9.41 -0.22063
9.42 -0.216917
9.43 -0.212879
9.44 -0.208544
9.45 -0.203995
9.46 -0.199285
9.47 -0.194467
9.48 -0.189594
9.49 -0.184713
9.5 -0.179869
9.51 -0.175096
9.52 -0.17041
9.53 -0.165817
9.54 -0.161313
9.55 -0.156876
9.56 -0.152475
9.57 -0.148059
9.58 -0.143565
9.59 -0.138926
9.6 -0.134069
9.61 -0.128915
9.62 -0.123383
9.63 -0.117357
9.64 -0.110753
9.65 -0.103525
9.66 -0.095613
9.67 -0.0869641
9.68 -0.0775399
9.69 -0.0673148
9.7 -0.056185
9.71 -0.0442507
9.72 -0.0315367
9.73 -0.018081
9.74 -0.00393475
9.75 0.0108387
9.76 0.02619
9.77 0.0420307
9.78 0.0582364
9.79 0.0747149
9.8 0.0913736
9.81 0.108121
9.82 0.12487
9.83 0.141521
9.84 0.157999
9.85 0.174242
9.86 0.190193
9.87 0.205805
9.88 0.221042
9.89 0.235859
9.9 0.250219
9.91 0.264141
9.92 0.277621
9.93 0.290657
9.94 0.303251
9.95 0.315403
9.96 0.327074
9.97 0.338293
9.98 0.349066
9.99 0.359383
10 0.369229
10.01 0.378586
10.02 0.387414
10.03 0.395649
10.04 0.403303
10.05 0.410341
10.06 0.416728
10.07 0.42243
10.08 0.427415
10.09 0.431592
10.1 0.434974
10.11 0.437574
10.12 0.439389
10.13 0.440428
10.14 0.440709
10.15 0.440249
10.16 0.439041
10.17 0.437212
10.18 0.434824
10.19 0.431953
10.2 0.428679
10.21 0.425086
10.22 0.421254
10.23 0.41729
10.24 0.413291
10.25 0.409339
10.26 0.40551
10.27 0.401871
10.28 0.39848
10.29 0.395414
10.3 0.392673
10.31 0.39027
10.32 0.388203
10.33 0.386456
10.34 0.384999
10.35 0.383803
10.36 0.382801
10.37 0.381915
10.38 0.38107
10.39 0.380187
10.4 0.379184
10.41 0.377976
10.42 0.37644
10.43 0.374521
10.44 0.372146
10.45 0.369248
10.46 0.36577
10.47 0.361661
10.48 0.356848
10.49 0.351285
10.5 0.344999
10.51 0.337985
10.52 0.330242
10.53 0.321781
10.54 0.312617
10.55 0.302706
10.56 0.292137
10.57 0.280953
10.58 0.269186
10.59 0.25687
10.6 0.244041
10.61 0.230715
10.62 0.216912
10.63 0.202699
10.64 0.188107
10.65 0.173164
10.66 0.157898
10.67 0.142334
10.68 0.126478
10.69 0.110376
10.7 0.0940637
10.71 0.0775711
10.72 0.0609298
10.73 0.044174
10.74 0.0273396
10.75 0.0104692
10.76 -0.00638832
10.77 -0.0231884
10.78 -0.0398854
10.79 -0.0564329
10.8 -0.0727848
10.81 -0.0888739
10.82 -0.104663
10.83 -0.120124
10.84 -0.135224
10.85 -0.149936
10.86 -0.164241
10.87 -0.17812
10.88 -0.19153
10.89 -0.204522
10.9 -0.217108
10.91 -0.22931
10.92 -0.241155
10.93 -0.252677
10.94 -0.263898
10.95 -0.27487
10.96 -0.285651
10.97 -0.296284
10.98 -0.306807
10.99 -0.317258
11 -0.327666
11.01 -0.338053
11.02 -0.348436
11.03 -0.358815
11.04 -0.369182
11.05 -0.379516
11.06 -0.389785
11.07 -0.399939
11.08 -0.409914
11.09 -0.419653
11.1 -0.429086
11.11 -0.438134
11.12 -0.446718
11.13 -0.454755
11.14 -0.462084
11.15 -0.468682
11.16 -0.47448
11.17 -0.47941
11.18 -0.483413
11.19 -0.48644
11.2 -0.488404
11.21 -0.489251
11.22 -0.489042
11.23 -0.487779
11.24 -0.485474
11.25 -0.482152
11.26 -0.477848
11.27 -0.472515
11.28 -0.46629
11.29 -0.459246
11.3 -0.451444
11.31 -0.442948
11.32 -0.433821
11.33 -0.424107
11.34 -0.413848
11.35 -0.403143
11.36 -0.392038
11.37 -0.380576
11.38 -0.36879
11.39 -0.356708
11.4 -0.344329
11.41 -0.331686
11.42 -0.318795
11.43 -0.305661
11.44 -0.292288
11.45 -0.278675
11.46 -0.264817
11.47 -0.250702
11.48 -0.236355
11.49 -0.221785
11.5 -0.207007
11.51 -0.192039
11.52 -0.176905
11.53 -0.161628
11.54 -0.146256
11.55 -0.130838
11.56 -0.115423
11.57 -0.100063
11.58 -0.0848149
11.59 -0.0697384
11.6 -0.0549203
11.61 -0.0403993
11.62 -0.0262305
11.63 -0.0124655
11.64 0.000848894
11.65 0.0136713
11.66 0.0259303
11.67 0.0376032
11.68 0.048699
11.69 0.0592069
11.7 0.0691237
11.71 0.0784531
11.72 0.0872041
11.73 0.0953314
11.74 0.102923
11.75 0.110003
11.76 0.116598
11.77 0.122738
11.78 0.128449
11.79 0.133738
11.8 0.138631
11.81 0.143174
11.82 0.147385
11.83 0.151276
11.84 0.154857
11.85 0.158133
11.86 0.161072
11.87 0.1637
11.88 0.166012
11.89 0.167999
11.9 0.169647
11.91 0.170944
11.92 0.171858
11.93 0.172361
11.94 0.172467
11.95 0.172162
11.96 0.171435
11.97 0.170277
11.98 0.168677
11.99 0.166586
12 0.16403
12.01 0.161015
12.02 0.157535
12.03 0.153586
12.04 0.149162
12.05 0.14424
12.06 0.138785
12.07 0.132827
12.08 0.126351
12.09 0.119342
12.1 0.111782
12.11 0.10365
12.12 0.0948722
12.13 0.0854565
12.14 0.0754
12.15 0.0646832
12.16 0.0532898
12.17 0.0412081
