# xPDFsuite Configuration #
[PDF]
wavelength = 0.1
dataformat = QA
inputfile = BiMsol6_insitu_700 C-00427.xy
backgroundfile = Quartz2mm-dist500-00000.xy
mode = xray
bgscale = 0.0042
composition = Bi2Fe4O9
outputtype = gr
qmaxinst = 24.998449118
qmin = 0.1
qmax = 21.4986662415
rmax = 80.0
rmin = 0.0
rstep = 0.01
rpoly = 0.9

[Misc]
inputdir = C:/Data/Seafile/CPH/Beamtime/Desy Oct 20/In situ data/Processed/BiMsol6/PDF
savedir = C:/Data/Seafile/CPH/Beamtime/Desy Oct 20/In situ data/PDF/BiMsol6
backgroundfilefull = C:/Data/Seafile/CPH/Beamtime/Desy Oct 20/In situ data/Processed/Standard_Empty_Cap/Quartz2mm-dist500-00000.xy

#### start data
#S 1
#L r($\AA$)  G($\AA^{-2}$)
0 0
0.01 0.00713941
0.02 0.0138802
0.03 0.0198812
0.04 0.024836
0.05 0.0284872
0.06 0.0306381
0.07 0.031073
0.08 0.0297279
0.09 0.0267588
0.1 0.0222936
0.11 0.0165314
0.12 0.00973408
0.13 0.00221458
0.14 -0.00567676
0.15 -0.013494
0.16 -0.0208614
0.17 -0.0274262
0.18 -0.0328712
0.19 -0.0369302
0.2 -0.0393295
0.21 -0.0398796
0.22 -0.0386824
0.23 -0.0358052
0.24 -0.0314004
0.25 -0.0257009
0.26 -0.0190111
0.27 -0.0116743
0.28 -0.00419583
0.29 0.00297541
0.3 0.00940334
0.31 0.0146724
0.32 0.0184075
0.33 0.0202288
0.34 0.0197631
0.35 0.017057
0.36 0.0120993
0.37 0.00499047
0.38 -0.00405541
0.39 -0.0147139
0.4 -0.0266124
0.41 -0.0390932
0.42 -0.0515104
0.43 -0.0632085
0.44 -0.0735086
0.45 -0.081734
0.46 -0.0871699
0.47 -0.0888988
0.48 -0.086712
0.49 -0.0802342
0.5 -0.0692197
0.51 -0.0535671
0.52 -0.0333302
0.53 -0.00843323
0.54 0.0205467
0.55 0.0528486
0.56 0.087766
0.57 0.124473
0.58 0.162048
0.59 0.199489
0.6 0.235519
0.61 0.269138
0.62 0.299344
0.63 0.325202
0.64 0.345871
0.65 0.360639
0.66 0.368513
0.67 0.369101
0.68 0.362604
0.69 0.349046
0.7 0.328646
0.71 0.301806
0.72 0.269102
0.73 0.230781
0.74 0.188387
0.75 0.142932
0.76 0.0954791
0.77 0.047128
0.78 -0.00102067
0.79 -0.0477802
0.8 -0.0919714
0.81 -0.13281
0.82 -0.169542
0.83 -0.201558
0.84 -0.228412
0.85 -0.249826
0.86 -0.265129
0.87 -0.274927
0.88 -0.27957
0.89 -0.279477
0.9 -0.275194
0.91 -0.267369
0.92 -0.256649
0.93 -0.243847
0.94 -0.229969
0.95 -0.215795
0.96 -0.202065
0.97 -0.189453
0.98 -0.178546
0.99 -0.170065
1 -0.16425
1.01 -0.161253
1.02 -0.161157
1.03 -0.163919
1.04 -0.169383
1.05 -0.177347
1.06 -0.187535
1.07 -0.1993
1.08 -0.212169
1.09 -0.225645
1.1 -0.239232
1.11 -0.252455
1.12 -0.264784
1.13 -0.275839
1.14 -0.285366
1.15 -0.29316
1.16 -0.299108
1.17 -0.303181
1.18 -0.305414
1.19 -0.305834
1.2 -0.304849
1.21 -0.302741
1.22 -0.299831
1.23 -0.29646
1.24 -0.292975
1.25 -0.289749
1.26 -0.287121
1.27 -0.285328
1.28 -0.28456
1.29 -0.284943
1.3 -0.28653
1.31 -0.289307
1.32 -0.293275
1.33 -0.298125
1.34 -0.303622
1.35 -0.309485
1.36 -0.3154
1.37 -0.321039
1.38 -0.326014
1.39 -0.329966
1.4 -0.332657
1.41 -0.333861
1.42 -0.333413
1.43 -0.331215
1.44 -0.327246
1.45 -0.321384
1.46 -0.313976
1.47 -0.305256
1.48 -0.295517
1.49 -0.285101
1.5 -0.274394
1.51 -0.263829
1.52 -0.253896
1.53 -0.244983
1.54 -0.237459
1.55 -0.231646
1.56 -0.227805
1.57 -0.226124
1.58 -0.226938
1.59 -0.230055
1.6 -0.235336
1.61 -0.242592
1.62 -0.251548
1.63 -0.261856
1.64 -0.273118
1.65 -0.284825
1.66 -0.296409
1.67 -0.307363
1.68 -0.317191
1.69 -0.325424
1.7 -0.331642
1.71 -0.335245
1.72 -0.336081
1.73 -0.334046
1.74 -0.329067
1.75 -0.32117
1.76 -0.31048
1.77 -0.297161
1.78 -0.281423
1.79 -0.263901
1.8 -0.245056
1.81 -0.225389
1.82 -0.205427
1.83 -0.185698
1.84 -0.166817
1.85 -0.149292
1.86 -0.133505
1.87 -0.119802
1.88 -0.108448
1.89 -0.0996181
1.9 -0.09343
1.91 -0.0900806
1.92 -0.0891663
1.93 -0.0904648
1.94 -0.0936771
1.95 -0.0984402
1.96 -0.104342
1.97 -0.110951
1.98 -0.117729
1.99 -0.124192
2 -0.129914
2.01 -0.134512
2.02 -0.137661
2.03 -0.139097
2.04 -0.138425
2.05 -0.135778
2.06 -0.131179
2.07 -0.124739
2.08 -0.116652
2.09 -0.107187
2.1 -0.0966434
2.11 -0.085471
2.12 -0.074161
2.13 -0.0631603
2.14 -0.0529151
2.15 -0.0438539
2.16 -0.0363721
2.17 -0.0310599
2.18 -0.0280219
2.19 -0.0274375
2.2 -0.0294206
2.21 -0.0340014
2.22 -0.041126
2.23 -0.0507577
2.24 -0.0627002
2.25 -0.0764862
2.26 -0.0917652
2.27 -0.108146
2.28 -0.125212
2.29 -0.142535
2.3 -0.159631
2.31 -0.17607
2.32 -0.191494
2.33 -0.20559
2.34 -0.218101
2.35 -0.228838
2.36 -0.237614
2.37 -0.244291
2.38 -0.24907
2.39 -0.252063
2.4 -0.25344
2.41 -0.253426
2.42 -0.252285
2.43 -0.250271
2.44 -0.247786
2.45 -0.245173
2.46 -0.242742
2.47 -0.24078
2.48 -0.239542
2.49 -0.239269
2.5 -0.240221
2.51 -0.242404
2.52 -0.245861
2.53 -0.25058
2.54 -0.256495
2.55 -0.263493
2.56 -0.271474
2.57 -0.280181
2.58 -0.289355
2.59 -0.29876
2.6 -0.308156
2.61 -0.317309
2.62 -0.325988
2.63 -0.333915
2.64 -0.340984
2.65 -0.34707
2.66 -0.35209
2.67 -0.355998
2.68 -0.358791
2.69 -0.360436
2.7 -0.361027
2.71 -0.360725
2.72 -0.35965
2.73 -0.35794
2.74 -0.355736
2.75 -0.35318
2.76 -0.35039
2.77 -0.347515
2.78 -0.344643
2.79 -0.341835
2.8 -0.339122
2.81 -0.336505
2.82 -0.333953
2.83 -0.331392
2.84 -0.328725
2.85 -0.325838
2.86 -0.322603
2.87 -0.31888
2.88 -0.314531
2.89 -0.309322
2.9 -0.303193
2.91 -0.29605
2.92 -0.287814
2.93 -0.278433
2.94 -0.267889
2.95 -0.256146
2.96 -0.243225
2.97 -0.229297
2.98 -0.214473
2.99 -0.19889
3 -0.182702
3.01 -0.166076
3.02 -0.149178
3.03 -0.13222
3.04 -0.11537
3.05 -0.098777
3.06 -0.0825679
3.07 -0.0668458
3.08 -0.0517042
3.09 -0.0372195
3.1 -0.0233448
3.11 -0.0100504
3.12 0.00272271
3.13 0.0150596
3.14 0.0270671
3.15 0.0388629
3.16 0.0506097
3.17 0.0624512
3.18 0.0745204
3.19 0.0869392
3.2 0.0998123
3.21 0.113234
3.22 0.127308
3.23 0.141996
3.24 0.157281
3.25 0.17311
3.26 0.189399
3.27 0.206032
3.28 0.222867
3.29 0.239705
3.3 0.256347
3.31 0.272596
3.32 0.288246
3.33 0.303098
3.34 0.31695
3.35 0.329493
3.36 0.340692
3.37 0.350429
3.38 0.358618
3.39 0.365207
3.4 0.370179
3.41 0.373459
3.42 0.375131
3.43 0.37538
3.44 0.374332
3.45 0.37214
3.46 0.368978
3.47 0.365033
3.48 0.360458
3.49 0.35554
3.5 0.350477
3.51 0.345458
3.52 0.340661
3.53 0.336245
3.54 0.332382
3.55 0.329215
3.56 0.326796
3.57 0.32519
3.58 0.324439
3.59 0.324562
3.6 0.325561
3.61 0.327506
3.62 0.330281
3.63 0.333832
3.64 0.338107
3.65 0.34305
3.66 0.348604
3.67 0.354732
3.68 0.36139
3.69 0.368487
3.7 0.375977
3.71 0.383822
3.72 0.391984
3.73 0.400431
3.74 0.409153
3.75 0.418098
3.76 0.427228
3.77 0.43651
3.78 0.445902
3.79 0.455358
3.8 0.464824
3.81 0.474225
3.82 0.483491
3.83 0.49254
3.84 0.501288
3.85 0.509641
3.86 0.517503
3.87 0.524719
3.88 0.531205
3.89 0.536888
3.9 0.541679
3.91 0.545495
3.92 0.548265
3.93 0.549906
3.94 0.550275
3.95 0.54945
3.96 0.547416
3.97 0.544171
3.98 0.539726
3.99 0.534102
4 0.527254
4.01 0.519259
4.02 0.510217
4.03 0.500181
4.04 0.4892
4.05 0.477327
4.06 0.464602
4.07 0.450989
4.08 0.436615
4.09 0.421506
4.1 0.405683
4.11 0.38916
4.12 0.371945
4.13 0.354002
4.14 0.335336
4.15 0.315988
4.16 0.295965
4.17 0.27528
4.18 0.253952
4.19 0.232012
4.2 0.209442
4.21 0.186371
4.22 0.162873
4.23 0.139036
4.24 0.114963
4.25 0.0907685
4.26 0.0665837
4.27 0.0425654
4.28 0.0188508
4.29 -0.00442084
4.3 -0.0271134
4.31 -0.049098
4.32 -0.0702565
4.33 -0.0903816
4.34 -0.109464
4.35 -0.127457
4.36 -0.144328
4.37 -0.160064
4.38 -0.174679
4.39 -0.188173
4.4 -0.200577
4.41 -0.212063
4.42 -0.222736
4.43 -0.232715
4.44 -0.242127
4.45 -0.251102
4.46 -0.259759
4.47 -0.268256
4.48 -0.276716
4.49 -0.285237
4.5 -0.293901
4.51 -0.302768
4.52 -0.311881
4.53 -0.321267
4.54 -0.330883
4.55 -0.340689
4.56 -0.350617
4.57 -0.360586
4.58 -0.370496
4.59 -0.38021
4.6 -0.389603
4.61 -0.398559
4.62 -0.40696
4.63 -0.414698
4.64 -0.421674
4.65 -0.427793
4.66 -0.432911
4.67 -0.437081
4.68 -0.440295
4.69 -0.442567
4.7 -0.443936
4.71 -0.444464
4.72 -0.444188
4.73 -0.443241
4.74 -0.441777
4.75 -0.439923
4.76 -0.437812
4.77 -0.435576
4.78 -0.433346
4.79 -0.431271
4.8 -0.429454
4.81 -0.427988
4.82 -0.426946
4.83 -0.426385
4.84 -0.426339
4.85 -0.426855
4.86 -0.427925
4.87 -0.429491
4.88 -0.431511
4.89 -0.43393
4.9 -0.436684
4.91 -0.439699
4.92 -0.442914
4.93 -0.446223
4.94 -0.449555
4.95 -0.452839
4.96 -0.456016
4.97 -0.459031
4.98 -0.46183
4.99 -0.464368
5 -0.466636
5.01 -0.468616
5.02 -0.470296
5.03 -0.471666
5.04 -0.472719
5.05 -0.473411
5.06 -0.473753
5.07 -0.473729
5.08 -0.473309
5.09 -0.472453
5.1 -0.47111
5.11 -0.469197
5.12 -0.466601
5.13 -0.463283
5.14 -0.45915
5.15 -0.454106
5.16 -0.44805
5.17 -0.440883
5.18 -0.432393
5.19 -0.422557
5.2 -0.411334
5.21 -0.398665
5.22 -0.384508
5.23 -0.36884
5.24 -0.351623
5.25 -0.33278
5.26 -0.3125
5.27 -0.290851
5.28 -0.267923
5.29 -0.243821
5.3 -0.218664
5.31 -0.192525
5.32 -0.165594
5.33 -0.13805
5.34 -0.110034
5.35 -0.08168
5.36 -0.0531145
5.37 -0.0244527
5.38 0.00419318
5.39 0.0327342
5.4 0.0611052
5.41 0.0892567
5.42 0.117154
5.43 0.144775
5.44 0.172088
5.45 0.199093
5.46 0.225801
5.47 0.252209
5.48 0.278307
5.49 0.304074
5.5 0.329475
5.51 0.354405
5.52 0.378831
5.53 0.402654
5.54 0.425758
5.55 0.448002
5.56 0.469227
5.57 0.48918
5.58 0.507631
5.59 0.524457
5.6 0.539455
5.61 0.552427
5.62 0.563184
5.63 0.571552
5.64 0.57709
5.65 0.579919
5.66 0.579979
5.67 0.577222
5.68 0.571643
5.69 0.563276
5.7 0.552083
5.71 0.53813
5.72 0.52178
5.73 0.503234
5.74 0.482722
5.75 0.460496
5.76 0.43683
5.77 0.41192
5.78 0.386171
5.79 0.359886
5.8 0.333329
5.81 0.306748
5.82 0.280364
5.83 0.254388
5.84 0.229026
5.85 0.204357
5.86 0.180463
5.87 0.157387
5.88 0.135142
5.89 0.113712
5.9 0.0931169
5.91 0.0732416
5.92 0.0539851
5.93 0.0352648
5.94 0.0169986
5.95 -0.000888122
5.96 -0.0184509
5.97 -0.0357155
5.98 -0.0527246
5.99 -0.069465
6 -0.0858951
6.01 -0.101945
6.02 -0.117515
6.03 -0.132427
6.04 -0.146529
6.05 -0.159681
6.06 -0.171705
6.07 -0.182418
6.08 -0.19164
6.09 -0.199183
6.1 -0.204703
6.11 -0.208256
6.12 -0.20975
6.13 -0.209126
6.14 -0.206364
6.15 -0.201485
6.16 -0.194427
6.17 -0.185339
6.18 -0.174484
6.19 -0.16205
6.2 -0.148257
6.21 -0.13335
6.22 -0.117592
6.23 -0.101222
6.24 -0.0846098
6.25 -0.0680263
6.26 -0.0517283
6.27 -0.0359517
6.28 -0.0209058
6.29 -0.00682363
6.3 0.00612652
6.31 0.0179145
6.32 0.028491
6.33 0.0378478
6.34 0.0460157
6.35 0.0530626
6.36 0.0589951
6.37 0.0640567
6.38 0.0684152
6.39 0.0722418
6.4 0.0757156
6.41 0.0790174
6.42 0.0823307
6.43 0.0858481
6.44 0.0897111
6.45 0.0940424
6.46 0.0989397
6.47 0.104474
6.48 0.110689
6.49 0.117664
6.5 0.125332
6.51 0.133634
6.52 0.142509
6.53 0.151876
6.54 0.161643
6.55 0.171717
6.56 0.181992
6.57 0.192343
6.58 0.202678
6.59 0.212914
6.6 0.222983
6.61 0.232832
6.62 0.242404
6.63 0.251696
6.64 0.260722
6.65 0.269503
6.66 0.278074
6.67 0.286482
6.68 0.294779
6.69 0.303024
6.7 0.311284
6.71 0.31961
6.72 0.328041
6.73 0.336608
6.74 0.345323
6.75 0.354189
6.76 0.363172
6.77 0.372213
6.78 0.381242
6.79 0.390169
6.8 0.398884
6.81 0.407262
6.82 0.415101
6.83 0.422296
6.84 0.428696
6.85 0.434155
6.86 0.438527
6.87 0.441679
6.88 0.443398
6.89 0.443572
6.9 0.442195
6.91 0.439205
6.92 0.434564
6.93 0.428256
6.94 0.420289
6.95 0.410511
6.96 0.399165
6.97 0.386327
6.98 0.372087
6.99 0.356547
7 0.339818
7.01 0.32197
7.02 0.303125
7.03 0.283475
7.04 0.263135
7.05 0.242218
7.06 0.220827
7.07 0.199057
7.08 0.176972
7.09 0.15468
7.1 0.132248
7.11 0.109733
7.12 0.0871803
7.13 0.0646319
7.14 0.0421266
7.15 0.0197049
7.16 -0.00260536
7.17 -0.0247721
7.18 -0.0467612
7.19 -0.0685357
7.2 -0.0900549
7.21 -0.111241
7.22 -0.13206
7.23 -0.152463
7.24 -0.172393
7.25 -0.191792
7.26 -0.210599
7.27 -0.228734
7.28 -0.246092
7.29 -0.262679
7.3 -0.278451
7.31 -0.293371
7.32 -0.307411
7.33 -0.320552
7.34 -0.332715
7.35 -0.343947
7.36 -0.354299
7.37 -0.363798
7.38 -0.372485
7.39 -0.380405
7.4 -0.387601
7.41 -0.394087
7.42 -0.399996
7.43 -0.405393
7.44 -0.41034
7.45 -0.414899
7.46 -0.419124
7.47 -0.423049
7.48 -0.426727
7.49 -0.4302
7.5 -0.433491
7.51 -0.43661
7.52 -0.439561
7.53 -0.442333
7.54 -0.444888
7.55 -0.447219
7.56 -0.449296
7.57 -0.451081
7.58 -0.452534
7.59 -0.453612
7.6 -0.454247
7.61 -0.454391
7.62 -0.454028
7.63 -0.453125
7.64 -0.45165
7.65 -0.449579
7.66 -0.44689
7.67 -0.4435
7.68 -0.439468
7.69 -0.434799
7.7 -0.429498
7.71 -0.423578
7.72 -0.417057
7.73 -0.409932
7.74 -0.402223
7.75 -0.394003
7.76 -0.385309
7.77 -0.376184
7.78 -0.366671
7.79 -0.35682
7.8 -0.346658
7.81 -0.336273
7.82 -0.325728
7.83 -0.315085
7.84 -0.304409
7.85 -0.293769
7.86 -0.28324
7.87 -0.272911
7.88 -0.262845
7.89 -0.253114
7.9 -0.243787
7.91 -0.234932
7.92 -0.226613
7.93 -0.218948
7.94 -0.211956
7.95 -0.205663
7.96 -0.200103
7.97 -0.195299
7.98 -0.191263
7.99 -0.188016
8 -0.185594
8.01 -0.1839
8.02 -0.182899
8.03 -0.182544
8.04 -0.18278
8.05 -0.183543
8.06 -0.184796
8.07 -0.186436
8.08 -0.188374
8.09 -0.190534
8.1 -0.192848
8.11 -0.195249
8.12 -0.197679
8.13 -0.20008
8.14 -0.202413
8.15 -0.204648
8.16 -0.206768
8.17 -0.208765
8.18 -0.21064
8.19 -0.212394
8.2 -0.214047
8.21 -0.215625
8.22 -0.217145
8.23 -0.218628
8.24 -0.220087
8.25 -0.221528
8.26 -0.222945
8.27 -0.224323
8.28 -0.225629
8.29 -0.226817
8.3 -0.227826
8.31 -0.228578
8.32 -0.228954
8.33 -0.228828
8.34 -0.228103
8.35 -0.22665
8.36 -0.224337
8.37 -0.221029
8.38 -0.216594
8.39 -0.210756
8.4 -0.203521
8.41 -0.1948
8.42 -0.184518
8.43 -0.172618
8.44 -0.15907
8.45 -0.143794
8.46 -0.126775
8.47 -0.108188
8.48 -0.0881125
8.49 -0.0666551
8.5 -0.0439417
8.51 -0.0201166
8.52 0.004738
8.53 0.0303577
8.54 0.0565506
8.55 0.0831428
8.56 0.109966
8.57 0.136863
8.58 0.163681
8.59 0.19027
8.6 0.216536
8.61 0.242402
8.62 0.267814
8.63 0.29274
8.64 0.317171
8.65 0.34108
8.66 0.364528
8.67 0.387579
8.68 0.410285
8.69 0.432707
8.7 0.454903
8.71 0.476923
8.72 0.498803
8.73 0.520581
8.74 0.54226
8.75 0.56382
8.76 0.585214
8.77 0.606372
8.78 0.62716
8.79 0.647443
8.8 0.667082
8.81 0.685901
8.82 0.703708
8.83 0.720299
8.84 0.735442
8.85 0.748745
8.86 0.760155
8.87 0.769475
8.88 0.776528
8.89 0.781154
8.9 0.783221
8.91 0.78245
8.92 0.778798
8.93 0.772378
8.94 0.763197
8.95 0.751298
8.96 0.736754
8.97 0.719667
8.98 0.699909
8.99 0.677932
9 0.65391
9.01 0.628033
9.02 0.600495
9.03 0.571493
9.04 0.541163
9.05 0.509708
9.06 0.47738
9.07 0.444335
9.08 0.410716
9.09 0.376646
9.1 0.342231
9.11 0.307542
9.12 0.27268
9.13 0.237705
9.14 0.202665
9.15 0.167602
9.16 0.132554
9.17 0.0975673
9.18 0.0626983
9.19 0.0280001
9.2 -0.00645703
9.21 -0.040588
9.22 -0.0742911
9.23 -0.107448
9.24 -0.139841
9.25 -0.17135
9.26 -0.201818
9.27 -0.231064
9.28 -0.258898
9.29 -0.285128
9.3 -0.309498
9.31 -0.33169
9.32 -0.351689
9.33 -0.369337
9.34 -0.3845
9.35 -0.397064
9.36 -0.406947
9.37 -0.413859
9.38 -0.417926
9.39 -0.419253
9.4 -0.417891
9.41 -0.41392
9.42 -0.407449
9.43 -0.398565
9.44 -0.387279
9.45 -0.37399
9.46 -0.358885
9.47 -0.342157
9.48 -0.323999
9.49 -0.304602
9.5 -0.284082
9.51 -0.262665
9.52 -0.240548
9.53 -0.217863
9.54 -0.194727
9.55 -0.171235
9.56 -0.147462
9.57 -0.123448
9.58 -0.0992608
9.59 -0.0749248
9.6 -0.0504551
9.61 -0.0258605
9.62 -0.00114728
9.63 0.0236835
9.64 0.0486159
9.65 0.0736209
9.66 0.0986637
9.67 0.123696
9.68 0.148654
9.69 0.173457
9.7 0.197968
9.71 0.22209
9.72 0.245694
9.73 0.268642
9.74 0.290785
9.75 0.311971
9.76 0.331983
9.77 0.350631
9.78 0.367851
9.79 0.383516
9.8 0.397514
9.81 0.409754
9.82 0.420164
9.83 0.4285
9.84 0.434915
9.85 0.439441
9.86 0.442113
9.87 0.442991
9.88 0.442153
9.89 0.439639
9.9 0.435527
9.91 0.43007
9.92 0.423405
9.93 0.415676
9.94 0.407022
9.95 0.397582
9.96 0.387438
9.97 0.376766
9.98 0.365686
9.99 0.354287
10 0.342641
10.01 0.330805
10.02 0.318814
10.03 0.306685
10.04 0.294439
10.05 0.282068
10.06 0.269557
10.07 0.256884
10.08 0.244023
10.09 0.230924
10.1 0.21757
10.11 0.203945
10.12 0.190037
10.13 0.175838
10.14 0.161353
10.15 0.146593
10.16 0.131567
10.17 0.116344
10.18 0.100973
10.19 0.0855134
10.2 0.0700336
10.21 0.0546065
10.22 0.0393243
10.23 0.024274
10.24 0.009527
10.25 -0.0048419
10.26 -0.0187631
10.27 -0.0321741
10.28 -0.0450162
10.29 -0.0571783
10.3 -0.0686926
10.31 -0.0795394
10.32 -0.0897101
10.33 -0.0992068
10.34 -0.108042
10.35 -0.116201
10.36 -0.123723
10.37 -0.130683
10.38 -0.137125
10.39 -0.143098
10.4 -0.148655
10.41 -0.153849
10.42 -0.158704
10.43 -0.163313
10.44 -0.167729
10.45 -0.172002
10.46 -0.176181
10.47 -0.180311
10.48 -0.184437
10.49 -0.188608
10.5 -0.192862
10.51 -0.197235
10.52 -0.201765
10.53 -0.206484
10.54 -0.211425
10.55 -0.21665
10.56 -0.222168
10.57 -0.228003
10.58 -0.23418
10.59 -0.24072
10.6 -0.247642
10.61 -0.254974
10.62 -0.262739
10.63 -0.270907
10.64 -0.279468
10.65 -0.288408
10.66 -0.297701
10.67 -0.307315
10.68 -0.317231
10.69 -0.327373
10.7 -0.337675
10.71 -0.348074
10.72 -0.3585
10.73 -0.368878
10.74 -0.37913
10.75 -0.389158
10.76 -0.398904
10.77 -0.4083
10.78 -0.417285
10.79 -0.425809
10.8 -0.433829
10.81 -0.44127
10.82 -0.448136
10.83 -0.454444
10.84 -0.460203
10.85 -0.465438
10.86 -0.47018
10.87 -0.474468
10.88 -0.478326
10.89 -0.481859
10.9 -0.48513
10.91 -0.488202
10.92 -0.491137
10.93 -0.493993
10.94 -0.496821
10.95 -0.499667
10.96 -0.502561
10.97 -0.505514
10.98 -0.508529
10.99 -0.511588
11 -0.514663
11.01 -0.517699
11.02 -0.520634
11.03 -0.523396
11.04 -0.525903
11.05 -0.528067
11.06 -0.529794
11.07 -0.530954
11.08 -0.531438
11.09 -0.531193
11.1 -0.530139
11.11 -0.528207
11.12 -0.525343
11.13 -0.521503
11.14 -0.51655
11.15 -0.51058
11.16 -0.503613
11.17 -0.495674
11.18 -0.486808
11.19 -0.47707
11.2 -0.466495
11.21 -0.455157
11.22 -0.443197
11.23 -0.430706
11.24 -0.417774
11.25 -0.40449
11.26 -0.390938
11.27 -0.377184
11.28 -0.363317
11.29 -0.349394
11.3 -0.335457
11.31 -0.321535
11.32 -0.307644
11.33 -0.293789
11.34 -0.279956
11.35 -0.266122
11.36 -0.252254
11.37 -0.238312
11.38 -0.224253
11.39 -0.210028
11.4 -0.195568
11.41 -0.180832
11.42 -0.165786
11.43 -0.150392
11.44 -0.134622
11.45 -0.118455
11.46 -0.101867
11.47 -0.0848282
11.48 -0.0673847
11.49 -0.049553
11.5 -0.0313573
11.51 -0.0128279
11.52 0.00599963
11.53 0.0251028
11.54 0.0444251
11.55 0.0639153
11.56 0.0835336
11.57 0.103243
11.58 0.123012
11.59 0.142812
11.6 0.162619
11.61 0.182417
11.62 0.202196
11.63 0.221952
11.64 0.241687
11.65 0.261403
11.66 0.281107
11.67 0.300807
11.68 0.320507
11.69 0.340211
11.7 0.359915
11.71 0.379611
11.72 0.399283
11.73 0.418897
11.74 0.438421
11.75 0.457808
11.76 0.477002
11.77 0.495939
11.78 0.514543
11.79 0.532705
11.8 0.550316
11.81 0.567306
11.82 0.583578
11.83 0.599029
11.84 0.613559
11.85 0.62707
11.86 0.639337
11.87 0.650375
11.88 0.660115
11.89 0.668487
11.9 0.675432
11.91 0.6809
11.92 0.684785
11.93 0.687015
11.94 0.687688
11.95 0.686803
11.96 0.684367
11.97 0.6804
11.98 0.674927
11.99 0.667843
12 0.659305
12.01 0.649387
12.02 0.638139
12.03 0.625611
12.04 0.611856
12.05 0.596891
12.06 0.580719
12.07 0.563493
12.08 0.545267
12.09 0.526094
12.1 0.506028
12.11 0.485125
12.12 0.463377
12.13 0.440892
12.14 0.417755
12.15 0.394029
12.16 0.36978
12.17 0.34508
12.18 0.319996
12.19 0.294599
12.2 0.269007
12.21 0.243311
12.22 0.217607
12.23 0.191992
12.24 0.166567
12.25 0.141468
12.26 0.116806
12.27 0.0926723
12.28 0.069174
