# xPDFsuite Configuration #
[PDF]
wavelength = 0.1
dataformat = QA
inputfile = BiMsol6_insitu_700 C-00493.xy
backgroundfile = Quartz2mm-dist500-00000.xy
mode = xray
bgscale = 0.0042
composition = Bi2Fe4O9
outputtype = gr
qmaxinst = 24.998449118
qmin = 0.1
qmax = 21.4986662415
rmax = 80.0
rmin = 0.0
rstep = 0.01
rpoly = 0.9

[Misc]
inputdir = C:/Data/Seafile/CPH/Beamtime/Desy Oct 20/In situ data/Processed/BiMsol6/PDF
savedir = C:/Data/Seafile/CPH/Beamtime/Desy Oct 20/In situ data/PDF/BiMsol6
backgroundfilefull = C:/Data/Seafile/CPH/Beamtime/Desy Oct 20/In situ data/Processed/Standard_Empty_Cap/Quartz2mm-dist500-00000.xy

#### start data
#S 1
#L r($\AA$)  G($\AA^{-2}$)
0 0
0.01 0.00571948
0.02 0.0111115
0.03 0.0158958
0.04 0.0198212
0.05 0.0226771
0.06 0.0243032
0.07 0.0245247
0.08 0.0232918
0.09 0.0207355
0.1 0.0169642
0.11 0.0121451
0.12 0.00649685
0.13 0.000280033
0.14 -0.00621151
0.15 -0.0126118
0.16 -0.0186116
0.17 -0.0239214
0.18 -0.0282825
0.19 -0.0314799
0.2 -0.0332933
0.21 -0.0335748
0.22 -0.0324187
0.23 -0.0298908
0.24 -0.0261281
0.25 -0.0213345
0.26 -0.015773
0.27 -0.00974553
0.28 -0.00367635
0.29 0.00205647
0.3 0.00708616
0.31 0.0110654
0.32 0.0136836
0.33 0.0146267
0.34 0.0135897
0.35 0.0106307
0.36 0.00575637
0.37 -0.000929916
0.38 -0.00922699
0.39 -0.0188387
0.4 -0.0294186
0.41 -0.0403872
0.42 -0.0511764
0.43 -0.0612076
0.44 -0.0698837
0.45 -0.0766105
0.46 -0.0807595
0.47 -0.0815188
0.48 -0.0787213
0.49 -0.0720424
0.5 -0.0612723
0.51 -0.0463289
0.52 -0.0272677
0.53 -0.00402649
0.54 0.0228726
0.55 0.0527441
0.56 0.0849518
0.57 0.118753
0.58 0.153316
0.59 0.187738
0.6 0.220864
0.61 0.251789
0.62 0.279601
0.63 0.303445
0.64 0.322552
0.65 0.336257
0.66 0.343639
0.67 0.344318
0.68 0.338454
0.69 0.326043
0.7 0.307259
0.71 0.282439
0.72 0.252083
0.73 0.216365
0.74 0.176699
0.75 0.133994
0.76 0.0892164
0.77 0.0433717
0.78 -0.00252448
0.79 -0.0473781
0.8 -0.0900806
0.81 -0.129862
0.82 -0.165985
0.83 -0.197841
0.84 -0.224961
0.85 -0.247028
0.86 -0.263345
0.87 -0.274409
0.88 -0.280482
0.89 -0.281893
0.9 -0.279098
0.91 -0.272651
0.92 -0.263103
0.93 -0.251169
0.94 -0.237806
0.95 -0.223749
0.96 -0.209707
0.97 -0.196343
0.98 -0.18425
0.99 -0.174141
1 -0.166338
1.01 -0.161065
1.02 -0.158482
1.03 -0.158633
1.04 -0.161455
1.05 -0.166846
1.06 -0.174644
1.07 -0.184281
1.08 -0.195359
1.09 -0.207443
1.1 -0.220083
1.11 -0.232832
1.12 -0.245205
1.13 -0.256785
1.14 -0.267262
1.15 -0.276378
1.16 -0.283948
1.17 -0.289859
1.18 -0.294051
1.19 -0.296439
1.2 -0.297318
1.21 -0.296871
1.22 -0.295325
1.23 -0.29294
1.24 -0.289997
1.25 -0.28678
1.26 -0.283609
1.27 -0.280742
1.28 -0.278388
1.29 -0.27671
1.3 -0.275823
1.31 -0.275787
1.32 -0.276683
1.33 -0.278343
1.34 -0.280644
1.35 -0.283421
1.36 -0.286473
1.37 -0.289574
1.38 -0.292464
1.39 -0.294871
1.4 -0.29659
1.41 -0.29743
1.42 -0.297237
1.43 -0.295904
1.44 -0.293375
1.45 -0.289523
1.46 -0.284551
1.47 -0.278593
1.48 -0.271831
1.49 -0.264488
1.5 -0.256823
1.51 -0.249134
1.52 -0.241767
1.53 -0.235015
1.54 -0.229155
1.55 -0.224435
1.56 -0.221062
1.57 -0.219191
1.58 -0.219085
1.59 -0.220633
1.6 -0.223753
1.61 -0.228325
1.62 -0.234162
1.63 -0.241018
1.64 -0.248609
1.65 -0.256561
1.66 -0.264448
1.67 -0.271886
1.68 -0.278493
1.69 -0.283904
1.7 -0.287786
1.71 -0.289662
1.72 -0.289393
1.73 -0.286876
1.74 -0.282031
1.75 -0.274852
1.76 -0.265412
1.77 -0.253808
1.78 -0.240167
1.79 -0.224973
1.8 -0.208568
1.81 -0.191328
1.82 -0.173655
1.83 -0.155957
1.84 -0.138701
1.85 -0.122298
1.86 -0.107069
1.87 -0.093304
1.88 -0.0812309
1.89 -0.0710139
1.9 -0.0627749
1.91 -0.0566997
1.92 -0.0525161
1.93 -0.0500857
1.94 -0.0492105
1.95 -0.0496419
1.96 -0.0510917
1.97 -0.0532688
1.98 -0.0557829
1.99 -0.0582762
2 -0.0604414
2.01 -0.0620025
2.02 -0.0627262
2.03 -0.0624273
2.04 -0.0608536
2.05 -0.0580884
2.06 -0.0541642
2.07 -0.049181
2.08 -0.0433029
2.09 -0.0367523
2.1 -0.0297968
2.11 -0.0228007
2.12 -0.0161295
2.13 -0.0101376
2.14 -0.00517591
2.15 -0.00157863
2.16 0.000349831
2.17 0.000111972
2.18 -0.00231433
2.19 -0.00704524
2.2 -0.014143
2.21 -0.0235982
2.22 -0.0353295
2.23 -0.0492714
2.24 -0.0652155
2.25 -0.0827217
2.26 -0.101454
2.27 -0.121039
2.28 -0.141085
2.29 -0.161185
2.3 -0.180867
2.31 -0.199736
2.32 -0.217454
2.33 -0.233718
2.34 -0.248278
2.35 -0.260944
2.36 -0.271516
2.37 -0.279835
2.38 -0.286094
2.39 -0.290383
2.4 -0.292849
2.41 -0.29369
2.42 -0.293149
2.43 -0.291433
2.44 -0.288943
2.45 -0.286021
2.46 -0.282975
2.47 -0.280097
2.48 -0.277656
2.49 -0.275908
2.5 -0.275131
2.51 -0.275393
2.52 -0.276779
2.53 -0.279325
2.54 -0.283014
2.55 -0.287782
2.56 -0.293583
2.57 -0.300212
2.58 -0.307447
2.59 -0.315083
2.6 -0.322905
2.61 -0.330694
2.62 -0.338231
2.63 -0.345253
2.64 -0.351616
2.65 -0.357174
2.66 -0.361817
2.67 -0.365465
2.68 -0.368076
2.69 -0.36958
2.7 -0.370029
2.71 -0.369546
2.72 -0.368225
2.73 -0.366182
2.74 -0.363548
2.75 -0.360462
2.76 -0.357047
2.77 -0.353486
2.78 -0.349907
2.79 -0.346418
2.8 -0.343109
2.81 -0.340048
2.82 -0.337296
2.83 -0.334873
2.84 -0.33275
2.85 -0.330891
2.86 -0.329244
2.87 -0.32774
2.88 -0.326299
2.89 -0.324818
2.9 -0.323199
2.91 -0.321353
2.92 -0.319198
2.93 -0.316659
2.94 -0.313675
2.95 -0.310177
2.96 -0.306112
2.97 -0.301505
2.98 -0.296357
2.99 -0.290681
3 -0.284497
3.01 -0.277835
3.02 -0.270684
3.03 -0.263113
3.04 -0.255152
3.05 -0.246816
3.06 -0.238108
3.07 -0.229014
3.08 -0.219492
3.09 -0.209463
3.1 -0.198897
3.11 -0.187714
3.12 -0.17582
3.13 -0.163112
3.14 -0.149482
3.15 -0.134726
3.16 -0.118781
3.17 -0.10159
3.18 -0.083078
3.19 -0.0631912
3.2 -0.0419015
3.21 -0.0191816
3.22 0.00502927
3.23 0.0305187
3.24 0.0571736
3.25 0.0848464
3.26 0.113356
3.27 0.142493
3.28 0.172029
3.29 0.201655
3.3 0.231079
3.31 0.260016
3.32 0.288183
3.33 0.315299
3.34 0.341083
3.35 0.365106
3.36 0.3873
3.37 0.407481
3.38 0.425499
3.39 0.44124
3.4 0.45463
3.41 0.465487
3.42 0.473839
3.43 0.479867
3.44 0.483654
3.45 0.485313
3.46 0.48498
3.47 0.482812
3.48 0.478806
3.49 0.473349
3.5 0.466627
3.51 0.458819
3.52 0.450097
3.53 0.440622
3.54 0.430517
3.55 0.419925
3.56 0.408993
3.57 0.397813
3.58 0.386461
3.59 0.374997
3.6 0.363467
3.61 0.351907
3.62 0.340351
3.63 0.328823
3.64 0.317346
3.65 0.305946
3.66 0.294652
3.67 0.283513
3.68 0.27259
3.69 0.261932
3.7 0.251612
3.71 0.241711
3.72 0.23232
3.73 0.223537
3.74 0.215544
3.75 0.208409
3.76 0.20222
3.77 0.197079
3.78 0.193079
3.79 0.190301
3.8 0.188857
3.81 0.18888
3.82 0.190289
3.83 0.193093
3.84 0.197283
3.85 0.20283
3.86 0.209683
3.87 0.217871
3.88 0.227237
3.89 0.237635
3.9 0.248952
3.91 0.261066
3.92 0.273849
3.93 0.28718
3.94 0.300944
3.95 0.314965
3.96 0.329124
3.97 0.343306
3.98 0.357407
3.99 0.371333
4 0.384973
4.01 0.398249
4.02 0.411107
4.03 0.42349
4.04 0.435346
4.05 0.446629
4.06 0.45729
4.07 0.467213
4.08 0.476427
4.09 0.484887
4.1 0.492548
4.11 0.499361
4.12 0.505277
4.13 0.51018
4.14 0.514009
4.15 0.516762
4.16 0.518385
4.17 0.518823
4.18 0.518028
4.19 0.515957
4.2 0.512422
4.21 0.507541
4.22 0.501307
4.23 0.493721
4.24 0.484796
4.25 0.474558
4.26 0.462986
4.27 0.45012
4.28 0.43611
4.29 0.421032
4.3 0.404968
4.31 0.388004
4.32 0.370231
4.33 0.351675
4.34 0.332495
4.35 0.312785
4.36 0.292619
4.37 0.272066
4.38 0.251182
4.39 0.230007
4.4 0.208573
4.41 0.186925
4.42 0.165081
4.43 0.143051
4.44 0.12084
4.45 0.0984491
4.46 0.0758642
4.47 0.0531012
4.48 0.0301744
4.49 0.00710094
4.5 -0.0160925
4.51 -0.0393683
4.52 -0.0626754
4.53 -0.0859389
4.54 -0.109078
4.55 -0.132001
4.56 -0.154606
4.57 -0.176784
4.58 -0.198417
4.59 -0.219325
4.6 -0.239401
4.61 -0.258555
4.62 -0.276683
4.63 -0.29369
4.64 -0.309497
4.65 -0.32402
4.66 -0.337103
4.67 -0.348861
4.68 -0.359301
4.69 -0.368456
4.7 -0.376377
4.71 -0.38314
4.72 -0.388771
4.73 -0.39342
4.74 -0.397261
4.75 -0.400428
4.76 -0.403057
4.77 -0.405284
4.78 -0.407239
4.79 -0.409046
4.8 -0.410838
4.81 -0.412707
4.82 -0.414727
4.83 -0.416951
4.84 -0.419413
4.85 -0.422137
4.86 -0.425111
4.87 -0.428285
4.88 -0.431611
4.89 -0.435023
4.9 -0.438447
4.91 -0.4418
4.92 -0.44497
4.93 -0.447879
4.94 -0.450446
4.95 -0.452597
4.96 -0.454269
4.97 -0.45541
4.98 -0.455956
4.99 -0.455869
5 -0.455187
5.01 -0.453919
5.02 -0.452092
5.03 -0.44974
5.04 -0.446909
5.05 -0.443611
5.06 -0.439943
5.07 -0.435966
5.08 -0.43173
5.09 -0.42728
5.1 -0.422651
5.11 -0.417862
5.12 -0.41292
5.13 -0.407833
5.14 -0.402583
5.15 -0.397141
5.16 -0.391466
5.17 -0.38551
5.18 -0.379179
5.19 -0.372426
5.2 -0.365201
5.21 -0.357446
5.22 -0.349112
5.23 -0.340158
5.24 -0.33054
5.25 -0.320202
5.26 -0.309213
5.27 -0.297602
5.28 -0.285415
5.29 -0.272717
5.3 -0.259589
5.31 -0.246113
5.32 -0.232428
5.33 -0.218668
5.34 -0.204961
5.35 -0.191436
5.36 -0.17822
5.37 -0.16544
5.38 -0.153268
5.39 -0.141749
5.4 -0.130961
5.41 -0.120959
5.42 -0.111781
5.43 -0.103441
5.44 -0.095987
5.45 -0.0893731
5.46 -0.0835072
5.47 -0.0783238
5.48 -0.0737446
5.49 -0.0696821
5.5 -0.0660433
5.51 -0.0627586
5.52 -0.0596892
5.53 -0.056749
5.54 -0.0538618
5.55 -0.0509635
5.56 -0.0480043
5.57 -0.0449443
5.58 -0.0417655
5.59 -0.0384778
5.6 -0.0351003
5.61 -0.0316657
5.62 -0.028218
5.63 -0.0248098
5.64 -0.0215158
5.65 -0.0183917
5.66 -0.0154928
5.67 -0.0128692
5.68 -0.0105609
5.69 -0.00859564
5.7 -0.00700194
5.71 -0.00578294
5.72 -0.00488632
5.73 -0.00426804
5.74 -0.0038672
5.75 -0.00360753
5.76 -0.00339963
5.77 -0.00312867
5.78 -0.00267916
5.79 -0.00194285
5.8 -0.000812658
5.81 0.000812087
5.82 0.00302164
5.83 0.0059161
5.84 0.00959613
5.85 0.0140377
5.86 0.019251
5.87 0.0252223
5.88 0.0319148
5.89 0.0392685
5.9 0.0472432
5.91 0.0556916
5.92 0.0644766
5.93 0.0734679
5.94 0.082529
5.95 0.0915213
5.96 0.100301
5.97 0.108701
5.98 0.11663
5.99 0.123991
6 0.130709
6.01 0.136731
6.02 0.142026
6.03 0.146535
6.04 0.150309
6.05 0.153428
6.06 0.155961
6.07 0.157995
6.08 0.159633
6.09 0.160982
6.1 0.162157
6.11 0.163304
6.12 0.164531
6.13 0.165939
6.14 0.167614
6.15 0.169623
6.16 0.172037
6.17 0.174876
6.18 0.17811
6.19 0.181705
6.2 0.185602
6.21 0.189721
6.22 0.19396
6.23 0.198187
6.24 0.202255
6.25 0.206022
6.26 0.209344
6.27 0.212079
6.28 0.214091
6.29 0.215206
6.3 0.21529
6.31 0.214316
6.32 0.212223
6.33 0.208976
6.34 0.204564
6.35 0.199004
6.36 0.192228
6.37 0.184417
6.38 0.175676
6.39 0.166116
6.4 0.155862
6.41 0.145049
6.42 0.133807
6.43 0.12229
6.44 0.110665
6.45 0.0990626
6.46 0.0876021
6.47 0.0763874
6.48 0.0655058
6.49 0.0550683
6.5 0.0450964
6.51 0.0356036
6.52 0.0265934
6.53 0.018051
6.54 0.00994547
6.55 0.00224213
6.56 -0.00510461
6.57 -0.0121929
6.58 -0.019091
6.59 -0.0258674
6.6 -0.0325872
6.61 -0.0393095
6.62 -0.0460924
6.63 -0.052975
6.64 -0.0599778
6.65 -0.0671091
6.66 -0.0743624
6.67 -0.0817166
6.68 -0.0891371
6.69 -0.0965701
6.7 -0.103948
6.71 -0.111201
6.72 -0.118253
6.73 -0.125023
6.74 -0.13143
6.75 -0.137355
6.76 -0.142723
6.77 -0.147485
6.78 -0.151578
6.79 -0.154949
6.8 -0.157554
6.81 -0.159353
6.82 -0.16024
6.83 -0.160291
6.84 -0.159507
6.85 -0.157895
6.86 -0.155469
6.87 -0.15225
6.88 -0.148218
6.89 -0.143408
6.9 -0.13789
6.91 -0.131694
6.92 -0.124845
6.93 -0.117367
6.94 -0.109282
6.95 -0.10054
6.96 -0.0912232
6.97 -0.0813426
6.98 -0.0709063
6.99 -0.0599205
7 -0.0483907
7.01 -0.036296
7.02 -0.0236362
7.03 -0.010458
7.04 0.00322426
7.05 0.0173912
7.06 0.0320181
7.07 0.0470744
7.08 0.0625591
7.09 0.078388
7.1 0.0945047
7.11 0.110853
7.12 0.127371
7.13 0.143994
7.14 0.160651
7.15 0.177262
7.16 0.193754
7.17 0.210057
7.18 0.226103
7.19 0.241826
7.2 0.257164
7.21 0.272014
7.22 0.286347
7.23 0.300126
7.24 0.313309
7.25 0.325856
7.26 0.337733
7.27 0.348886
7.28 0.359236
7.29 0.368819
7.3 0.377606
7.31 0.385567
7.32 0.392671
7.33 0.398886
7.34 0.404098
7.35 0.408305
7.36 0.411499
7.37 0.413636
7.38 0.41467
7.39 0.414555
7.4 0.413223
7.41 0.410521
7.42 0.406528
7.43 0.401208
7.44 0.39453
7.45 0.386474
7.46 0.377026
7.47 0.366089
7.48 0.353711
7.49 0.339983
7.5 0.324949
7.51 0.308665
7.52 0.291203
7.53 0.272641
7.54 0.252988
7.55 0.232478
7.56 0.211237
7.57 0.1894
7.58 0.167111
7.59 0.144518
7.6 0.121773
7.61 0.0990537
7.62 0.0765194
7.63 0.054318
7.64 0.0325919
7.65 0.0114755
7.66 -0.00890594
7.67 -0.0283316
7.68 -0.0467826
7.69 -0.0641784
7.7 -0.0804484
7.71 -0.0955361
7.72 -0.1094
7.73 -0.121953
7.74 -0.133155
7.75 -0.143098
7.76 -0.151798
7.77 -0.159286
7.78 -0.165599
7.79 -0.170788
7.8 -0.174807
7.81 -0.177819
7.82 -0.179911
7.83 -0.181156
7.84 -0.181629
7.85 -0.181409
7.86 -0.180552
7.87 -0.179118
7.88 -0.17723
7.89 -0.174953
7.9 -0.172352
7.91 -0.169484
7.92 -0.166403
7.93 -0.163142
7.94 -0.159754
7.95 -0.156276
7.96 -0.152732
7.97 -0.149139
7.98 -0.145509
7.99 -0.141848
8 -0.138154
8.01 -0.134428
8.02 -0.130661
8.03 -0.126846
8.04 -0.122973
8.05 -0.119032
8.06 -0.115007
8.07 -0.110897
8.08 -0.1067
8.09 -0.102421
8.1 -0.0980651
8.11 -0.0936455
8.12 -0.0891801
8.13 -0.0846943
8.14 -0.0802235
8.15 -0.0758034
8.16 -0.0714741
8.17 -0.0672787
8.18 -0.0632628
8.19 -0.0594905
8.2 -0.0560092
8.21 -0.0528493
8.22 -0.0500479
8.23 -0.047636
8.24 -0.045637
8.25 -0.0440667
8.26 -0.042976
8.27 -0.0423061
8.28 -0.0420352
8.29 -0.0421296
8.3 -0.0425441
8.31 -0.0432226
8.32 -0.0441058
8.33 -0.0451072
8.34 -0.0461328
8.35 -0.0470961
8.36 -0.0479091
8.37 -0.0484847
8.38 -0.0487393
8.39 -0.0485442
8.4 -0.0478665
8.41 -0.0466548
8.42 -0.0448686
8.43 -0.0424822
8.44 -0.0394863
8.45 -0.0358627
8.46 -0.0316275
8.47 -0.0268701
8.48 -0.0216527
8.49 -0.0160518
8.5 -0.0101556
8.51 -0.00406253
8.52 0.00212025
8.53 0.00826352
8.54 0.0142559
8.55 0.0199906
8.56 0.025367
8.57 0.0302937
8.58 0.0346704
8.59 0.0383951
8.6 0.041467
8.61 0.0438577
8.62 0.0455558
8.63 0.0465678
8.64 0.0469166
8.65 0.046591
8.66 0.0456875
8.67 0.0442909
8.68 0.0424756
8.69 0.0403207
8.7 0.0379076
8.71 0.0353142
8.72 0.0326183
8.73 0.0299018
8.74 0.0272208
8.75 0.0246195
8.76 0.0221282
8.77 0.0197627
8.78 0.0175323
8.79 0.0154141
8.8 0.0133711
8.81 0.0113597
8.82 0.00932613
8.83 0.00720879
8.84 0.00493852
8.85 0.00241797
8.86 -0.00040248
8.87 -0.00358483
8.88 -0.00718354
8.89 -0.0112431
8.9 -0.0157958
8.91 -0.0208939
8.92 -0.0265326
8.93 -0.0326695
8.94 -0.0392735
8.95 -0.0462996
8.96 -0.0536897
8.97 -0.061375
8.98 -0.0692932
8.99 -0.077327
9 -0.0853897
9.01 -0.0933954
9.02 -0.101262
9.03 -0.108915
9.04 -0.11627
9.05 -0.123265
9.06 -0.12988
9.07 -0.136093
9.08 -0.1419
9.09 -0.147309
9.1 -0.152343
9.11 -0.157009
9.12 -0.161394
9.13 -0.16556
9.14 -0.169573
9.15 -0.1735
9.16 -0.177406
9.17 -0.181359
9.18 -0.185423
9.19 -0.189639
9.2 -0.194035
9.21 -0.198628
9.22 -0.203416
9.23 -0.208384
9.24 -0.213506
9.25 -0.218716
9.26 -0.223943
9.27 -0.229108
9.28 -0.234122
9.29 -0.238891
9.3 -0.243301
9.31 -0.247217
9.32 -0.250578
9.33 -0.253296
9.34 -0.255296
9.35 -0.256518
9.36 -0.256915
9.37 -0.256384
9.38 -0.254962
9.39 -0.252688
9.4 -0.249594
9.41 -0.245728
9.42 -0.24115
9.43 -0.235927
9.44 -0.230113
9.45 -0.223861
9.46 -0.217265
9.47 -0.21042
9.48 -0.203415
9.49 -0.19633
9.5 -0.189238
9.51 -0.182202
9.52 -0.175257
9.53 -0.168421
9.54 -0.161694
9.55 -0.155058
9.56 -0.148479
9.57 -0.141899
9.58 -0.135244
9.59 -0.128436
9.6 -0.12139
9.61 -0.114016
9.62 -0.106225
9.63 -0.0978932
9.64 -0.0889334
9.65 -0.0793071
9.66 -0.0689608
9.67 -0.0578567
9.68 -0.0459747
9.69 -0.033313
9.7 -0.0198053
9.71 -0.0055821
9.72 0.00929618
9.73 0.024754
9.74 0.0407019
9.75 0.0570389
9.76 0.0736636
9.77 0.0904454
9.78 0.10725
9.79 0.123963
9.8 0.140473
9.81 0.156679
9.82 0.17249
9.83 0.187769
9.84 0.20249
9.85 0.216613
9.86 0.230106
9.87 0.242953
9.88 0.25515
9.89 0.266682
9.9 0.27755
9.91 0.287833
9.92 0.297568
9.93 0.306791
9.94 0.315542
9.95 0.323856
9.96 0.331729
9.97 0.339217
9.98 0.346344
9.99 0.353116
10 0.359528
10.01 0.365566
10.02 0.371196
10.03 0.376355
10.04 0.38104
10.05 0.385206
10.06 0.388807
10.07 0.391797
10.08 0.394131
10.09 0.395712
10.1 0.396537
10.11 0.39661
10.12 0.395924
10.13 0.394481
10.14 0.392298
10.15 0.389394
10.16 0.385768
10.17 0.381549
10.18 0.376808
10.19 0.371629
10.2 0.366099
10.21 0.360314
10.22 0.354367
10.23 0.348374
10.24 0.342434
10.25 0.336638
10.26 0.331064
10.27 0.325783
10.28 0.320855
10.29 0.316369
10.3 0.312311
10.31 0.308692
10.32 0.305506
10.33 0.302735
10.34 0.300346
10.35 0.29831
10.36 0.29656
10.37 0.295008
10.38 0.293581
10.39 0.2922
10.4 0.290785
10.41 0.289254
10.42 0.287497
10.43 0.285453
10.44 0.283055
10.45 0.280238
10.46 0.276949
10.47 0.27314
10.48 0.268742
10.49 0.263711
10.5 0.258064
10.51 0.251789
10.52 0.244879
10.53 0.237333
10.54 0.229156
10.55 0.220295
10.56 0.210818
10.57 0.20075
10.58 0.190109
10.59 0.178914
10.6 0.167187
10.61 0.154932
10.62 0.142154
10.63 0.128921
10.64 0.115259
10.65 0.101198
10.66 0.0867703
10.67 0.0720115
10.68 0.0569375
10.69 0.041615
10.7 0.026098
10.71 0.0104366
10.72 -0.00531641
10.73 -0.0211056
10.74 -0.0368718
10.75 -0.0525444
10.76 -0.0680693
10.77 -0.0833912
10.78 -0.0984583
10.79 -0.113223
10.8 -0.127644
10.81 -0.141655
10.82 -0.155243
10.83 -0.168408
10.84 -0.181145
10.85 -0.193458
10.86 -0.205363
10.87 -0.216878
10.88 -0.228011
10.89 -0.238842
10.9 -0.249419
10.91 -0.259794
10.92 -0.27002
10.93 -0.280151
10.94 -0.290238
10.95 -0.300335
10.96 -0.310482
10.97 -0.320707
10.98 -0.331031
10.99 -0.341459
11 -0.351987
11.01 -0.362599
11.02 -0.37325
11.03 -0.383888
11.04 -0.394455
11.05 -0.404877
11.06 -0.415075
11.07 -0.424937
11.08 -0.434354
11.09 -0.443253
11.1 -0.451538
11.11 -0.459121
11.12 -0.465918
11.13 -0.471852
11.14 -0.476751
11.15 -0.480655
11.16 -0.483536
11.17 -0.485372
11.18 -0.486158
11.19 -0.485902
11.2 -0.484582
11.21 -0.482217
11.22 -0.478928
11.23 -0.474776
11.24 -0.469827
11.25 -0.464151
11.26 -0.457824
11.27 -0.450866
11.28 -0.443404
11.29 -0.435512
11.3 -0.427246
11.31 -0.418656
11.32 -0.40978
11.33 -0.400636
11.34 -0.391231
11.35 -0.381589
11.36 -0.371701
11.37 -0.361551
11.38 -0.351115
11.39 -0.340362
11.4 -0.329222
11.41 -0.317675
11.42 -0.305696
11.43 -0.29325
11.44 -0.28031
11.45 -0.266854
11.46 -0.252856
11.47 -0.238276
11.48 -0.223175
11.49 -0.207574
11.5 -0.191508
11.51 -0.17502
11.52 -0.158165
11.53 -0.140992
11.54 -0.123594
11.55 -0.106064
11.56 -0.0884865
11.57 -0.0709484
11.58 -0.0535361
11.59 -0.0363381
11.6 -0.0194709
11.61 -0.00298371
11.62 0.0130582
11.63 0.0285988
11.64 0.0435915
11.65 0.0580006
11.66 0.0717596
11.67 0.0848625
11.68 0.0973387
11.69 0.109195
11.7 0.120448
11.71 0.131119
11.72 0.141234
11.73 0.150769
11.74 0.159821
11.75 0.168424
11.76 0.17661
11.77 0.184408
11.78 0.191846
11.79 0.198925
11.8 0.20566
11.81 0.212081
11.82 0.218188
11.83 0.223977
11.84 0.229436
11.85 0.23455
11.86 0.239257
11.87 0.243564
11.88 0.247447
11.89 0.250877
11.9 0.253823
11.91 0.256256
11.92 0.258123
11.93 0.259375
11.94 0.260032
11.95 0.260072
11.96 0.259479
11.97 0.258241
11.98 0.256348
11.99 0.253731
12 0.250436
12.01 0.246477
12.02 0.241855
12.03 0.236574
12.04 0.230637
12.05 0.224026
12.06 0.216712
12.07 0.208751
12.08 0.200145
12.09 0.190895
12.1 0.181
12.11 0.170459
12.12 0.159216
12.13 0.147306
12.14 0.134749
