# xPDFsuite Configuration #
[PDF]
wavelength = 0.1
dataformat = QA
inputfile = BiMsol6_insitu_700 C-00466.xy
backgroundfile = Quartz2mm-dist500-00000.xy
mode = xray
bgscale = 0.0042
composition = Bi2Fe4O9
outputtype = gr
qmaxinst = 24.998449118
qmin = 0.1
qmax = 21.4986662415
rmax = 80.0
rmin = 0.0
rstep = 0.01
rpoly = 0.9

[Misc]
inputdir = C:/Data/Seafile/CPH/Beamtime/Desy Oct 20/In situ data/Processed/BiMsol6/PDF
savedir = C:/Data/Seafile/CPH/Beamtime/Desy Oct 20/In situ data/PDF/BiMsol6
backgroundfilefull = C:/Data/Seafile/CPH/Beamtime/Desy Oct 20/In situ data/Processed/Standard_Empty_Cap/Quartz2mm-dist500-00000.xy

#### start data
#S 1
#L r($\AA$)  G($\AA^{-2}$)
0 0
0.01 0.00629674
0.02 0.012233
0.03 0.0175005
0.04 0.0218228
0.05 0.0249686
0.06 0.0267619
0.07 0.0270112
0.08 0.025663
0.09 0.0228625
0.1 0.0187301
0.11 0.0134511
0.12 0.00726735
0.13 0.000466569
0.14 -0.00662608
0.15 -0.0136084
0.16 -0.0201405
0.17 -0.0259044
0.18 -0.0306168
0.19 -0.0340427
0.2 -0.0359419
0.21 -0.0361545
0.22 -0.0347876
0.23 -0.0319162
0.24 -0.0276939
0.25 -0.0223476
0.26 -0.0161686
0.27 -0.00949161
0.28 -0.00278269
0.29 0.00354338
0.3 0.00908505
0.31 0.0134633
0.32 0.0163404
0.33 0.0173762
0.34 0.016242
0.35 0.0130079
0.36 0.00768721
0.37 0.000399627
0.38 -0.00862858
0.39 -0.0190679
0.4 -0.0305322
0.41 -0.0423863
0.42 -0.0540099
0.43 -0.064773
0.44 -0.074028
0.45 -0.0811337
0.46 -0.085415
0.47 -0.0860021
0.48 -0.0827313
0.49 -0.0752689
0.5 -0.0634084
0.51 -0.0470843
0.52 -0.0263813
0.53 -0.00126805
0.54 0.0276644
0.55 0.0596549
0.56 0.0939938
0.57 0.12986
0.58 0.166342
0.59 0.202454
0.6 0.236927
0.61 0.268817
0.62 0.297155
0.63 0.321045
0.64 0.339688
0.65 0.35241
0.66 0.358265
0.67 0.356907
0.68 0.348571
0.69 0.333317
0.7 0.311393
0.71 0.283228
0.72 0.24942
0.73 0.210259
0.74 0.167276
0.75 0.121488
0.76 0.0739575
0.77 0.0257816
0.78 -0.0219472
0.79 -0.0680424
0.8 -0.111338
0.81 -0.151084
0.82 -0.186546
0.83 -0.217137
0.84 -0.242433
0.85 -0.26218
0.86 -0.275727
0.87 -0.283715
0.88 -0.28652
0.89 -0.284587
0.9 -0.278486
0.91 -0.268889
0.92 -0.256471
0.93 -0.242073
0.94 -0.226716
0.95 -0.2112
0.96 -0.196283
0.97 -0.182652
0.98 -0.170908
0.99 -0.1618
1 -0.15556
1.01 -0.152337
1.02 -0.152211
1.03 -0.155134
1.04 -0.160937
1.05 -0.169409
1.06 -0.180256
1.07 -0.192794
1.08 -0.20652
1.09 -0.220907
1.1 -0.235424
1.11 -0.24956
1.12 -0.262742
1.13 -0.274551
1.14 -0.2847
1.15 -0.292956
1.16 -0.299175
1.17 -0.303309
1.18 -0.305368
1.19 -0.305351
1.2 -0.303686
1.21 -0.300663
1.22 -0.296615
1.23 -0.291905
1.24 -0.286909
1.25 -0.282026
1.26 -0.277646
1.27 -0.274057
1.28 -0.271499
1.29 -0.270146
1.3 -0.2701
1.31 -0.271395
1.32 -0.274099
1.33 -0.277924
1.34 -0.282663
1.35 -0.288056
1.36 -0.293803
1.37 -0.299577
1.38 -0.305001
1.39 -0.309692
1.4 -0.313367
1.41 -0.315764
1.42 -0.316671
1.43 -0.315939
1.44 -0.313491
1.45 -0.30914
1.46 -0.303168
1.47 -0.295753
1.48 -0.287133
1.49 -0.277604
1.5 -0.26751
1.51 -0.257238
1.52 -0.247247
1.53 -0.237938
1.54 -0.229685
1.55 -0.222826
1.56 -0.217646
1.57 -0.21437
1.58 -0.213363
1.59 -0.21451
1.6 -0.217735
1.61 -0.222913
1.62 -0.229831
1.63 -0.238204
1.64 -0.247703
1.65 -0.257887
1.66 -0.268218
1.67 -0.278223
1.68 -0.287429
1.69 -0.29538
1.7 -0.301653
1.71 -0.305663
1.72 -0.307207
1.73 -0.306133
1.74 -0.302318
1.75 -0.295732
1.76 -0.286436
1.77 -0.274524
1.78 -0.260126
1.79 -0.243805
1.8 -0.225959
1.81 -0.207029
1.82 -0.18749
1.83 -0.167829
1.84 -0.148594
1.85 -0.130291
1.86 -0.113313
1.87 -0.0980149
1.88 -0.0846835
1.89 -0.0735274
1.9 -0.0647064
1.91 -0.0584573
1.92 -0.0544709
1.93 -0.0525944
1.94 -0.0526018
1.95 -0.0542043
1.96 -0.0570632
1.97 -0.0608355
1.98 -0.0650524
1.99 -0.0692782
2 -0.0731359
2.01 -0.076282
2.02 -0.0784205
2.03 -0.0793093
2.04 -0.0786142
2.05 -0.0764117
2.06 -0.0727119
2.07 -0.0676049
2.08 -0.0612569
2.09 -0.0539041
2.1 -0.045824
2.11 -0.0374218
2.12 -0.0291265
2.13 -0.021344
2.14 -0.0144808
2.15 -0.00892824
2.16 -0.00504801
2.17 -0.0034045
2.18 -0.00406856
2.19 -0.00719876
2.2 -0.0128926
2.21 -0.0211671
2.22 -0.0319582
2.23 -0.0452191
2.24 -0.0607441
2.25 -0.0780619
2.26 -0.0968142
2.27 -0.116601
2.28 -0.136993
2.29 -0.157548
2.3 -0.177755
2.31 -0.197165
2.32 -0.215402
2.33 -0.232124
2.34 -0.247048
2.35 -0.259956
2.36 -0.270621
2.37 -0.27886
2.38 -0.284874
2.39 -0.288753
2.4 -0.290653
2.41 -0.290789
2.42 -0.289423
2.43 -0.286783
2.44 -0.283309
2.45 -0.279377
2.46 -0.275329
2.47 -0.271491
2.48 -0.268162
2.49 -0.265631
2.5 -0.264211
2.51 -0.263982
2.52 -0.265045
2.53 -0.267442
2.54 -0.271164
2.55 -0.276143
2.56 -0.282342
2.57 -0.289535
2.58 -0.297477
2.59 -0.305945
2.6 -0.314702
2.61 -0.323505
2.62 -0.332112
2.63 -0.340232
2.64 -0.347695
2.65 -0.354331
2.66 -0.360008
2.67 -0.364627
2.68 -0.36813
2.69 -0.370423
2.7 -0.371547
2.71 -0.371621
2.72 -0.37073
2.73 -0.368986
2.74 -0.366516
2.75 -0.363456
2.76 -0.35991
2.77 -0.356081
2.78 -0.352094
2.79 -0.348059
2.8 -0.344069
2.81 -0.340192
2.82 -0.336485
2.83 -0.332972
2.84 -0.329634
2.85 -0.326443
2.86 -0.323352
2.87 -0.3203
2.88 -0.317215
2.89 -0.314001
2.9 -0.31058
2.91 -0.306881
2.92 -0.302836
2.93 -0.298391
2.94 -0.293504
2.95 -0.288127
2.96 -0.282234
2.97 -0.275869
2.98 -0.269053
2.99 -0.261817
3 -0.254202
3.01 -0.246252
3.02 -0.237987
3.03 -0.229474
3.04 -0.22075
3.05 -0.211831
3.06 -0.202723
3.07 -0.19341
3.08 -0.18385
3.09 -0.173967
3.1 -0.163707
3.11 -0.152977
3.12 -0.141674
3.13 -0.129684
3.14 -0.116889
3.15 -0.10308
3.16 -0.0881836
3.17 -0.0721313
3.18 -0.054845
3.19 -0.0362699
3.2 -0.0163789
3.21 0.00484994
3.22 0.0274636
3.23 0.0512511
3.24 0.0760912
3.25 0.101828
3.26 0.128272
3.27 0.155206
3.28 0.182387
3.29 0.209509
3.3 0.236287
3.31 0.262443
3.32 0.287702
3.33 0.311802
3.34 0.334479
3.35 0.355329
3.36 0.374323
3.37 0.391311
3.38 0.406182
3.39 0.418865
3.4 0.429329
3.41 0.437447
3.42 0.443299
3.43 0.447098
3.44 0.448964
3.45 0.449047
3.46 0.447514
3.47 0.444547
3.48 0.440215
3.49 0.43487
3.5 0.4287
3.51 0.421884
3.52 0.414585
3.53 0.40695
3.54 0.399101
3.55 0.391155
3.56 0.383204
3.57 0.375306
3.58 0.367501
3.59 0.359812
3.6 0.35225
3.61 0.344826
3.62 0.337521
3.63 0.330325
3.64 0.323232
3.65 0.316241
3.66 0.30936
3.67 0.302612
3.68 0.296039
3.69 0.289678
3.7 0.283587
3.71 0.277836
3.72 0.272506
3.73 0.267683
3.74 0.263524
3.75 0.260091
3.76 0.257459
3.77 0.255711
3.78 0.254918
3.79 0.25514
3.8 0.256452
3.81 0.258942
3.82 0.262516
3.83 0.267154
3.84 0.272814
3.85 0.279434
3.86 0.286937
3.87 0.295283
3.88 0.304311
3.89 0.313874
3.9 0.323846
3.91 0.334101
3.92 0.344511
3.93 0.354953
3.94 0.365294
3.95 0.375432
3.96 0.385278
3.97 0.394757
3.98 0.403808
3.99 0.412384
4 0.420413
4.01 0.427885
4.02 0.434811
4.03 0.44119
4.04 0.447022
4.05 0.452309
4.06 0.457049
4.07 0.461184
4.08 0.464763
4.09 0.46777
4.1 0.470178
4.11 0.471953
4.12 0.47305
4.13 0.473368
4.14 0.472839
4.15 0.471437
4.16 0.469094
4.17 0.465739
4.18 0.461308
4.19 0.45574
4.2 0.448844
4.21 0.44071
4.22 0.431321
4.23 0.420674
4.24 0.40878
4.25 0.395671
4.26 0.381342
4.27 0.365851
4.28 0.349364
4.29 0.33198
4.3 0.313809
4.31 0.294969
4.32 0.275581
4.33 0.255735
4.34 0.235599
4.35 0.215289
4.36 0.194904
4.37 0.174529
4.38 0.154237
4.39 0.134089
4.4 0.114132
4.41 0.0943703
4.42 0.0748053
4.43 0.0554226
4.44 0.0361967
4.45 0.0170927
4.46 -0.00192669
4.47 -0.0209151
4.48 -0.0399157
4.49 -0.0589639
4.5 -0.0780864
4.51 -0.0972984
4.52 -0.116603
4.53 -0.135986
4.54 -0.155403
4.55 -0.174802
4.56 -0.194111
4.57 -0.213247
4.58 -0.232112
4.59 -0.250559
4.6 -0.268474
4.61 -0.285752
4.62 -0.302278
4.63 -0.317941
4.64 -0.332639
4.65 -0.346267
4.66 -0.35865
4.67 -0.369848
4.68 -0.379837
4.69 -0.388612
4.7 -0.396193
4.71 -0.402622
4.72 -0.407891
4.73 -0.412118
4.74 -0.415459
4.75 -0.418027
4.76 -0.419944
4.77 -0.421336
4.78 -0.422331
4.79 -0.423036
4.8 -0.423609
4.81 -0.424151
4.82 -0.424751
4.83 -0.425482
4.84 -0.426399
4.85 -0.427551
4.86 -0.428957
4.87 -0.430598
4.88 -0.432453
4.89 -0.434487
4.9 -0.436652
4.91 -0.438893
4.92 -0.441142
4.93 -0.443327
4.94 -0.445384
4.95 -0.447251
4.96 -0.448876
4.97 -0.45021
4.98 -0.451201
4.99 -0.451809
5 -0.452043
5.01 -0.451899
5.02 -0.451379
5.03 -0.450494
5.04 -0.449259
5.05 -0.447661
5.06 -0.445748
5.07 -0.443541
5.08 -0.441052
5.09 -0.438285
5.1 -0.435234
5.11 -0.431877
5.12 -0.428168
5.13 -0.424096
5.14 -0.419615
5.15 -0.41467
5.16 -0.409201
5.17 -0.403145
5.18 -0.39637
5.19 -0.388847
5.2 -0.380535
5.21 -0.371388
5.22 -0.361367
5.23 -0.350449
5.24 -0.338607
5.25 -0.325795
5.26 -0.312133
5.27 -0.297675
5.28 -0.282495
5.29 -0.266684
5.3 -0.250349
5.31 -0.233588
5.32 -0.216564
5.33 -0.19943
5.34 -0.182322
5.35 -0.165375
5.36 -0.148719
5.37 -0.132479
5.38 -0.116817
5.39 -0.101773
5.4 -0.0874116
5.41 -0.0737779
5.42 -0.060896
5.43 -0.0487699
5.44 -0.037431
5.45 -0.026827
5.46 -0.0168689
5.47 -0.00749403
5.48 0.00136796
5.49 0.00979102
5.5 0.0178483
5.51 0.0255838
5.52 0.0330971
5.53 0.0404361
5.54 0.0476344
5.55 0.0547097
5.56 0.0616627
5.57 0.0684671
5.58 0.0750809
5.59 0.0814599
5.6 0.087539
5.61 0.0932432
5.62 0.0984916
5.63 0.103201
5.64 0.107214
5.65 0.11051
5.66 0.113034
5.67 0.114736
5.68 0.115587
5.69 0.115577
5.7 0.114679
5.71 0.112913
5.72 0.110403
5.73 0.107232
5.74 0.103501
5.75 0.0993289
5.76 0.094846
5.77 0.0901886
5.78 0.0855289
5.79 0.0810105
5.8 0.0767669
5.81 0.0729201
5.82 0.0695763
5.83 0.0668441
5.84 0.0648268
5.85 0.0635068
5.86 0.0628915
5.87 0.0629625
5.88 0.063677
5.89 0.06497
5.9 0.0667897
5.91 0.0689934
5.92 0.071451
5.93 0.0740424
5.94 0.0766469
5.95 0.0791486
5.96 0.0814344
5.97 0.0833807
5.98 0.0849412
5.99 0.0860702
6 0.0867464
6.01 0.0869742
6.02 0.0867835
6.03 0.0862079
6.04 0.0853511
6.05 0.0843302
6.06 0.0832621
6.07 0.0822739
6.08 0.0814976
6.09 0.0810699
6.1 0.081175
6.11 0.0818835
6.12 0.0832872
6.13 0.0854555
6.14 0.0884322
6.15 0.0922324
6.16 0.0968897
6.17 0.102338
6.18 0.108451
6.19 0.115116
6.2 0.122199
6.21 0.129542
6.22 0.136973
6.23 0.144276
6.24 0.151258
6.25 0.157734
6.26 0.163529
6.27 0.168483
6.28 0.172457
6.29 0.175271
6.3 0.176817
6.31 0.177119
6.32 0.176162
6.33 0.173965
6.34 0.170577
6.35 0.166079
6.36 0.160485
6.37 0.154037
6.38 0.146897
6.39 0.139229
6.4 0.131199
6.41 0.122976
6.42 0.114728
6.43 0.106628
6.44 0.098806
6.45 0.091371
6.46 0.0844073
6.47 0.0779734
6.48 0.0721011
6.49 0.0668467
6.5 0.0621419
6.51 0.0579236
6.52 0.0541221
6.53 0.0506523
6.54 0.0474177
6.55 0.0443164
6.56 0.041232
6.57 0.0380562
6.58 0.0347001
6.59 0.0310886
6.6 0.027164
6.61 0.0228883
6.62 0.0182154
6.63 0.0131759
6.64 0.00781832
6.65 0.0022004
6.66 -0.00360053
6.67 -0.00949045
6.68 -0.0153593
6.69 -0.0210645
6.7 -0.0264881
6.71 -0.0315097
6.72 -0.0360145
6.73 -0.0398978
6.74 -0.0430688
6.75 -0.0453927
6.76 -0.0468342
6.77 -0.0474033
6.78 -0.0470978
6.79 -0.0459385
6.8 -0.0439681
6.81 -0.0412443
6.82 -0.0377929
6.83 -0.0337924
6.84 -0.0293514
6.85 -0.0245841
6.86 -0.0196056
6.87 -0.0145281
6.88 -0.00946311
6.89 -0.0045165
6.9 0.000238138
6.91 0.0047439
6.92 0.00896359
6.93 0.0128807
6.94 0.0164999
6.95 0.0198197
6.96 0.0229226
6.97 0.0258743
6.98 0.0287534
6.99 0.0316481
7 0.0346531
7.01 0.0378806
7.02 0.041444
7.03 0.0454157
7.04 0.0498721
7.05 0.0548763
7.06 0.0604753
7.07 0.066698
7.08 0.0736179
7.09 0.0811628
7.1 0.089288
7.11 0.0979387
7.12 0.107044
7.13 0.116516
7.14 0.126265
7.15 0.136173
7.16 0.146107
7.17 0.155953
7.18 0.1656
7.19 0.174942
7.2 0.183882
7.21 0.192279
7.22 0.200088
7.23 0.207266
7.24 0.213771
7.25 0.219579
7.26 0.224679
7.27 0.229051
7.28 0.232672
7.29 0.235627
7.3 0.237948
7.31 0.239668
7.32 0.240821
7.33 0.241441
7.34 0.241515
7.35 0.241089
7.36 0.240192
7.37 0.238822
7.38 0.236968
7.39 0.23461
7.4 0.231704
7.41 0.228156
7.42 0.223966
7.43 0.21908
7.44 0.213437
7.45 0.206978
7.46 0.199647
7.47 0.191324
7.48 0.181984
7.49 0.171643
7.5 0.160288
7.51 0.147921
7.52 0.134564
7.53 0.12025
7.54 0.104952
7.55 0.0888567
7.56 0.0720624
7.57 0.0546845
7.58 0.0368517
7.59 0.0187045
7.6 0.000391561
7.61 -0.0179076
7.62 -0.0360277
7.63 -0.0538136
7.64 -0.0711156
7.65 -0.0877917
7.66 -0.103711
7.67 -0.118648
7.68 -0.132587
7.69 -0.145453
7.7 -0.157186
7.71 -0.167745
7.72 -0.177106
7.73 -0.185208
7.74 -0.192046
7.75 -0.197736
7.76 -0.202326
7.77 -0.205877
7.78 -0.208457
7.79 -0.210146
7.8 -0.21095
7.81 -0.211033
7.82 -0.210492
7.83 -0.20941
7.84 -0.207864
7.85 -0.205928
7.86 -0.203657
7.87 -0.201104
7.88 -0.198344
7.89 -0.195415
7.9 -0.19235
7.91 -0.189171
7.92 -0.185896
7.93 -0.182528
7.94 -0.17908
7.95 -0.175554
7.96 -0.171949
7.97 -0.168263
7.98 -0.164495
7.99 -0.16064
8 -0.156696
8.01 -0.152675
8.02 -0.148586
8.03 -0.14444
8.04 -0.140254
8.05 -0.136048
8.06 -0.131851
8.07 -0.127692
8.08 -0.123604
8.09 -0.11962
8.1 -0.115775
8.11 -0.112102
8.12 -0.108641
8.13 -0.105447
8.14 -0.102529
8.15 -0.0999102
8.16 -0.0976117
8.17 -0.095648
8.18 -0.0940275
8.19 -0.0927748
8.2 -0.0918762
8.21 -0.0912995
8.22 -0.0910221
8.23 -0.0910139
8.24 -0.0912378
8.25 -0.0916502
8.26 -0.0922098
8.27 -0.0928394
8.28 -0.0934781
8.29 -0.094062
8.3 -0.0945251
8.31 -0.0948008
8.32 -0.0948051
8.33 -0.0944631
8.34 -0.093731
8.35 -0.0925544
8.36 -0.0908846
8.37 -0.0886805
8.38 -0.0859091
8.39 -0.0824803
8.4 -0.0784404
8.41 -0.0737931
8.42 -0.0685472
8.43 -0.0627224
8.44 -0.0563477
8.45 -0.0494408
8.46 -0.0420445
8.47 -0.0342512
8.48 -0.0261231
8.49 -0.0177265
8.5 -0.00913068
8.51 -0.000406038
8.52 0.00837633
8.53 0.0171368
8.54 0.0258114
8.55 0.0343424
8.56 0.0426787
8.57 0.0507769
8.58 0.0585914
8.59 0.066079
8.6 0.0732477
8.61 0.0800913
8.62 0.0866116
8.63 0.0928179
8.64 0.0987257
8.65 0.104333
8.66 0.109684
8.67 0.114813
8.68 0.119745
8.69 0.124505
8.7 0.129113
8.71 0.133583
8.72 0.137913
8.73 0.142118
8.74 0.146189
8.75 0.150108
8.76 0.153851
8.77 0.157382
8.78 0.160637
8.79 0.163569
8.8 0.166134
8.81 0.168271
8.82 0.169922
8.83 0.171025
8.84 0.171514
8.85 0.171266
8.86 0.170301
8.87 0.168578
8.88 0.166067
8.89 0.16275
8.9 0.158617
8.91 0.15362
8.92 0.147787
8.93 0.14119
8.94 0.133867
8.95 0.125866
8.96 0.117241
8.97 0.108054
8.98 0.0983212
8.99 0.088173
9 0.0776768
9.01 0.0668975
9.02 0.0558956
9.03 0.0447261
9.04 0.0334329
9.05 0.0220603
9.06 0.0106446
9.07 -0.000793666
9.08 -0.0122424
9.09 -0.023697
9.1 -0.0351597
9.11 -0.0466408
9.12 -0.0581515
9.13 -0.0697047
9.14 -0.0813128
9.15 -0.0929852
9.16 -0.104727
9.17 -0.116539
9.18 -0.128411
9.19 -0.140316
9.2 -0.152222
9.21 -0.164085
9.22 -0.175852
9.23 -0.187458
9.24 -0.198798
9.25 -0.209797
9.26 -0.220369
9.27 -0.23042
9.28 -0.239854
9.29 -0.248576
9.3 -0.256467
9.31 -0.263381
9.32 -0.269315
9.33 -0.274206
9.34 -0.278003
9.35 -0.280672
9.36 -0.282193
9.37 -0.282466
9.38 -0.281569
9.39 -0.279572
9.4 -0.276521
9.41 -0.272479
9.42 -0.267517
9.43 -0.261699
9.44 -0.255067
9.45 -0.247791
9.46 -0.239963
9.47 -0.23167
9.48 -0.222996
9.49 -0.214014
9.5 -0.204778
9.51 -0.195353
9.52 -0.185788
9.53 -0.176105
9.54 -0.166316
9.55 -0.156418
9.56 -0.146393
9.57 -0.136197
9.58 -0.125805
9.59 -0.115173
9.6 -0.104254
9.61 -0.0929966
9.62 -0.0813528
9.63 -0.0692478
9.64 -0.0566415
9.65 -0.0435299
9.66 -0.029896
9.67 -0.0157348
9.68 -0.00105484
9.69 0.0141216
9.7 0.0298056
9.71 0.0458873
9.72 0.0623
9.73 0.0789661
9.74 0.095799
9.75 0.112704
9.76 0.129576
9.77 0.146293
9.78 0.162757
9.79 0.178868
9.8 0.19453
9.81 0.209656
9.82 0.224166
9.83 0.237914
9.84 0.250901
9.85 0.263094
9.86 0.274464
9.87 0.284994
9.88 0.294679
9.89 0.303491
9.9 0.31142
9.91 0.318556
9.92 0.324934
9.93 0.330591
9.94 0.335567
9.95 0.339905
9.96 0.343595
9.97 0.346723
9.98 0.34934
9.99 0.351477
10 0.353162
10.01 0.354415
10.02 0.355242
10.03 0.355629
10.04 0.355617
10.05 0.355206
10.06 0.354392
10.07 0.35317
10.08 0.351532
10.09 0.349436
10.1 0.346894
10.11 0.343918
10.12 0.340506
10.13 0.336663
10.14 0.332395
10.15 0.327709
10.16 0.322595
10.17 0.317118
10.18 0.311308
10.19 0.305201
10.2 0.298836
10.21 0.292255
10.22 0.285497
10.23 0.278619
10.24 0.271678
10.25 0.264722
10.26 0.257798
10.27 0.250952
10.28 0.244226
10.29 0.23768
10.3 0.231331
10.31 0.22521
10.32 0.219336
10.33 0.213729
10.34 0.208397
10.35 0.203364
10.36 0.198626
10.37 0.194158
10.38 0.189947
10.39 0.185972
10.4 0.182208
10.41 0.178625
10.42 0.1752
10.43 0.171873
10.44 0.1686
10.45 0.165331
10.46 0.162018
10.47 0.158605
10.48 0.155028
10.49 0.151218
10.5 0.147128
10.51 0.142701
10.52 0.137882
10.53 0.132618
10.54 0.126857
10.55 0.120494
10.56 0.11353
10.57 0.105941
10.58 0.0976984
10.59 0.0887845
10.6 0.0791887
10.61 0.068885
10.62 0.0578571
10.63 0.0461807
10.64 0.0338878
10.65 0.02102
10.66 0.00762816
10.67 -0.00622807
10.68 -0.0205108
10.69 -0.0351109
10.7 -0.0499385
10.71 -0.0649109
10.72 -0.0799442
10.73 -0.094955
10.74 -0.109857
10.75 -0.124554
10.76 -0.138986
10.77 -0.153093
10.78 -0.166823
10.79 -0.180136
10.8 -0.193001
10.81 -0.205361
10.82 -0.217233
10.83 -0.228641
10.84 -0.239604
10.85 -0.250151
10.86 -0.260319
10.87 -0.270149
10.88 -0.279672
10.89 -0.288974
10.9 -0.298108
10.91 -0.307128
10.92 -0.316082
10.93 -0.325013
10.94 -0.33396
10.95 -0.342953
10.96 -0.352005
10.97 -0.361119
10.98 -0.370287
10.99 -0.379492
11 -0.3887
11.01 -0.397862
11.02 -0.406925
11.03 -0.415827
11.04 -0.424503
11.05 -0.43288
11.06 -0.440886
11.07 -0.448417
11.08 -0.455387
11.09 -0.461758
11.1 -0.467466
11.11 -0.472456
11.12 -0.476683
11.13 -0.480109
11.14 -0.482611
11.15 -0.484261
11.16 -0.485057
11.17 -0.485006
11.18 -0.484119
11.19 -0.482418
11.2 -0.479896
11.21 -0.476572
11.22 -0.472538
11.23 -0.467832
11.24 -0.462492
11.25 -0.456557
11.26 -0.45006
11.27 -0.442983
11.28 -0.435399
11.29 -0.427336
11.3 -0.418809
11.31 -0.40983
11.32 -0.400403
11.33 -0.390512
11.34 -0.380133
11.35 -0.369297
11.36 -0.357994
11.37 -0.346218
11.38 -0.333962
11.39 -0.321221
11.4 -0.307949
11.41 -0.294179
11.42 -0.279934
11.43 -0.265228
11.44 -0.250079
11.45 -0.234513
11.46 -0.218552
11.47 -0.202214
11.48 -0.185575
11.49 -0.16868
11.5 -0.151576
11.51 -0.134313
11.52 -0.11694
11.53 -0.0995046
11.54 -0.0820627
11.55 -0.0646601
11.56 -0.047337
11.57 -0.0301295
11.58 -0.0130693
11.59 0.00381428
11.6 0.0204788
11.61 0.0369264
11.62 0.0531441
11.63 0.0691226
11.64 0.0848548
11.65 0.100335
11.66 0.115542
11.67 0.130473
11.68 0.145136
11.69 0.159521
11.7 0.173619
11.71 0.187413
11.72 0.200886
11.73 0.213974
11.74 0.226688
11.75 0.238999
11.76 0.250875
11.77 0.262281
11.78 0.273182
11.79 0.283511
11.8 0.293222
11.81 0.302316
11.82 0.310765
11.83 0.31854
11.84 0.32562
11.85 0.331989
11.86 0.337555
11.87 0.342384
11.88 0.346484
11.89 0.349861
11.9 0.352525
11.91 0.354489
11.92 0.355743
11.93 0.356287
11.94 0.356191
11.95 0.355472
11.96 0.354147
11.97 0.352228
11.98 0.349722
11.99 0.346577
12 0.342832
12.01 0.338488
12.02 0.333529
12.03 0.327932
12.04 0.321668
12.05 0.31468
12.06 0.306888
12.07 0.298313
12.08 0.288917
12.09 0.278662
12.1 0.267515
12.11 0.255449
12.12 0.242359
12.13 0.228288
12.14 0.213265
12.15 0.197305
12.16 0.180436
12.17 0.162699
12.18 0.144134
12.19 0.124766
