# xPDFsuite Configuration #
[PDF]
wavelength = 0.1
dataformat = QA
inputfile = BiMsol6_insitu_700 C-00610.xy
backgroundfile = Quartz2mm-dist500-00000.xy
mode = xray
bgscale = 0.0042
composition = Bi2Fe4O9
outputtype = gr
qmaxinst = 24.998449118
qmin = 0.1
qmax = 21.4986662415
rmax = 80.0
rmin = 0.0
rstep = 0.01
rpoly = 0.9

[Misc]
inputdir = C:/Data/Seafile/CPH/Beamtime/Desy Oct 20/In situ data/Processed/BiMsol6/PDF
savedir = C:/Data/Seafile/CPH/Beamtime/Desy Oct 20/In situ data/PDF/BiMsol6
backgroundfilefull = C:/Data/Seafile/CPH/Beamtime/Desy Oct 20/In situ data/Processed/Standard_Empty_Cap/Quartz2mm-dist500-00000.xy

#### start data
#S 1
#L r($\AA$)  G($\AA^{-2}$)
0 0
0.01 0.00644439
0.02 0.0125267
0.03 0.0179368
0.04 0.0223964
0.05 0.0256716
0.06 0.0275838
0.07 0.027937
0.08 0.0266729
0.09 0.0239334
0.1 0.0198346
0.11 0.0145577
0.12 0.0083405
0.13 0.00146765
0.14 -0.00574228
0.15 -0.0128839
0.16 -0.0196156
0.17 -0.0256164
0.18 -0.030598
0.19 -0.0343183
0.2 -0.0365283
0.21 -0.0370557
0.22 -0.0359936
0.23 -0.0334034
0.24 -0.0294243
0.25 -0.0242687
0.26 -0.0182144
0.27 -0.0115753
0.28 -0.0048121
0.29 0.00166548
0.3 0.00745925
0.31 0.0121896
0.32 0.0155141
0.33 0.0170853
0.34 0.0165623
0.35 0.0139882
0.36 0.0093532
0.37 0.00274992
0.38 -0.0056248
0.39 -0.0154727
0.4 -0.0264501
0.41 -0.0379526
0.42 -0.0493856
0.43 -0.0601452
0.44 -0.0696051
0.45 -0.0771404
0.46 -0.0820899
0.47 -0.0836039
0.48 -0.0814877
0.49 -0.0753915
0.5 -0.0650845
0.51 -0.050469
0.52 -0.0315906
0.53 -0.00837298
0.54 0.0186533
0.55 0.0487854
0.56 0.0813709
0.57 0.115645
0.58 0.150753
0.59 0.18576
0.6 0.219482
0.61 0.250977
0.62 0.279306
0.63 0.303587
0.64 0.323026
0.65 0.336943
0.66 0.344394
0.67 0.344993
0.68 0.338909
0.69 0.326148
0.7 0.306896
0.71 0.281512
0.72 0.25052
0.73 0.214121
0.74 0.173769
0.75 0.130407
0.76 0.085032
0.77 0.0386814
0.78 -0.00760177
0.79 -0.0526919
0.8 -0.0954581
0.81 -0.13513
0.82 -0.170968
0.83 -0.202366
0.84 -0.228868
0.85 -0.250176
0.86 -0.265605
0.87 -0.275698
0.88 -0.280754
0.89 -0.281141
0.9 -0.277349
0.91 -0.269975
0.92 -0.259611
0.93 -0.247012
0.94 -0.233157
0.95 -0.218801
0.96 -0.204667
0.97 -0.191423
0.98 -0.179662
0.99 -0.170105
1 -0.163038
1.01 -0.158654
1.02 -0.157081
1.03 -0.158326
1.04 -0.162283
1.05 -0.168807
1.06 -0.177682
1.07 -0.1883
1.08 -0.200224
1.09 -0.212983
1.1 -0.226099
1.11 -0.239104
1.12 -0.251478
1.13 -0.262808
1.14 -0.272798
1.15 -0.281204
1.16 -0.28786
1.17 -0.292682
1.18 -0.295642
1.19 -0.29669
1.2 -0.296178
1.21 -0.294331
1.22 -0.291423
1.23 -0.287754
1.24 -0.283644
1.25 -0.279427
1.26 -0.275449
1.27 -0.27198
1.28 -0.269242
1.29 -0.267404
1.3 -0.266574
1.31 -0.266804
1.32 -0.268172
1.33 -0.270461
1.34 -0.273517
1.35 -0.277137
1.36 -0.281082
1.37 -0.285089
1.38 -0.288853
1.39 -0.29206
1.4 -0.294473
1.41 -0.295873
1.42 -0.296084
1.43 -0.294982
1.44 -0.292502
1.45 -0.288491
1.46 -0.283181
1.47 -0.276718
1.48 -0.269301
1.49 -0.261179
1.5 -0.252637
1.51 -0.244002
1.52 -0.235656
1.53 -0.22793
1.54 -0.221132
1.55 -0.215539
1.56 -0.211383
1.57 -0.208844
1.58 -0.208216
1.59 -0.209388
1.6 -0.212282
1.61 -0.216777
1.62 -0.22268
1.63 -0.229733
1.64 -0.237642
1.65 -0.246015
1.66 -0.254394
1.67 -0.262372
1.68 -0.269542
1.69 -0.275516
1.7 -0.279937
1.71 -0.282302
1.72 -0.282455
1.73 -0.280281
1.74 -0.275689
1.75 -0.268669
1.76 -0.259288
1.77 -0.247645
1.78 -0.233866
1.79 -0.218452
1.8 -0.201754
1.81 -0.184163
1.82 -0.166091
1.83 -0.147962
1.84 -0.130252
1.85 -0.113387
1.86 -0.0976994
1.87 -0.0834841
1.88 -0.070976
1.89 -0.0603415
1.9 -0.0517035
1.91 -0.0452474
1.92 -0.0406952
1.93 -0.0379037
1.94 -0.0366693
1.95 -0.0367377
1.96 -0.0378153
1.97 -0.0396058
1.98 -0.0417165
1.99 -0.0437902
2 -0.0455223
2.01 -0.0466422
2.02 -0.0469246
2.03 -0.0461956
2.04 -0.0442208
2.05 -0.0410986
2.06 -0.0368793
2.07 -0.031682
2.08 -0.0256902
2.09 -0.0191449
2.1 -0.0123405
2.11 -0.00565956
2.12 0.000528553
2.13 0.00586072
2.14 0.00998116
2.15 0.0125553
2.16 0.013283
2.17 0.0116587
2.18 0.00769341
2.19 0.00129141
2.2 -0.00758654
2.21 -0.0189048
2.22 -0.0325532
2.23 -0.0484352
2.24 -0.0663062
2.25 -0.0856936
2.26 -0.106231
2.27 -0.127518
2.28 -0.149136
2.29 -0.170659
2.3 -0.191577
2.31 -0.211495
2.32 -0.230072
2.33 -0.247002
2.34 -0.262038
2.35 -0.274994
2.36 -0.285678
2.37 -0.293939
2.38 -0.3
2.39 -0.30397
2.4 -0.306016
2.41 -0.306359
2.42 -0.305259
2.43 -0.30294
2.44 -0.299825
2.45 -0.296272
2.46 -0.292599
2.47 -0.289109
2.48 -0.286076
2.49 -0.283762
2.5 -0.282446
2.51 -0.282192
2.52 -0.283084
2.53 -0.285152
2.54 -0.288375
2.55 -0.292685
2.56 -0.298033
2.57 -0.30421
2.58 -0.310993
2.59 -0.318178
2.6 -0.325554
2.61 -0.332907
2.62 -0.340025
2.63 -0.346657
2.64 -0.352669
2.65 -0.357927
2.66 -0.362332
2.67 -0.365816
2.68 -0.368349
2.69 -0.369876
2.7 -0.370459
2.71 -0.370218
2.72 -0.369252
2.73 -0.367674
2.74 -0.36561
2.75 -0.363192
2.76 -0.36054
2.77 -0.357814
2.78 -0.355122
2.79 -0.352557
2.8 -0.35019
2.81 -0.348068
2.82 -0.346234
2.83 -0.344687
2.84 -0.343385
2.85 -0.342284
2.86 -0.341323
2.87 -0.340431
2.88 -0.339528
2.89 -0.338514
2.9 -0.337307
2.91 -0.335837
2.92 -0.334037
2.93 -0.331857
2.94 -0.329259
2.95 -0.3262
2.96 -0.322661
2.97 -0.318682
2.98 -0.314285
2.99 -0.309499
3 -0.304357
3.01 -0.298893
3.02 -0.293113
3.03 -0.28706
3.04 -0.28075
3.05 -0.274172
3.06 -0.2673
3.07 -0.260085
3.08 -0.252442
3.09 -0.244237
3.1 -0.235392
3.11 -0.225774
3.12 -0.21524
3.13 -0.203637
3.14 -0.190811
3.15 -0.176482
3.16 -0.160565
3.17 -0.142988
3.18 -0.123656
3.19 -0.102505
3.2 -0.0795051
3.21 -0.0546286
3.22 -0.0278046
3.23 0.000683527
3.24 0.0306854
3.25 0.0620086
3.26 0.0944222
3.27 0.12766
3.28 0.161441
3.29 0.195383
3.3 0.229128
3.31 0.262332
3.32 0.294655
3.33 0.325766
3.34 0.355333
3.35 0.382861
3.36 0.408274
3.37 0.431363
3.38 0.451961
3.39 0.469948
3.4 0.485246
3.41 0.497656
3.42 0.507221
3.43 0.514155
3.44 0.518558
3.45 0.520562
3.46 0.520321
3.47 0.518012
3.48 0.513627
3.49 0.507593
3.5 0.500104
3.51 0.491347
3.52 0.481495
3.53 0.470707
3.54 0.459089
3.55 0.446769
3.56 0.433892
3.57 0.420533
3.58 0.406752
3.59 0.39259
3.6 0.378079
3.61 0.36321
3.62 0.348033
3.63 0.332573
3.64 0.316854
3.65 0.300911
3.66 0.284791
3.67 0.268555
3.68 0.252295
3.69 0.236119
3.7 0.220147
3.71 0.204513
3.72 0.189369
3.73 0.174875
3.74 0.161293
3.75 0.14876
3.76 0.137429
3.77 0.127464
3.78 0.119021
3.79 0.112238
3.8 0.107291
3.81 0.104396
3.82 0.103458
3.83 0.104513
3.84 0.107567
3.85 0.112597
3.86 0.119552
3.87 0.128497
3.88 0.139223
3.89 0.151537
3.9 0.165293
3.91 0.180329
3.92 0.196478
3.93 0.213579
3.94 0.231498
3.95 0.249976
3.96 0.26885
3.97 0.287968
3.98 0.307188
3.99 0.326383
4 0.345422
4.01 0.364197
4.02 0.382633
4.03 0.400657
4.04 0.418208
4.05 0.435233
4.06 0.451679
4.07 0.467432
4.08 0.482513
4.09 0.496874
4.1 0.510468
4.11 0.523239
4.12 0.535128
4.13 0.546006
4.14 0.555794
4.15 0.564467
4.16 0.571945
4.17 0.578145
4.18 0.582985
4.19 0.586386
4.2 0.588094
4.21 0.588206
4.22 0.586675
4.23 0.583463
4.24 0.578545
4.25 0.571913
4.26 0.563494
4.27 0.553289
4.28 0.541461
4.29 0.528073
4.3 0.513202
4.31 0.496939
4.32 0.479381
4.33 0.460527
4.34 0.440603
4.35 0.419739
4.36 0.398047
4.37 0.375633
4.38 0.352597
4.39 0.329014
4.4 0.304959
4.41 0.280542
4.42 0.255821
4.43 0.230845
4.44 0.205656
4.45 0.180284
4.46 0.154745
4.47 0.129076
4.48 0.103302
4.49 0.0774475
4.5 0.0515412
4.51 0.0256177
4.52 -0.000278057
4.53 -0.0260804
4.54 -0.051727
4.55 -0.0771413
4.56 -0.102237
4.57 -0.126917
4.58 -0.151079
4.59 -0.174553
4.6 -0.197237
4.61 -0.219043
4.62 -0.23986
4.63 -0.259588
4.64 -0.278131
4.65 -0.295391
4.66 -0.311183
4.67 -0.325597
4.68 -0.338613
4.69 -0.350232
4.7 -0.360478
4.71 -0.369396
4.72 -0.376972
4.73 -0.383331
4.74 -0.38864
4.75 -0.393018
4.76 -0.396594
4.77 -0.399504
4.78 -0.401883
4.79 -0.403842
4.8 -0.405567
4.81 -0.407175
4.82 -0.408775
4.83 -0.410456
4.84 -0.412293
4.85 -0.414355
4.86 -0.416678
4.87 -0.419261
4.88 -0.422092
4.89 -0.425145
4.9 -0.428376
4.91 -0.431728
4.92 -0.435131
4.93 -0.438494
4.94 -0.441734
4.95 -0.444769
4.96 -0.447517
4.97 -0.4499
4.98 -0.451825
4.99 -0.45321
5 -0.454037
5.01 -0.45427
5.02 -0.453882
5.03 -0.452859
5.04 -0.451196
5.05 -0.448839
5.06 -0.445856
5.07 -0.442282
5.08 -0.438146
5.09 -0.433477
5.1 -0.428308
5.11 -0.422656
5.12 -0.416534
5.13 -0.410008
5.14 -0.4031
5.15 -0.39583
5.16 -0.388214
5.17 -0.380264
5.18 -0.371963
5.19 -0.363341
5.2 -0.354415
5.21 -0.345197
5.22 -0.335702
5.23 -0.325948
5.24 -0.315956
5.25 -0.30575
5.26 -0.295394
5.27 -0.284937
5.28 -0.27444
5.29 -0.263969
5.3 -0.253597
5.31 -0.243425
5.32 -0.23354
5.33 -0.224019
5.34 -0.214947
5.35 -0.206403
5.36 -0.198462
5.37 -0.1912
5.38 -0.184744
5.39 -0.179061
5.4 -0.174177
5.41 -0.1701
5.42 -0.166824
5.43 -0.164325
5.44 -0.162608
5.45 -0.161599
5.46 -0.161188
5.47 -0.161293
5.48 -0.161824
5.49 -0.162683
5.5 -0.163771
5.51 -0.164989
5.52 -0.166218
5.53 -0.167365
5.54 -0.168349
5.55 -0.169095
5.56 -0.169544
5.57 -0.169624
5.58 -0.169297
5.59 -0.168565
5.6 -0.167422
5.61 -0.165874
5.62 -0.163936
5.63 -0.161632
5.64 -0.158957
5.65 -0.155979
5.66 -0.152733
5.67 -0.149248
5.68 -0.145549
5.69 -0.141654
5.7 -0.137564
5.71 -0.133272
5.72 -0.128779
5.73 -0.12406
5.74 -0.119084
5.75 -0.113809
5.76 -0.108186
5.77 -0.102117
5.78 -0.0955691
5.79 -0.0884949
5.8 -0.0808411
5.81 -0.072561
5.82 -0.0636162
5.83 -0.0539561
5.84 -0.0435311
5.85 -0.0324049
5.86 -0.0205993
5.87 -0.0081528
5.88 0.00487921
5.89 0.0184254
5.9 0.0324275
5.91 0.0467483
5.92 0.0612626
5.93 0.0758509
5.94 0.0903895
5.95 0.104754
5.96 0.118814
5.97 0.132408
5.98 0.145464
5.99 0.157888
6 0.169604
6.01 0.180551
6.02 0.190687
6.03 0.199922
6.04 0.208281
6.05 0.215814
6.06 0.222553
6.07 0.228544
6.08 0.233843
6.09 0.238512
6.1 0.242578
6.11 0.246181
6.12 0.249396
6.13 0.252289
6.14 0.254924
6.15 0.257352
6.16 0.259602
6.17 0.261705
6.18 0.263675
6.19 0.265504
6.2 0.267167
6.21 0.268628
6.22 0.269834
6.23 0.270678
6.24 0.271118
6.25 0.271075
6.26 0.270466
6.27 0.269211
6.28 0.267231
6.29 0.264409
6.3 0.260663
6.31 0.255996
6.32 0.250372
6.33 0.24377
6.34 0.236186
6.35 0.227629
6.36 0.218033
6.37 0.207536
6.38 0.196209
6.39 0.184126
6.4 0.171369
6.41 0.158029
6.42 0.144188
6.43 0.129946
6.44 0.11544
6.45 0.100768
6.46 0.08602
6.47 0.0712836
6.48 0.0566352
6.49 0.0421621
6.5 0.0279132
6.51 0.013926
6.52 0.00022978
6.53 -0.0131576
6.54 -0.0262291
6.55 -0.0389781
6.56 -0.0514012
6.57 -0.0635451
6.58 -0.0754341
6.59 -0.0870954
6.6 -0.0985572
6.61 -0.109847
6.62 -0.12098
6.63 -0.131985
6.64 -0.142882
6.65 -0.153678
6.66 -0.164372
6.67 -0.174954
6.68 -0.185406
6.69 -0.195683
6.7 -0.205763
6.71 -0.2156
6.72 -0.225143
6.73 -0.234336
6.74 -0.243113
6.75 -0.25137
6.76 -0.259039
6.77 -0.26607
6.78 -0.272392
6.79 -0.277934
6.8 -0.282627
6.81 -0.286399
6.82 -0.289082
6.83 -0.290723
6.84 -0.291274
6.85 -0.29069
6.86 -0.288938
6.87 -0.285986
6.88 -0.281739
6.89 -0.276187
6.9 -0.269394
6.91 -0.261362
6.92 -0.252099
6.93 -0.241622
6.94 -0.229952
6.95 -0.216988
6.96 -0.202896
6.97 -0.18772
6.98 -0.171503
6.99 -0.154293
7 -0.136139
7.01 -0.117054
7.02 -0.0970884
7.03 -0.0763575
7.04 -0.0549204
7.05 -0.0328362
7.06 -0.0101646
7.07 0.0130348
7.08 0.0367444
7.09 0.0608568
7.1 0.0853064
7.11 0.110034
7.12 0.134982
7.13 0.160089
7.14 0.185298
7.15 0.210541
7.16 0.235746
7.17 0.26085
7.18 0.285785
7.19 0.310481
7.2 0.334864
7.21 0.358815
7.22 0.382267
7.23 0.405146
7.24 0.427362
7.25 0.448824
7.26 0.469436
7.27 0.489071
7.28 0.507554
7.29 0.52487
7.3 0.540922
7.31 0.555615
7.32 0.568855
7.33 0.580555
7.34 0.590496
7.35 0.598669
7.36 0.605072
7.37 0.609651
7.38 0.612367
7.39 0.61319
7.4 0.612073
7.41 0.608855
7.42 0.60374
7.43 0.596756
7.44 0.58794
7.45 0.577345
7.46 0.565032
7.47 0.550964
7.48 0.535272
7.49 0.518123
7.5 0.499615
7.51 0.479849
7.52 0.458929
7.53 0.436959
7.54 0.413962
7.55 0.390163
7.56 0.365671
7.57 0.340597
7.58 0.31505
7.59 0.289137
7.6 0.262957
7.61 0.236633
7.62 0.210283
7.63 0.184015
7.64 0.157932
7.65 0.132139
7.66 0.106743
7.67 0.0819159
7.68 0.0577206
7.69 0.0342589
7.7 0.0116342
7.71 -0.0100522
7.72 -0.0307026
7.73 -0.0501648
7.74 -0.0683134
7.75 -0.0851497
7.76 -0.100605
7.77 -0.114623
7.78 -0.127158
7.79 -0.138178
7.8 -0.147514
7.81 -0.155297
7.82 -0.161572
7.83 -0.166378
7.84 -0.169766
7.85 -0.171807
7.86 -0.17254
7.87 -0.172026
7.88 -0.170476
7.89 -0.168006
7.9 -0.164741
7.91 -0.160807
7.92 -0.156329
7.93 -0.151404
7.94 -0.146189
7.95 -0.140801
7.96 -0.135335
7.97 -0.129875
7.98 -0.124487
7.99 -0.119228
8 -0.114149
8.01 -0.109253
8.02 -0.104543
8.03 -0.100007
8.04 -0.0956196
8.05 -0.0913487
8.06 -0.0871551
8.07 -0.082984
8.08 -0.0787852
8.09 -0.0745134
8.1 -0.0701276
8.11 -0.0655936
8.12 -0.0608839
8.13 -0.0559678
8.14 -0.0508653
8.15 -0.0455913
8.16 -0.0401739
8.17 -0.034654
8.18 -0.0290839
8.19 -0.023532
8.2 -0.0180799
8.21 -0.0128039
8.22 -0.00778325
8.23 -0.00309648
8.24 0.00118169
8.25 0.00498132
8.26 0.00817909
8.27 0.0107875
8.28 0.0127777
8.29 0.0141365
8.3 0.0148674
8.31 0.0149905
8.32 0.0145134
8.33 0.0134963
8.34 0.0120426
8.35 0.0102329
8.36 0.00815571
8.37 0.0059051
8.38 0.00357712
8.39 0.00127839
8.4 -0.000895218
8.41 -0.00286459
8.42 -0.00456213
8.43 -0.00593441
8.44 -0.00694417
8.45 -0.0075544
8.46 -0.0077564
8.47 -0.00760037
8.48 -0.00712673
8.49 -0.00639245
8.5 -0.00546911
8.51 -0.00444055
8.52 -0.00340884
8.53 -0.00248624
8.54 -0.00177519
8.55 -0.00137648
8.56 -0.00138585
8.57 -0.00189085
8.58 -0.00298983
8.59 -0.00478313
8.6 -0.00726499
8.61 -0.0104609
8.62 -0.0143784
8.63 -0.0190073
8.64 -0.0243203
8.65 -0.0303247
8.66 -0.036917
8.67 -0.044006
8.68 -0.0515109
8.69 -0.0593454
8.7 -0.0674206
8.71 -0.0756495
8.72 -0.0839414
8.73 -0.0922068
8.74 -0.100378
8.75 -0.108398
8.76 -0.116221
8.77 -0.123817
8.78 -0.131146
8.79 -0.138213
8.8 -0.145036
8.81 -0.151635
8.82 -0.158035
8.83 -0.16427
8.84 -0.170375
8.85 -0.176382
8.86 -0.182341
8.87 -0.188281
8.88 -0.194225
8.89 -0.20019
8.9 -0.206181
8.91 -0.212195
8.92 -0.21821
8.93 -0.224198
8.94 -0.230119
8.95 -0.235925
8.96 -0.241563
8.97 -0.246973
8.98 -0.252053
8.99 -0.25677
9 -0.261065
9.01 -0.264886
9.02 -0.268188
9.03 -0.270936
9.04 -0.273074
9.05 -0.274585
9.06 -0.275512
9.07 -0.275873
9.08 -0.2757
9.09 -0.275036
9.1 -0.273934
9.11 -0.272423
9.12 -0.270617
9.13 -0.268591
9.14 -0.266417
9.15 -0.264168
9.16 -0.261909
9.17 -0.259702
9.18 -0.257608
9.19 -0.255657
9.2 -0.253873
9.21 -0.252266
9.22 -0.250834
9.23 -0.249562
9.24 -0.248432
9.25 -0.247393
9.26 -0.246394
9.27 -0.245383
9.28 -0.244305
9.29 -0.243103
9.3 -0.241717
9.31 -0.240079
9.32 -0.238164
9.33 -0.235944
9.34 -0.233396
9.35 -0.230514
9.36 -0.227302
9.37 -0.223752
9.38 -0.219915
9.39 -0.215843
9.4 -0.211586
9.41 -0.207202
9.42 -0.202753
9.43 -0.198302
9.44 -0.193924
9.45 -0.189673
9.46 -0.185601
9.47 -0.181746
9.48 -0.178136
9.49 -0.174786
9.5 -0.171714
9.51 -0.168894
9.52 -0.166279
9.53 -0.163821
9.54 -0.161457
9.55 -0.159114
9.56 -0.156706
9.57 -0.154116
9.58 -0.151255
9.59 -0.148026
9.6 -0.144335
9.61 -0.140089
9.62 -0.135207
9.63 -0.129567
9.64 -0.123106
9.65 -0.115821
9.66 -0.107682
9.67 -0.0986772
9.68 -0.088809
9.69 -0.0780954
9.7 -0.0664796
9.71 -0.0541053
9.72 -0.0410322
9.73 -0.0273268
9.74 -0.0130618
9.75 0.00168674
9.76 0.0168577
9.77 0.0323679
9.78 0.0481188
9.79 0.0640428
9.8 0.0800788
9.81 0.0961731
9.82 0.112279
9.83 0.128354
9.84 0.144367
9.85 0.160298
9.86 0.176129
9.87 0.191849
9.88 0.207449
9.89 0.222913
9.9 0.238227
9.91 0.253387
9.92 0.268376
9.93 0.283172
9.94 0.297746
9.95 0.312061
9.96 0.326041
9.97 0.339649
9.98 0.352836
9.99 0.365538
10 0.377687
10.01 0.389215
10.02 0.400032
10.03 0.410017
10.04 0.419171
10.05 0.42744
10.06 0.434779
10.07 0.441153
10.08 0.446539
10.09 0.450847
10.1 0.45413
10.11 0.456448
10.12 0.457835
10.13 0.458344
10.14 0.458035
10.15 0.456972
10.16 0.455196
10.17 0.45287
10.18 0.450091
10.19 0.446956
10.2 0.443564
10.21 0.440008
10.22 0.43638
10.23 0.432775
10.24 0.429267
10.25 0.425916
10.26 0.422772
10.27 0.41987
10.28 0.417238
10.29 0.414915
10.3 0.412868
10.31 0.411082
10.32 0.409532
10.33 0.408184
10.34 0.406996
10.35 0.405926
10.36 0.404911
10.37 0.403892
10.38 0.40281
10.39 0.40161
10.4 0.400235
10.41 0.398632
10.42 0.396711
10.43 0.39445
10.44 0.391805
10.45 0.388736
10.46 0.385204
10.47 0.381174
10.48 0.376587
10.49 0.371396
10.5 0.365614
10.51 0.359213
10.52 0.352172
10.53 0.344471
10.54 0.33609
10.55 0.326941
10.56 0.317072
10.57 0.306485
10.58 0.295174
10.59 0.283143
10.6 0.270397
10.61 0.256923
10.62 0.242718
10.63 0.227867
10.64 0.212407
10.65 0.196383
10.66 0.17985
10.67 0.162867
10.68 0.145474
10.69 0.127777
10.7 0.109866
10.71 0.0918218
10.72 0.0737262
10.73 0.0556613
10.74 0.0377115
10.75 0.0199731
10.76 0.00250228
10.77 -0.0146417
10.78 -0.0314088
10.79 -0.0477595
10.8 -0.0636657
10.81 -0.0790739
10.82 -0.0940007
10.83 -0.108474
10.84 -0.122515
10.85 -0.136154
10.86 -0.149432
10.87 -0.162389
10.88 -0.175062
10.89 -0.187536
10.9 -0.199864
10.91 -0.212098
10.92 -0.224287
10.93 -0.23647
10.94 -0.248687
10.95 -0.260961
10.96 -0.273302
10.97 -0.285709
10.98 -0.29817
10.99 -0.310661
11 -0.323146
11.01 -0.33557
11.02 -0.347876
11.03 -0.360003
11.04 -0.371883
11.05 -0.383444
11.06 -0.394614
11.07 -0.405291
11.08 -0.415395
11.09 -0.424891
11.1 -0.433723
11.11 -0.441843
11.12 -0.44921
11.13 -0.455794
11.14 -0.461482
11.15 -0.466347
11.16 -0.470393
11.17 -0.473626
11.18 -0.476062
11.19 -0.477718
11.2 -0.478585
11.21 -0.478675
11.22 -0.47807
11.23 -0.476795
11.24 -0.474876
11.25 -0.472336
11.26 -0.469192
11.27 -0.465401
11.28 -0.461019
11.29 -0.456061
11.3 -0.450524
11.31 -0.444402
11.32 -0.437686
11.33 -0.430343
11.34 -0.422331
11.35 -0.413688
11.36 -0.404402
11.37 -0.394468
11.38 -0.383883
11.39 -0.372649
11.4 -0.360722
11.41 -0.348158
11.42 -0.335001
11.43 -0.321285
11.44 -0.30705
11.45 -0.292343
11.46 -0.277211
11.47 -0.261697
11.48 -0.245903
11.49 -0.229898
11.5 -0.213751
11.51 -0.197532
11.52 -0.181311
11.53 -0.165165
11.54 -0.149163
11.55 -0.13336
11.56 -0.11781
11.57 -0.102561
11.58 -0.087654
11.59 -0.0731304
11.6 -0.0590601
11.61 -0.0454256
11.62 -0.0322447
11.63 -0.0195303
11.64 -0.00729187
11.65 0.00446425
11.66 0.0157018
11.67 0.0264258
11.68 0.0366599
11.69 0.0464035
11.7 0.0556561
11.71 0.0644169
11.72 0.072684
11.73 0.0804006
11.74 0.0876226
11.75 0.0943498
11.76 0.100583
11.77 0.106324
11.78 0.111578
11.79 0.116325
11.8 0.120574
11.81 0.124369
11.82 0.127725
11.83 0.130664
11.84 0.13321
11.85 0.135389
11.86 0.137197
11.87 0.138701
11.88 0.139935
11.89 0.140928
11.9 0.14171
11.91 0.142306
11.92 0.14273
11.93 0.142996
11.94 0.143122
11.95 0.143109
11.96 0.142948
11.97 0.142624
11.98 0.142111
11.99 0.141351
12 0.140313
12.01 0.138951
12.02 0.137208
12.03 0.135025
12.04 0.132336
12.05 0.129056
12.06 0.125079
12.07 0.120391
12.08 0.114937
12.09 0.108666
12.1 0.101536
12.11 0.0935146
12.12 0.0845016
12.13 0.0745381
12.14 0.0636595
12.15 0.0518855
12.16 0.0392492
12.17 0.0257961
