# xPDFsuite Configuration #
[PDF]
wavelength = 0.1
dataformat = QA
inputfile = BiMsol6_insitu_700 C-00729.xy
backgroundfile = Quartz2mm-dist500-00000.xy
mode = xray
bgscale = 0.0042
composition = Bi2Fe4O9
outputtype = gr
qmaxinst = 24.998449118
qmin = 0.1
qmax = 21.4986662415
rmax = 80.0
rmin = 0.0
rstep = 0.01
rpoly = 0.9

[Misc]
inputdir = C:/Data/Seafile/CPH/Beamtime/Desy Oct 20/In situ data/Processed/BiMsol6/PDF
savedir = C:/Data/Seafile/CPH/Beamtime/Desy Oct 20/In situ data/PDF/BiMsol6
backgroundfilefull = C:/Data/Seafile/CPH/Beamtime/Desy Oct 20/In situ data/Processed/Standard_Empty_Cap/Quartz2mm-dist500-00000.xy

#### start data
#S 1
#L r($\AA$)  G($\AA^{-2}$)
0 0
0.01 0.00590747
0.02 0.0114753
0.03 0.0164132
0.04 0.0204606
0.05 0.0233996
0.06 0.0250645
0.07 0.025275
0.08 0.0239806
0.09 0.0213183
0.1 0.0174014
0.11 0.0124048
0.12 0.00655639
0.13 0.000127272
0.14 -0.00657598
0.15 -0.0131744
0.16 -0.0193477
0.17 -0.0247963
0.18 -0.0292531
0.19 -0.0324968
0.2 -0.0343011
0.21 -0.0345157
0.22 -0.0332414
0.23 -0.0305496
0.24 -0.0265853
0.25 -0.0215628
0.26 -0.015757
0.27 -0.00948442
0.28 -0.00318485
0.29 0.00275012
0.3 0.00794128
0.31 0.0120306
0.32 0.0146992
0.33 0.0156255
0.34 0.0144989
0.35 0.0113855
0.36 0.0062982
0.37 -0.000650133
0.38 -0.00924549
0.39 -0.0191762
0.4 -0.0300769
0.41 -0.0413464
0.42 -0.0523971
0.43 -0.062632
0.44 -0.0714368
0.45 -0.0782031
0.46 -0.0822893
0.47 -0.0828682
0.48 -0.079782
0.49 -0.0727109
0.5 -0.0614551
0.51 -0.0459478
0.52 -0.0262647
0.53 -0.00236818
0.54 0.025186
0.55 0.0556795
0.56 0.0884435
0.57 0.122702
0.58 0.157594
0.59 0.192185
0.6 0.225275
0.61 0.25596
0.62 0.283317
0.63 0.306487
0.64 0.324705
0.65 0.337318
0.66 0.343416
0.67 0.342655
0.68 0.335238
0.69 0.321208
0.7 0.300781
0.71 0.274346
0.72 0.242455
0.73 0.205351
0.74 0.164487
0.75 0.120814
0.76 0.0753349
0.77 0.0290852
0.78 -0.0168993
0.79 -0.0614971
0.8 -0.103596
0.81 -0.14246
0.82 -0.177376
0.83 -0.207768
0.84 -0.233209
0.85 -0.253434
0.86 -0.267794
0.87 -0.276862
0.88 -0.280967
0.89 -0.280499
0.9 -0.275971
0.91 -0.267995
0.92 -0.257181
0.93 -0.244299
0.94 -0.230315
0.95 -0.215982
0.96 -0.202012
0.97 -0.189062
0.98 -0.177708
0.99 -0.168658
1 -0.162165
1.01 -0.158398
1.02 -0.157459
1.03 -0.159331
1.04 -0.163885
1.05 -0.170953
1.06 -0.180291
1.07 -0.191282
1.08 -0.203475
1.09 -0.216392
1.1 -0.22955
1.11 -0.242477
1.12 -0.25465
1.13 -0.265668
1.14 -0.27525
1.15 -0.283164
1.16 -0.289259
1.17 -0.293469
1.18 -0.295782
1.19 -0.29617
1.2 -0.295005
1.21 -0.29253
1.22 -0.289034
1.23 -0.284834
1.24 -0.280261
1.25 -0.275666
1.26 -0.271401
1.27 -0.267738
1.28 -0.264901
1.29 -0.263056
1.3 -0.262311
1.31 -0.262712
1.32 -0.264337
1.33 -0.26695
1.34 -0.270387
1.35 -0.274433
1.36 -0.278839
1.37 -0.283327
1.38 -0.287582
1.39 -0.291275
1.4 -0.294159
1.41 -0.296004
1.42 -0.296626
1.43 -0.295891
1.44 -0.293728
1.45 -0.289974
1.46 -0.284859
1.47 -0.278529
1.48 -0.271181
1.49 -0.263062
1.5 -0.254459
1.51 -0.245699
1.52 -0.237165
1.53 -0.229195
1.54 -0.222104
1.55 -0.216174
1.56 -0.211643
1.57 -0.208698
1.58 -0.207639
1.59 -0.208365
1.6 -0.21081
1.61 -0.214858
1.62 -0.220328
1.63 -0.226971
1.64 -0.234501
1.65 -0.24254
1.66 -0.250635
1.67 -0.258384
1.68 -0.265389
1.69 -0.271265
1.7 -0.275658
1.71 -0.278075
1.72 -0.278354
1.73 -0.276377
1.74 -0.272048
1.75 -0.265352
1.76 -0.256348
1.77 -0.245126
1.78 -0.231802
1.79 -0.21686
1.8 -0.200638
1.81 -0.183513
1.82 -0.165884
1.83 -0.14816
1.84 -0.130799
1.85 -0.114218
1.86 -0.0987383
1.87 -0.0846492
1.88 -0.0721798
1.89 -0.0614936
1.9 -0.0527121
1.91 -0.0460163
1.92 -0.0411439
1.93 -0.0379605
1.94 -0.036274
1.95 -0.0358432
1.96 -0.03639
1.97 -0.0376342
1.98 -0.0392031
1.99 -0.0407574
2 -0.042009
2.01 -0.0427026
2.02 -0.0426267
2.03 -0.0416191
2.04 -0.0394652
2.05 -0.0362591
2.06 -0.0320533
2.07 -0.0269657
2.08 -0.0211753
2.09 -0.0149157
2.1 -0.00847441
2.11 -0.00221921
2.12 0.00350009
2.13 0.00833685
2.14 0.0119524
2.15 0.0140293
2.16 0.0142839
2.17 0.012232
2.18 0.00789483
2.19 0.00118677
2.2 -0.00792382
2.21 -0.0193969
2.22 -0.0331212
2.23 -0.0489994
2.24 -0.0667919
2.25 -0.086041
2.26 -0.106392
2.27 -0.12746
2.28 -0.148842
2.29 -0.170126
2.3 -0.190826
2.31 -0.210563
2.32 -0.229009
2.33 -0.245873
2.34 -0.260917
2.35 -0.273966
2.36 -0.284833
2.37 -0.293371
2.38 -0.299794
2.39 -0.304204
2.4 -0.306756
2.41 -0.307658
2.42 -0.307155
2.43 -0.305454
2.44 -0.302954
2.45 -0.299994
2.46 -0.296874
2.47 -0.293879
2.48 -0.291267
2.49 -0.289284
2.5 -0.288192
2.51 -0.288057
2.52 -0.288962
2.53 -0.290938
2.54 -0.29397
2.55 -0.297998
2.56 -0.302979
2.57 -0.308726
2.58 -0.315035
2.59 -0.32172
2.6 -0.328588
2.61 -0.335443
2.62 -0.34209
2.63 -0.348299
2.64 -0.353944
2.65 -0.358899
2.66 -0.36307
2.67 -0.366391
2.68 -0.368829
2.69 -0.370326
2.7 -0.370932
2.71 -0.370752
2.72 -0.369868
2.73 -0.368378
2.74 -0.366392
2.75 -0.364024
2.76 -0.361372
2.77 -0.358587
2.78 -0.355768
2.79 -0.353
2.8 -0.350351
2.81 -0.347874
2.82 -0.34561
2.83 -0.343575
2.84 -0.341746
2.85 -0.340098
2.86 -0.338595
2.87 -0.337191
2.88 -0.335831
2.89 -0.334455
2.9 -0.333002
2.91 -0.331424
2.92 -0.329675
2.93 -0.327721
2.94 -0.325536
2.95 -0.323092
2.96 -0.320372
2.97 -0.317397
2.98 -0.314172
2.99 -0.310706
3 -0.307005
3.01 -0.303072
3.02 -0.298879
3.03 -0.294421
3.04 -0.289673
3.05 -0.284582
3.06 -0.279083
3.07 -0.273089
3.08 -0.266473
3.09 -0.25906
3.1 -0.250764
3.11 -0.24144
3.12 -0.230933
3.13 -0.219092
3.14 -0.20577
3.15 -0.190681
3.16 -0.173778
3.17 -0.155025
3.18 -0.134358
3.19 -0.11175
3.2 -0.087209
3.21 -0.0607472
3.22 -0.0323362
3.23 -0.00229941
3.24 0.0291798
3.25 0.0618805
3.26 0.0955481
3.27 0.129899
3.28 0.164628
3.29 0.199355
3.3 0.233729
3.31 0.267417
3.32 0.300091
3.33 0.331438
3.34 0.361148
3.35 0.388746
3.36 0.414188
3.37 0.43729
3.38 0.457908
3.39 0.475939
3.4 0.491321
3.41 0.503868
3.42 0.51363
3.43 0.520813
3.44 0.525511
3.45 0.527842
3.46 0.527943
3.47 0.525968
3.48 0.521875
3.49 0.516067
3.5 0.508708
3.51 0.499956
3.52 0.48996
3.53 0.478856
3.54 0.466722
3.55 0.453668
3.56 0.439848
3.57 0.425341
3.58 0.410215
3.59 0.394529
3.6 0.378338
3.61 0.361655
3.62 0.344581
3.63 0.327182
3.64 0.309529
3.65 0.291698
3.66 0.273783
3.67 0.255893
3.68 0.23817
3.69 0.220744
3.7 0.20376
3.71 0.187374
3.72 0.171745
3.73 0.157036
3.74 0.143528
3.75 0.131319
3.76 0.12053
3.77 0.111296
3.78 0.103732
3.79 0.0979377
3.8 0.0940423
3.81 0.0922111
3.82 0.0923002
3.83 0.0943028
3.84 0.0981873
3.85 0.103898
3.86 0.11136
3.87 0.120602
3.88 0.131417
3.89 0.143622
3.9 0.157081
3.91 0.171655
3.92 0.187202
3.93 0.203598
3.94 0.220747
3.95 0.238447
3.96 0.256582
3.97 0.275049
3.98 0.293752
3.99 0.312607
4 0.331541
4.01 0.350476
4.02 0.369349
4.03 0.388104
4.04 0.406685
4.05 0.425036
4.06 0.443094
4.07 0.460748
4.08 0.477956
4.09 0.494635
4.1 0.510692
4.11 0.526027
4.12 0.54053
4.13 0.554021
4.14 0.566363
4.15 0.577488
4.16 0.587273
4.17 0.595598
4.18 0.602352
4.19 0.607432
4.2 0.610542
4.21 0.611795
4.22 0.61115
4.23 0.608573
4.24 0.604056
4.25 0.59761
4.26 0.589177
4.27 0.578785
4.28 0.566639
4.29 0.552831
4.3 0.537464
4.31 0.520655
4.32 0.502526
4.33 0.483092
4.34 0.462598
4.35 0.441183
4.36 0.418963
4.37 0.396046
4.38 0.372528
4.39 0.348479
4.4 0.323965
4.41 0.299083
4.42 0.273882
4.43 0.248402
4.44 0.222674
4.45 0.196725
4.46 0.170561
4.47 0.144224
4.48 0.117743
4.49 0.0911521
4.5 0.06449
4.51 0.0378057
4.52 0.0111612
4.53 -0.0153557
4.54 -0.0416656
4.55 -0.0676744
4.56 -0.0932794
4.57 -0.118371
4.58 -0.142836
4.59 -0.16649
4.6 -0.189237
4.61 -0.210998
4.62 -0.231674
4.63 -0.251182
4.64 -0.269448
4.65 -0.286398
4.66 -0.301883
4.67 -0.316025
4.68 -0.328837
4.69 -0.340352
4.7 -0.350622
4.71 -0.359718
4.72 -0.367659
4.73 -0.374583
4.74 -0.380653
4.75 -0.385985
4.76 -0.390697
4.77 -0.394906
4.78 -0.398719
4.79 -0.402218
4.8 -0.405531
4.81 -0.408729
4.82 -0.411867
4.83 -0.414984
4.84 -0.418103
4.85 -0.421227
4.86 -0.424344
4.87 -0.427424
4.88 -0.430431
4.89 -0.433319
4.9 -0.436036
4.91 -0.438529
4.92 -0.440709
4.93 -0.442554
4.94 -0.444023
4.95 -0.445086
4.96 -0.445719
4.97 -0.445911
4.98 -0.445643
4.99 -0.444918
5 -0.44379
5.01 -0.442289
5.02 -0.440453
5.03 -0.438321
5.04 -0.435935
5.05 -0.433314
5.06 -0.430516
5.07 -0.427568
5.08 -0.424488
5.09 -0.42128
5.1 -0.417939
5.11 -0.41444
5.12 -0.410738
5.13 -0.406803
5.14 -0.402582
5.15 -0.398016
5.16 -0.393042
5.17 -0.387598
5.18 -0.38157
5.19 -0.374933
5.2 -0.367659
5.21 -0.359723
5.22 -0.351112
5.23 -0.341835
5.24 -0.331906
5.25 -0.321341
5.26 -0.310275
5.27 -0.298804
5.28 -0.287039
5.29 -0.275111
5.3 -0.263158
5.31 -0.251353
5.32 -0.239864
5.33 -0.228838
5.34 -0.21842
5.35 -0.208745
5.36 -0.199931
5.37 -0.192094
5.38 -0.185414
5.39 -0.179834
5.4 -0.175375
5.41 -0.172031
5.42 -0.169767
5.43 -0.168525
5.44 -0.168277
5.45 -0.168889
5.46 -0.170188
5.47 -0.172042
5.48 -0.174308
5.49 -0.176842
5.5 -0.179504
5.51 -0.182143
5.52 -0.184629
5.53 -0.186858
5.54 -0.188744
5.55 -0.19022
5.56 -0.19124
5.57 -0.191752
5.58 -0.191751
5.59 -0.191282
5.6 -0.190378
5.61 -0.189082
5.62 -0.187445
5.63 -0.185521
5.64 -0.183344
5.65 -0.18099
5.66 -0.178499
5.67 -0.175895
5.68 -0.173188
5.69 -0.170371
5.7 -0.167408
5.71 -0.164243
5.72 -0.160818
5.73 -0.157052
5.74 -0.152852
5.75 -0.148116
5.76 -0.142735
5.77 -0.13652
5.78 -0.129416
5.79 -0.121349
5.8 -0.112244
5.81 -0.102048
5.82 -0.0907283
5.83 -0.0782445
5.84 -0.0645702
5.85 -0.0498605
5.86 -0.0342046
5.87 -0.017719
5.88 -0.000545183
5.89 0.0171535
5.9 0.0352092
5.91 0.0533841
5.92 0.0714677
5.93 0.0892599
5.94 0.106567
5.95 0.123208
5.96 0.138998
5.97 0.15371
5.98 0.167319
5.99 0.179749
6 0.190957
6.01 0.200933
6.02 0.209697
6.03 0.217223
6.04 0.223645
6.05 0.229122
6.06 0.233783
6.07 0.237771
6.08 0.241235
6.09 0.244322
6.1 0.247173
6.11 0.249955
6.12 0.252778
6.13 0.255733
6.14 0.258884
6.15 0.262267
6.16 0.265899
6.17 0.269745
6.18 0.273728
6.19 0.27776
6.2 0.281727
6.21 0.285495
6.22 0.288917
6.23 0.291758
6.24 0.293902
6.25 0.295191
6.26 0.295479
6.27 0.294636
6.28 0.29255
6.29 0.28906
6.3 0.284087
6.31 0.277696
6.32 0.269896
6.33 0.260727
6.34 0.250259
6.35 0.238588
6.36 0.225735
6.37 0.21196
6.38 0.197432
6.39 0.182319
6.4 0.166788
6.41 0.151006
6.42 0.135135
6.43 0.119342
6.44 0.103756
6.45 0.0884813
6.46 0.0735968
6.47 0.0591583
6.48 0.0451958
6.49 0.0317583
6.5 0.0187871
6.51 0.00622683
6.52 -0.00598372
6.53 -0.017919
6.54 -0.0296622
6.55 -0.0413009
6.56 -0.0529333
6.57 -0.064648
6.58 -0.076516
6.59 -0.0885951
6.6 -0.100927
6.61 -0.113533
6.62 -0.126438
6.63 -0.139603
6.64 -0.152974
6.65 -0.166487
6.66 -0.180059
6.67 -0.193595
6.68 -0.20698
6.69 -0.220061
6.7 -0.23273
6.71 -0.244865
6.72 -0.256347
6.73 -0.267064
6.74 -0.276911
6.75 -0.285725
6.76 -0.293449
6.77 -0.300069
6.78 -0.305547
6.79 -0.309859
6.8 -0.312999
6.81 -0.314962
6.82 -0.315655
6.83 -0.315234
6.84 -0.313736
6.85 -0.3112
6.86 -0.307667
6.87 -0.303173
6.88 -0.297697
6.89 -0.291275
6.9 -0.283974
6.91 -0.2758
6.92 -0.26675
6.93 -0.256811
6.94 -0.24596
6.95 -0.234056
6.96 -0.221164
6.97 -0.207246
6.98 -0.192261
6.99 -0.176172
7 -0.158944
7.01 -0.140492
7.02 -0.120781
7.03 -0.0998887
7.04 -0.0778319
7.05 -0.0546418
7.06 -0.030367
7.07 -0.00507322
7.08 0.0212434
7.09 0.0483874
7.1 0.0762294
7.11 0.104641
7.12 0.133483
7.13 0.162612
7.14 0.191875
7.15 0.2211
7.16 0.25013
7.17 0.278819
7.18 0.307031
7.19 0.334637
7.2 0.361519
7.21 0.387484
7.22 0.412487
7.23 0.436468
7.24 0.459363
7.25 0.481116
7.26 0.501681
7.27 0.520985
7.28 0.538919
7.29 0.555566
7.3 0.570905
7.31 0.584914
7.32 0.597568
7.33 0.608844
7.34 0.618594
7.35 0.626845
7.36 0.633609
7.37 0.638842
7.38 0.642499
7.39 0.64453
7.4 0.644858
7.41 0.643283
7.42 0.63993
7.43 0.63476
7.44 0.62774
7.45 0.61885
7.46 0.608079
7.47 0.595302
7.48 0.580585
7.49 0.564058
7.5 0.545779
7.51 0.525823
7.52 0.504283
7.53 0.481261
7.54 0.456758
7.55 0.43108
7.56 0.404382
7.57 0.37683
7.58 0.348598
7.59 0.319863
7.6 0.2908
7.61 0.261617
7.62 0.232507
7.63 0.203643
7.64 0.175186
7.65 0.147293
7.66 0.120104
7.67 0.0938586
7.68 0.0685927
7.69 0.0444017
7.7 0.0213714
7.71 -0.000426599
7.72 -0.0209344
7.73 -0.0400418
7.74 -0.0576841
7.75 -0.0739367
7.76 -0.0887926
7.77 -0.102254
7.78 -0.114333
7.79 -0.125048
7.8 -0.134293
7.81 -0.142218
7.82 -0.148883
7.83 -0.154332
7.84 -0.158613
7.85 -0.161777
7.86 -0.163842
7.87 -0.164831
7.88 -0.164888
7.89 -0.164077
7.9 -0.162462
7.91 -0.16011
7.92 -0.157087
7.93 -0.153413
7.94 -0.149199
7.95 -0.144528
7.96 -0.139464
7.97 -0.134068
7.98 -0.128399
7.99 -0.122509
8 -0.116444
8.01 -0.11027
8.02 -0.104029
8.03 -0.0977575
8.04 -0.0914878
8.05 -0.0852478
8.06 -0.0790673
8.07 -0.0729661
8.08 -0.0669581
8.09 -0.0610569
8.1 -0.0552746
8.11 -0.049622
8.12 -0.0441122
8.13 -0.0387709
8.14 -0.0335959
8.15 -0.0286007
8.16 -0.0238006
8.17 -0.0192127
8.18 -0.0148556
8.19 -0.0107673
8.2 -0.00696719
8.21 -0.0034632
8.22 -0.000275111
8.23 0.00257917
8.24 0.00508448
8.25 0.00722809
8.26 0.00896254
8.27 0.0103293
8.28 0.0113348
8.29 0.0119924
8.3 0.012322
8.31 0.0123506
8.32 0.0120985
8.33 0.0116105
8.34 0.0109474
8.35 0.0101572
8.36 0.00928957
8.37 0.00839408
8.38 0.00751867
8.39 0.00671891
8.4 0.00602961
8.41 0.00547952
8.42 0.00508874
8.43 0.00486696
8.44 0.00481248
8.45 0.00491738
8.46 0.00515363
8.47 0.00546945
8.48 0.00581292
8.49 0.00612245
8.5 0.00632832
8.51 0.00635466
8.52 0.00608811
8.53 0.00545918
8.54 0.00439387
8.55 0.00281784
8.56 0.000664018
8.57 -0.00212503
8.58 -0.00561937
8.59 -0.00988794
8.6 -0.0148862
8.61 -0.0206105
8.62 -0.0270407
8.63 -0.0341407
8.64 -0.0418591
8.65 -0.0501717
8.66 -0.0589578
8.67 -0.0681116
8.68 -0.0775369
8.69 -0.0871342
8.7 -0.0968032
8.71 -0.106443
8.72 -0.115943
8.73 -0.125224
8.74 -0.134218
8.75 -0.142866
8.76 -0.151128
8.77 -0.158975
8.78 -0.166364
8.79 -0.173319
8.8 -0.179879
8.81 -0.186081
8.82 -0.191971
8.83 -0.197604
8.84 -0.203038
8.85 -0.208333
8.86 -0.213571
8.87 -0.21881
8.88 -0.2241
8.89 -0.229484
8.9 -0.234992
8.91 -0.24065
8.92 -0.246457
8.93 -0.252388
8.94 -0.258412
8.95 -0.264482
8.96 -0.27054
8.97 -0.276516
8.98 -0.282301
8.99 -0.287822
9 -0.29299
9.01 -0.297717
9.02 -0.301919
9.03 -0.30552
9.04 -0.308413
9.05 -0.31053
9.06 -0.311876
9.07 -0.312432
9.08 -0.312193
9.09 -0.311172
9.1 -0.3094
9.11 -0.306853
9.12 -0.30367
9.13 -0.299934
9.14 -0.295729
9.15 -0.29115
9.16 -0.286291
9.17 -0.281248
9.18 -0.276125
9.19 -0.271023
9.2 -0.266022
9.21 -0.261193
9.22 -0.256593
9.23 -0.252267
9.24 -0.248276
9.25 -0.244613
9.26 -0.241272
9.27 -0.238236
9.28 -0.235483
9.29 -0.232977
9.3 -0.23068
9.31 -0.228548
9.32 -0.226513
9.33 -0.224524
9.34 -0.222534
9.35 -0.220499
9.36 -0.218381
9.37 -0.216141
9.38 -0.21376
9.39 -0.211234
9.4 -0.208561
9.41 -0.205748
9.42 -0.202812
9.43 -0.199771
9.44 -0.19665
9.45 -0.193489
9.46 -0.190315
9.47 -0.187159
9.48 -0.184043
9.49 -0.180986
9.5 -0.178005
9.51 -0.175099
9.52 -0.172255
9.53 -0.169453
9.54 -0.166662
9.55 -0.163841
9.56 -0.16094
9.57 -0.157879
9.58 -0.154601
9.59 -0.151035
9.6 -0.14711
9.61 -0.142752
9.62 -0.137891
9.63 -0.13242
9.64 -0.126277
9.65 -0.119442
9.66 -0.111877
9.67 -0.103552
9.68 -0.0944507
9.69 -0.0845678
9.7 -0.0738227
9.71 -0.0623261
9.72 -0.0501109
9.73 -0.037218
9.74 -0.0236959
9.75 -0.00959933
9.76 0.00503601
9.77 0.0201455
9.78 0.0356335
9.79 0.0514388
9.8 0.0675028
9.81 0.0837702
9.82 0.10019
9.83 0.116724
9.84 0.133317
9.85 0.149934
9.86 0.166543
9.87 0.183118
9.88 0.199634
9.89 0.216063
9.9 0.232373
9.91 0.248547
9.92 0.264555
9.93 0.280366
9.94 0.295943
9.95 0.311243
9.96 0.326183
9.97 0.340726
9.98 0.35482
9.99 0.368401
10 0.381402
10.01 0.393755
10.02 0.40537
10.03 0.416125
10.04 0.426024
10.05 0.435013
10.06 0.443047
10.07 0.450089
10.08 0.456116
10.09 0.461034
10.1 0.464897
10.11 0.467763
10.12 0.469668
10.13 0.470665
10.14 0.470816
10.15 0.470186
10.16 0.46882
10.17 0.466887
10.18 0.464493
10.19 0.461741
10.2 0.458739
10.21 0.455589
10.22 0.452396
10.23 0.449262
10.24 0.446269
10.25 0.443486
10.26 0.440965
10.27 0.438748
10.28 0.436863
10.29 0.435352
10.3 0.434171
10.31 0.433296
10.32 0.432692
10.33 0.432309
10.34 0.432092
10.35 0.431974
10.36 0.431871
10.37 0.431703
10.38 0.431389
10.39 0.430853
10.4 0.430017
10.41 0.428811
10.42 0.42711
10.43 0.424897
10.44 0.422121
10.45 0.418737
10.46 0.414709
10.47 0.410007
10.48 0.404575
10.49 0.398381
10.5 0.391467
10.51 0.38383
10.52 0.375472
10.53 0.366401
10.54 0.356626
10.55 0.346089
10.56 0.334869
10.57 0.322993
10.58 0.31048
10.59 0.297351
10.6 0.283628
10.61 0.269317
10.62 0.254428
10.63 0.239036
10.64 0.223176
10.65 0.206887
10.66 0.190212
10.67 0.173197
10.68 0.155872
10.69 0.138316
10.7 0.120597
10.71 0.102775
10.72 0.0849124
10.73 0.0670744
10.74 0.0493281
10.75 0.0317528
10.76 0.0143975
10.77 -0.00268462
10.78 -0.0194462
10.79 -0.0358472
10.8 -0.0518554
10.81 -0.0674136
10.82 -0.0825259
10.83 -0.0972075
10.84 -0.111468
10.85 -0.125325
10.86 -0.138807
10.87 -0.151945
10.88 -0.164762
10.89 -0.17734
10.9 -0.18973
10.91 -0.201984
10.92 -0.214154
10.93 -0.226287
10.94 -0.23843
10.95 -0.250623
10.96 -0.262891
10.97 -0.27525
10.98 -0.287705
10.99 -0.300248
11 -0.312861
11.01 -0.325512
11.02 -0.33815
11.03 -0.350719
11.04 -0.363155
11.05 -0.375389
11.06 -0.387342
11.07 -0.39891
11.08 -0.409996
11.09 -0.420543
11.1 -0.430473
11.11 -0.439713
11.12 -0.448198
11.13 -0.45587
11.14 -0.462582
11.15 -0.468383
11.16 -0.473256
11.17 -0.477189
11.18 -0.480177
11.19 -0.482231
11.2 -0.483326
11.21 -0.48347
11.22 -0.482762
11.23 -0.481242
11.24 -0.478951
11.25 -0.475933
11.26 -0.472232
11.27 -0.467831
11.28 -0.462824
11.29 -0.457258
11.3 -0.451162
11.31 -0.444558
11.32 -0.437465
11.33 -0.429878
11.34 -0.42178
11.35 -0.413209
11.36 -0.404163
11.37 -0.394632
11.38 -0.384607
11.39 -0.374079
11.4 -0.362992
11.41 -0.351369
11.42 -0.339223
11.43 -0.326554
11.44 -0.313371
11.45 -0.299689
11.46 -0.285518
11.47 -0.270862
11.48 -0.255803
11.49 -0.240388
11.5 -0.22467
11.51 -0.208709
11.52 -0.19257
11.53 -0.17632
11.54 -0.160048
11.55 -0.143832
11.56 -0.127749
11.57 -0.111875
11.58 -0.0962836
11.59 -0.08105
11.6 -0.0662863
11.61 -0.0520136
11.62 -0.0382847
11.63 -0.0251452
11.64 -0.0126335
11.65 -0.000779929
11.66 0.0103471
11.67 0.0207426
11.68 0.030437
11.69 0.0394332
11.7 0.0477414
11.71 0.0553779
11.72 0.0623638
11.73 0.0686604
11.74 0.0743748
11.75 0.0795438
11.76 0.0842067
11.77 0.0884048
11.78 0.0921807
11.79 0.0955588
11.8 0.0985859
11.81 0.101326
11.82 0.103819
11.83 0.1061
11.84 0.108203
11.85 0.110158
11.86 0.111978
11.87 0.113697
11.88 0.11533
11.89 0.116883
11.9 0.118359
11.91 0.119752
11.92 0.121047
11.93 0.12222
11.94 0.123253
11.95 0.124113
11.96 0.124765
11.97 0.125167
11.98 0.125273
11.99 0.124995
12 0.124301
12.01 0.123143
12.02 0.121468
12.03 0.119221
12.04 0.116352
12.05 0.112786
12.06 0.108439
12.07 0.103329
12.08 0.097426
12.09 0.090706
12.1 0.0831539
12.11 0.0747631
12.12 0.0654656
12.13 0.055322
12.14 0.0443825
12.15 0.0326804
12.16 0.0202577
12.17 0.00716485
12.18 -0.00655192
