# xPDFsuite Configuration #
[PDF]
wavelength = 0.1
dataformat = QA
inputfile = BiMsol6_insitu_700 C-00552.xy
backgroundfile = Quartz2mm-dist500-00000.xy
mode = xray
bgscale = 0.0042
composition = Bi2Fe4O9
outputtype = gr
qmaxinst = 24.998449118
qmin = 0.1
qmax = 21.4986662415
rmax = 80.0
rmin = 0.0
rstep = 0.01
rpoly = 0.9

[Misc]
inputdir = C:/Data/Seafile/CPH/Beamtime/Desy Oct 20/In situ data/Processed/BiMsol6/PDF
savedir = C:/Data/Seafile/CPH/Beamtime/Desy Oct 20/In situ data/PDF/BiMsol6
backgroundfilefull = C:/Data/Seafile/CPH/Beamtime/Desy Oct 20/In situ data/Processed/Standard_Empty_Cap/Quartz2mm-dist500-00000.xy

#### start data
#S 1
#L r($\AA$)  G($\AA^{-2}$)
0 0
0.01 0.00633493
0.02 0.0123128
0.03 0.0176281
0.04 0.0220065
0.05 0.0252175
0.06 0.0270852
0.07 0.0274169
0.08 0.0261558
0.09 0.0234422
0.1 0.0193912
0.11 0.014182
0.12 0.00804992
0.13 0.00127605
0.14 -0.00582441
0.15 -0.0128519
0.16 -0.0194696
0.17 -0.0253613
0.18 -0.030243
0.19 -0.0338769
0.2 -0.0360184
0.21 -0.0364994
0.22 -0.0354136
0.23 -0.0328234
0.24 -0.0288685
0.25 -0.0237606
0.26 -0.0177758
0.27 -0.0112274
0.28 -0.00457112
0.29 0.00178759
0.3 0.00745477
0.31 0.0120553
0.32 0.0152514
0.33 0.0167005
0.34 0.0160671
0.35 0.0133978
0.36 0.00868594
0.37 0.00202712
0.38 -0.00637973
0.39 -0.0162349
0.4 -0.027192
0.41 -0.0386477
0.42 -0.0500094
0.43 -0.0606743
0.44 -0.070018
0.45 -0.0774178
0.46 -0.0822147
0.47 -0.0835606
0.48 -0.0812652
0.49 -0.0749813
0.5 -0.0644804
0.51 -0.049667
0.52 -0.0305885
0.53 -0.00717062
0.54 0.0200547
0.55 0.0503833
0.56 0.0831616
0.57 0.117624
0.58 0.152914
0.59 0.188097
0.6 0.221985
0.61 0.253636
0.62 0.282108
0.63 0.306517
0.64 0.326065
0.65 0.340069
0.66 0.34758
0.67 0.348206
0.68 0.342115
0.69 0.329307
0.7 0.309963
0.71 0.284439
0.72 0.253256
0.73 0.216605
0.74 0.175945
0.75 0.132217
0.76 0.086421
0.77 0.0395963
0.78 -0.00721011
0.79 -0.0528689
0.8 -0.0962412
0.81 -0.136545
0.82 -0.173029
0.83 -0.205078
0.84 -0.232221
0.85 -0.254147
0.86 -0.270153
0.87 -0.280771
0.88 -0.286286
0.89 -0.287054
0.9 -0.283556
0.91 -0.276378
0.92 -0.2661
0.93 -0.25347
0.94 -0.23947
0.95 -0.224858
0.96 -0.210359
0.97 -0.196648
0.98 -0.184327
0.99 -0.174122
1 -0.166337
1.01 -0.161186
1.02 -0.158813
1.03 -0.159243
1.04 -0.162389
1.05 -0.168126
1.06 -0.17626
1.07 -0.186199
1.08 -0.197519
1.09 -0.209766
1.1 -0.22247
1.11 -0.235172
1.12 -0.247367
1.13 -0.25864
1.14 -0.26869
1.15 -0.277266
1.16 -0.284196
1.17 -0.289387
1.18 -0.292797
1.19 -0.294369
1.2 -0.294429
1.21 -0.293187
1.22 -0.290897
1.23 -0.287843
1.24 -0.28433
1.25 -0.28067
1.26 -0.277197
1.27 -0.274171
1.28 -0.271804
1.29 -0.27026
1.3 -0.269644
1.31 -0.270006
1.32 -0.271418
1.33 -0.27368
1.34 -0.276644
1.35 -0.280117
1.36 -0.283874
1.37 -0.287663
1.38 -0.291192
1.39 -0.294165
1.4 -0.29636
1.41 -0.29757
1.42 -0.297631
1.43 -0.296428
1.44 -0.293903
1.45 -0.289918
1.46 -0.284698
1.47 -0.27839
1.48 -0.271188
1.49 -0.263333
1.5 -0.255103
1.51 -0.246814
1.52 -0.238833
1.53 -0.231473
1.54 -0.225028
1.55 -0.219757
1.56 -0.215878
1.57 -0.213554
1.58 -0.213058
1.59 -0.214274
1.6 -0.217116
1.61 -0.221457
1.62 -0.227104
1.63 -0.2338
1.64 -0.241252
1.65 -0.249076
1.66 -0.256835
1.67 -0.264137
1.68 -0.270594
1.69 -0.27584
1.7 -0.279541
1.71 -0.281222
1.72 -0.280751
1.73 -0.278037
1.74 -0.273011
1.75 -0.265679
1.76 -0.256129
1.77 -0.244474
1.78 -0.230862
1.79 -0.215781
1.8 -0.199582
1.81 -0.182647
1.82 -0.165378
1.83 -0.148182
1.84 -0.13152
1.85 -0.115786
1.86 -0.101277
1.87 -0.0882571
1.88 -0.0769289
1.89 -0.0674251
1.9 -0.0598335
1.91 -0.054294
1.92 -0.0505095
1.93 -0.0483119
1.94 -0.0474773
1.95 -0.0477362
1.96 -0.0487856
1.97 -0.0503109
1.98 -0.0519281
1.99 -0.0533023
2 -0.0541462
2.01 -0.0542123
2.02 -0.0533038
2.03 -0.0512789
2.04 -0.0479367
2.05 -0.0434253
2.06 -0.0378352
2.07 -0.0313249
2.08 -0.0241157
2.09 -0.016484
2.1 -0.00876611
2.11 -0.00137502
2.12 0.00531124
2.13 0.0109175
2.14 0.0150832
2.15 0.0174762
2.16 0.0178063
2.17 0.015566
2.18 0.010814
2.19 0.00348736
2.2 -0.00641701
2.21 -0.0188238
2.22 -0.0335805
2.23 -0.0505446
2.24 -0.069421
2.25 -0.089699
2.26 -0.110976
2.27 -0.13282
2.28 -0.154787
2.29 -0.176432
2.3 -0.19721
2.31 -0.216745
2.32 -0.234707
2.33 -0.250806
2.34 -0.26482
2.35 -0.276594
2.36 -0.285968
2.37 -0.292836
2.38 -0.297479
2.39 -0.300052
2.4 -0.300771
2.41 -0.299902
2.42 -0.297749
2.43 -0.294595
2.44 -0.290886
2.45 -0.286998
2.46 -0.283264
2.47 -0.279991
2.48 -0.277452
2.49 -0.2759
2.5 -0.275605
2.51 -0.276576
2.52 -0.278857
2.53 -0.282432
2.54 -0.287232
2.55 -0.293136
2.56 -0.300033
2.57 -0.307658
2.58 -0.315738
2.59 -0.324027
2.6 -0.332274
2.61 -0.340233
2.62 -0.347667
2.63 -0.354284
2.64 -0.359978
2.65 -0.364627
2.66 -0.368148
2.67 -0.370504
2.68 -0.371701
2.69 -0.371719
2.7 -0.370677
2.71 -0.36876
2.72 -0.36612
2.73 -0.362924
2.74 -0.359353
2.75 -0.355586
2.76 -0.351814
2.77 -0.34821
2.78 -0.344909
2.79 -0.342018
2.8 -0.339614
2.81 -0.337741
2.82 -0.336439
2.83 -0.335683
2.84 -0.335377
2.85 -0.335437
2.86 -0.335754
2.87 -0.336206
2.88 -0.33666
2.89 -0.33695
2.9 -0.336944
2.91 -0.336523
2.92 -0.33558
2.93 -0.334028
2.94 -0.331802
2.95 -0.32883
2.96 -0.325075
2.97 -0.320604
2.98 -0.315453
2.99 -0.309672
3 -0.303327
3.01 -0.296492
3.02 -0.289208
3.03 -0.281586
3.04 -0.273694
3.05 -0.265575
3.06 -0.25725
3.07 -0.248721
3.08 -0.239949
3.09 -0.230854
3.1 -0.221367
3.11 -0.211372
3.12 -0.200736
3.13 -0.189304
3.14 -0.176912
3.15 -0.16328
3.16 -0.148281
3.17 -0.131799
3.18 -0.113699
3.19 -0.0938751
3.2 -0.0722515
3.21 -0.0487549
3.22 -0.0232621
3.23 0.00398259
3.24 0.0328634
3.25 0.0632165
3.26 0.0948322
3.27 0.127458
3.28 0.160832
3.29 0.194563
3.3 0.228269
3.31 0.261588
3.32 0.294152
3.33 0.325599
3.34 0.355561
3.35 0.383502
3.36 0.4093
3.37 0.432709
3.38 0.453527
3.39 0.471602
3.4 0.48683
3.41 0.49898
3.42 0.508086
3.43 0.514367
3.44 0.517931
3.45 0.518923
3.46 0.517522
3.47 0.51393
3.48 0.508171
3.49 0.500726
3.5 0.491835
3.51 0.481728
3.52 0.470628
3.53 0.458736
3.54 0.446214
3.55 0.433235
3.56 0.419962
3.57 0.406495
3.58 0.392909
3.59 0.379256
3.6 0.365565
3.61 0.351852
3.62 0.338118
3.63 0.32436
3.64 0.310571
3.65 0.29675
3.66 0.282903
3.67 0.269051
3.68 0.255237
3.69 0.241517
3.7 0.227968
3.71 0.214687
3.72 0.201787
3.73 0.189398
3.74 0.177739
3.75 0.166938
3.76 0.157138
3.77 0.148497
3.78 0.14117
3.79 0.1353
3.8 0.131065
3.81 0.128685
3.82 0.128097
3.83 0.129356
3.84 0.132483
3.85 0.137474
3.86 0.144292
3.87 0.15301
3.88 0.163436
3.89 0.175385
3.9 0.188713
3.91 0.203261
3.92 0.218856
3.93 0.235329
3.94 0.252529
3.95 0.270191
3.96 0.28814
3.97 0.30621
3.98 0.324249
3.99 0.342117
4 0.359664
4.01 0.37678
4.02 0.393397
4.03 0.409446
4.04 0.424876
4.05 0.439646
4.06 0.453722
4.07 0.467006
4.08 0.479558
4.09 0.491365
4.1 0.502409
4.11 0.512671
4.12 0.522128
4.13 0.530695
4.14 0.53833
4.15 0.545032
4.16 0.550747
4.17 0.555414
4.18 0.558966
4.19 0.561335
4.2 0.562301
4.21 0.56193
4.22 0.560162
4.23 0.556944
4.24 0.552231
4.25 0.545989
4.26 0.53812
4.27 0.528591
4.28 0.517519
4.29 0.504934
4.3 0.490879
4.31 0.47541
4.32 0.458597
4.33 0.440401
4.34 0.421033
4.35 0.400609
4.36 0.379232
4.37 0.357005
4.38 0.33403
4.39 0.310388
4.4 0.286164
4.41 0.261497
4.42 0.23647
4.43 0.211157
4.44 0.185628
4.45 0.159944
4.46 0.134157
4.47 0.108329
4.48 0.0825121
4.49 0.0567503
4.5 0.0310897
4.51 0.00557756
4.52 -0.0197295
4.53 -0.0447544
4.54 -0.0694563
4.55 -0.0937708
4.56 -0.117629
4.57 -0.140957
4.58 -0.163677
4.59 -0.185649
4.6 -0.206813
4.61 -0.227114
4.62 -0.246481
4.63 -0.264843
4.64 -0.282142
4.65 -0.298308
4.66 -0.313204
4.67 -0.32692
4.68 -0.339453
4.69 -0.350811
4.7 -0.361019
4.71 -0.370119
4.72 -0.378096
4.73 -0.385051
4.74 -0.391116
4.75 -0.396379
4.76 -0.400937
4.77 -0.404885
4.78 -0.408322
4.79 -0.411308
4.8 -0.413988
4.81 -0.416442
4.82 -0.418741
4.83 -0.420945
4.84 -0.423099
4.85 -0.425238
4.86 -0.427382
4.87 -0.429537
4.88 -0.431693
4.89 -0.433832
4.9 -0.435928
4.91 -0.437946
4.92 -0.43983
4.93 -0.441546
4.94 -0.443053
4.95 -0.444313
4.96 -0.445289
4.97 -0.44595
4.98 -0.446255
4.99 -0.446175
5 -0.445725
5.01 -0.444903
5.02 -0.44371
5.03 -0.442155
5.04 -0.440248
5.05 -0.437971
5.06 -0.435365
5.07 -0.432448
5.08 -0.429229
5.09 -0.425712
5.1 -0.421896
5.11 -0.417764
5.12 -0.413286
5.13 -0.408465
5.14 -0.403276
5.15 -0.397692
5.16 -0.391678
5.17 -0.385204
5.18 -0.378193
5.19 -0.370645
5.2 -0.362554
5.21 -0.353911
5.22 -0.344716
5.23 -0.334982
5.24 -0.324724
5.25 -0.313959
5.26 -0.302793
5.27 -0.291302
5.28 -0.279573
5.29 -0.267705
5.3 -0.255806
5.31 -0.24401
5.32 -0.232449
5.33 -0.221238
5.34 -0.210494
5.35 -0.200325
5.36 -0.190828
5.37 -0.182099
5.38 -0.174286
5.39 -0.167353
5.4 -0.161321
5.41 -0.156192
5.42 -0.151945
5.43 -0.148541
5.44 -0.145965
5.45 -0.144113
5.46 -0.142851
5.47 -0.142073
5.48 -0.141666
5.49 -0.141516
5.5 -0.141509
5.51 -0.141525
5.52 -0.141455
5.53 -0.141212
5.54 -0.140726
5.55 -0.139943
5.56 -0.138828
5.57 -0.137343
5.58 -0.135491
5.59 -0.133315
5.6 -0.130852
5.61 -0.128148
5.62 -0.12526
5.63 -0.12225
5.64 -0.11918
5.65 -0.116119
5.66 -0.11312
5.67 -0.110221
5.68 -0.107449
5.69 -0.104813
5.7 -0.10231
5.71 -0.0999098
5.72 -0.0975524
5.73 -0.0951708
5.74 -0.092682
5.75 -0.0899905
5.76 -0.0869912
5.77 -0.0835216
5.78 -0.07949
5.79 -0.074798
5.8 -0.0693477
5.81 -0.0630548
5.82 -0.0558523
5.83 -0.0476619
5.84 -0.0384122
5.85 -0.0281951
5.86 -0.017049
5.87 -0.00503912
5.88 0.00774332
5.89 0.0211831
5.9 0.0351754
5.91 0.0495162
5.92 0.064021
5.93 0.0785146
5.94 0.0928207
5.95 0.106768
5.96 0.120178
5.97 0.13284
5.98 0.144683
5.99 0.155612
6 0.165555
6.01 0.174473
6.02 0.182356
6.03 0.189148
6.04 0.194943
6.05 0.199863
6.06 0.204011
6.07 0.207506
6.08 0.21048
6.09 0.213068
6.1 0.215405
6.11 0.217662
6.12 0.219959
6.13 0.222403
6.14 0.225076
6.15 0.228038
6.16 0.23134
6.17 0.234976
6.18 0.238893
6.19 0.243026
6.2 0.247283
6.21 0.251546
6.22 0.255679
6.23 0.259477
6.24 0.262793
6.25 0.265459
6.26 0.26731
6.27 0.268189
6.28 0.267955
6.29 0.266413
6.3 0.263439
6.31 0.259051
6.32 0.253217
6.33 0.245938
6.34 0.237247
6.35 0.227212
6.36 0.215807
6.37 0.203293
6.38 0.189836
6.39 0.175606
6.4 0.160785
6.41 0.145562
6.42 0.130127
6.43 0.114689
6.44 0.0994327
6.45 0.084513
6.46 0.070063
6.47 0.056192
6.48 0.0429822
6.49 0.0305573
6.5 0.018888
6.51 0.00794641
6.52 -0.00230569
6.53 -0.0119304
6.54 -0.0210105
6.55 -0.0296354
6.56 -0.0379141
6.57 -0.0460032
6.58 -0.0540231
6.59 -0.0620898
6.6 -0.0703105
6.61 -0.0787794
6.62 -0.0876057
6.63 -0.0968337
6.64 -0.106481
6.65 -0.11655
6.66 -0.127023
6.67 -0.137855
6.68 -0.148982
6.69 -0.160319
6.7 -0.171729
6.71 -0.183087
6.72 -0.19426
6.73 -0.205106
6.74 -0.215482
6.75 -0.225193
6.76 -0.234102
6.77 -0.242112
6.78 -0.249113
6.79 -0.255008
6.8 -0.259718
6.81 -0.26317
6.82 -0.265189
6.83 -0.265892
6.84 -0.265276
6.85 -0.263356
6.86 -0.260159
6.87 -0.255726
6.88 -0.250036
6.89 -0.243162
6.9 -0.235233
6.91 -0.226312
6.92 -0.216461
6.93 -0.20574
6.94 -0.194203
6.95 -0.181816
6.96 -0.16871
6.97 -0.154917
6.98 -0.140465
6.99 -0.12537
7 -0.109645
7.01 -0.0932658
7.02 -0.0762257
7.03 -0.0585676
7.04 -0.0402928
7.05 -0.0214047
7.06 -0.00190974
7.07 0.0181804
7.08 0.0389048
7.09 0.0601825
7.1 0.0819697
7.11 0.104222
7.12 0.126885
7.13 0.149896
7.14 0.173191
7.15 0.196687
7.16 0.220275
7.17 0.24386
7.18 0.267344
7.19 0.290624
7.2 0.313597
7.21 0.336109
7.22 0.358071
7.23 0.37939
7.24 0.399967
7.25 0.419703
7.26 0.438507
7.27 0.456259
7.28 0.472798
7.29 0.48814
7.3 0.502215
7.31 0.514957
7.32 0.526306
7.33 0.536209
7.34 0.544492
7.35 0.551175
7.36 0.556277
7.37 0.559767
7.38 0.561623
7.39 0.561824
7.4 0.560332
7.41 0.557003
7.42 0.552008
7.43 0.545357
7.44 0.53707
7.45 0.527174
7.46 0.515704
7.47 0.5026
7.48 0.48796
7.49 0.471917
7.5 0.454542
7.51 0.435916
7.52 0.416124
7.53 0.395255
7.54 0.37332
7.55 0.350542
7.56 0.327034
7.57 0.302911
7.58 0.278292
7.59 0.253296
7.6 0.228039
7.61 0.20266
7.62 0.177295
7.63 0.152062
7.64 0.127079
7.65 0.102461
7.66 0.0783163
7.67 0.0548302
7.68 0.0320518
7.69 0.0100743
7.7 -0.0110115
7.71 -0.0311205
7.72 -0.0501737
7.73 -0.0680417
7.74 -0.0846252
7.75 -0.099948
7.76 -0.113963
7.77 -0.126633
7.78 -0.137928
7.79 -0.147831
7.8 -0.156192
7.81 -0.163136
7.82 -0.168703
7.83 -0.172921
7.84 -0.175833
7.85 -0.177489
7.86 -0.177913
7.87 -0.17714
7.88 -0.175351
7.89 -0.172641
7.9 -0.16911
7.91 -0.164863
7.92 -0.16001
7.93 -0.154628
7.94 -0.148872
7.95 -0.142861
7.96 -0.136698
7.97 -0.130479
7.98 -0.12429
7.99 -0.118214
8 -0.112334
8.01 -0.106689
8.02 -0.101317
8.03 -0.096241
8.04 -0.0914732
8.05 -0.0870126
8.06 -0.0828688
8.07 -0.0790042
8.08 -0.0753759
8.09 -0.0719466
8.1 -0.0686757
8.11 -0.0655208
8.12 -0.0624409
8.13 -0.0593957
8.14 -0.0563459
8.15 -0.0532653
8.16 -0.050136
8.17 -0.0469485
8.18 -0.0437029
8.19 -0.0404067
8.2 -0.0370831
8.21 -0.0337634
8.22 -0.030483
8.23 -0.0272824
8.24 -0.0242054
8.25 -0.0212978
8.26 -0.0186322
8.27 -0.0162282
8.28 -0.01412
8.29 -0.012334
8.3 -0.0108878
8.31 -0.00978826
8.32 -0.0090498
8.33 -0.00865378
8.34 -0.00854921
8.35 -0.00869523
8.36 -0.00904162
8.37 -0.00953043
8.38 -0.010098
8.39 -0.010671
8.4 -0.0111739
8.41 -0.0115419
8.42 -0.0117154
8.43 -0.0116432
8.44 -0.0112844
8.45 -0.0105956
8.46 -0.00955432
8.47 -0.00818919
8.48 -0.00652234
8.49 -0.00459201
8.5 -0.00245194
8.51 -0.000170199
8.52 0.00216959
8.53 0.0044601
8.54 0.00660058
8.55 0.00848782
8.56 0.0100184
8.57 0.0110921
8.58 0.0115935
8.59 0.0113978
8.6 0.010485
8.61 0.00880383
8.62 0.00632096
8.63 0.00302203
8.64 -0.00108754
8.65 -0.00604705
8.66 -0.0117583
8.67 -0.0181312
8.68 -0.0250836
8.69 -0.0325208
8.7 -0.0403385
8.71 -0.0484294
8.72 -0.056676
8.73 -0.064943
8.74 -0.0731239
8.75 -0.0811209
8.76 -0.0888474
8.77 -0.0962312
8.78 -0.103182
8.79 -0.109674
8.8 -0.115706
8.81 -0.121282
8.82 -0.12642
8.83 -0.131155
8.84 -0.135534
8.85 -0.139598
8.86 -0.143453
8.87 -0.147175
8.88 -0.150838
8.89 -0.154518
8.9 -0.158282
8.91 -0.162203
8.92 -0.166335
8.93 -0.1707
8.94 -0.175316
8.95 -0.180187
8.96 -0.185297
8.97 -0.190617
8.98 -0.196118
8.99 -0.201716
9 -0.207342
9.01 -0.212921
9.02 -0.218372
9.03 -0.223614
9.04 -0.228547
9.05 -0.233084
9.06 -0.237178
9.07 -0.240775
9.08 -0.243836
9.09 -0.246331
9.1 -0.24825
9.11 -0.249535
9.12 -0.250265
9.13 -0.250482
9.14 -0.250232
9.15 -0.249575
9.16 -0.248575
9.17 -0.247295
9.18 -0.245814
9.19 -0.244222
9.2 -0.242589
9.21 -0.240975
9.22 -0.239435
9.23 -0.238011
9.24 -0.236751
9.25 -0.235661
9.26 -0.234739
9.27 -0.233976
9.28 -0.233349
9.29 -0.232824
9.3 -0.232361
9.31 -0.231906
9.32 -0.231401
9.33 -0.230792
9.34 -0.230028
9.35 -0.229059
9.36 -0.227843
9.37 -0.22632
9.38 -0.224477
9.39 -0.222312
9.4 -0.219823
9.41 -0.217019
9.42 -0.213919
9.43 -0.210546
9.44 -0.206924
9.45 -0.20312
9.46 -0.199177
9.47 -0.19514
9.48 -0.19105
9.49 -0.186943
9.5 -0.182852
9.51 -0.178797
9.52 -0.174782
9.53 -0.170801
9.54 -0.166834
9.55 -0.162849
9.56 -0.158797
9.57 -0.154603
9.58 -0.150203
9.59 -0.145521
9.6 -0.140475
9.61 -0.134981
9.62 -0.128955
9.63 -0.122275
9.64 -0.114863
9.65 -0.106692
9.66 -0.0977156
9.67 -0.0879001
9.68 -0.0772286
9.69 -0.0657012
9.7 -0.053243
9.71 -0.039991
9.72 -0.0260024
9.73 -0.011348
9.74 0.00388891
9.75 0.0196147
9.76 0.0357421
9.77 0.0521528
9.78 0.068715
9.79 0.0853235
9.8 0.101879
9.81 0.118288
9.82 0.13447
9.83 0.150318
9.84 0.165799
9.85 0.180877
9.86 0.195529
9.87 0.209745
9.88 0.223524
9.89 0.236865
9.9 0.249778
9.91 0.262325
9.92 0.27454
9.93 0.286455
9.94 0.298103
9.95 0.30951
9.96 0.320677
9.97 0.331628
9.98 0.342367
9.99 0.352878
10 0.363135
10.01 0.373099
10.02 0.382709
10.03 0.391872
10.04 0.40055
10.05 0.408668
10.06 0.416151
10.07 0.422923
10.08 0.428912
10.09 0.433979
10.1 0.438103
10.11 0.441275
10.12 0.443471
10.13 0.444684
10.14 0.444924
10.15 0.444205
10.16 0.442511
10.17 0.440004
10.18 0.43677
10.19 0.43291
10.2 0.428535
10.21 0.423764
10.22 0.418713
10.23 0.413531
10.24 0.408353
10.25 0.403297
10.26 0.398467
10.27 0.393958
10.28 0.38985
10.29 0.386256
10.3 0.383166
10.31 0.380594
10.32 0.378534
10.33 0.37696
10.34 0.375827
10.35 0.37509
10.36 0.374655
10.37 0.374406
10.38 0.374242
10.39 0.374052
10.4 0.373726
10.41 0.373151
10.42 0.372169
10.43 0.370708
10.44 0.368683
10.45 0.366015
10.46 0.362639
10.47 0.358508
10.48 0.353545
10.49 0.347715
10.5 0.341071
10.51 0.333624
10.52 0.325398
10.53 0.316427
10.54 0.306753
10.55 0.296363
10.56 0.285372
10.57 0.273845
10.58 0.261834
10.59 0.249392
10.6 0.236566
10.61 0.223387
10.62 0.209883
10.63 0.196111
10.64 0.182092
10.65 0.167843
10.66 0.153376
10.67 0.138697
10.68 0.123792
10.69 0.108675
10.7 0.0933536
10.71 0.0778299
10.72 0.0621087
10.73 0.0461984
10.74 0.0301076
10.75 0.0138474
10.76 -0.0025414
10.77 -0.0190277
10.78 -0.0355752
10.79 -0.0521425
10.8 -0.0686839
10.81 -0.0851406
10.82 -0.101458
10.83 -0.117589
10.84 -0.133483
10.85 -0.149093
10.86 -0.164376
10.87 -0.179289
10.88 -0.193763
10.89 -0.207813
10.9 -0.221427
10.91 -0.234598
10.92 -0.247328
10.93 -0.259628
10.94 -0.271488
10.95 -0.282943
10.96 -0.294041
10.97 -0.304814
10.98 -0.315296
10.99 -0.325518
11 -0.335511
11.01 -0.345283
11.02 -0.354881
11.03 -0.364319
11.04 -0.373605
11.05 -0.382738
11.06 -0.391709
11.07 -0.400488
11.08 -0.409043
11.09 -0.41735
11.1 -0.425367
11.11 -0.433043
11.12 -0.440328
11.13 -0.447165
11.14 -0.453435
11.15 -0.459127
11.16 -0.464191
11.17 -0.468576
11.18 -0.472233
11.19 -0.475123
11.2 -0.477174
11.21 -0.478336
11.22 -0.478649
11.23 -0.478104
11.24 -0.476701
11.25 -0.474446
11.26 -0.471351
11.27 -0.467355
11.28 -0.462554
11.29 -0.456989
11.3 -0.450691
11.31 -0.443691
11.32 -0.436023
11.33 -0.427695
11.34 -0.418715
11.35 -0.40916
11.36 -0.399057
11.37 -0.388428
11.38 -0.377292
11.39 -0.365667
11.4 -0.353528
11.41 -0.340919
11.42 -0.327866
11.43 -0.314384
11.44 -0.300487
11.45 -0.286193
11.46 -0.271511
11.47 -0.256445
11.48 -0.241058
11.49 -0.225383
11.5 -0.20946
11.51 -0.19333
11.52 -0.177043
11.53 -0.160647
11.54 -0.144212
11.55 -0.127802
11.56 -0.111481
11.57 -0.0953124
11.58 -0.0793607
11.59 -0.0636936
11.6 -0.0484106
11.61 -0.0335378
11.62 -0.0191273
11.63 -0.00522564
11.64 0.00812704
11.65 0.0208973
11.66 0.0330176
11.67 0.0444772
11.68 0.0552981
11.69 0.0654789
11.7 0.0750248
11.71 0.0839473
11.72 0.0922627
11.73 0.0999304
11.74 0.107047
11.75 0.113641
11.76 0.119746
11.77 0.125394
11.78 0.130617
11.79 0.135428
11.8 0.139857
11.81 0.143957
11.82 0.14775
11.83 0.151259
11.84 0.1545
11.85 0.157486
11.86 0.160201
11.87 0.162675
11.88 0.164911
11.89 0.166906
11.9 0.168656
11.91 0.17015
11.92 0.171367
11.93 0.17228
11.94 0.172893
11.95 0.173186
11.96 0.17314
11.97 0.172732
11.98 0.171938
11.99 0.170691
12 0.16899
12.01 0.166818
12.02 0.164143
12.03 0.160937
12.04 0.157169
12.05 0.152786
12.06 0.147722
12.07 0.141996
12.08 0.135581
12.09 0.12845
12.1 0.120579
12.11 0.111947
12.12 0.102471
12.13 0.092182
12.14 0.081102
12.15 0.0692354
12.16 0.0565949
12.17 0.0432018
12.18 0.0290717
