# xPDFsuite Configuration #
[PDF]
wavelength = 0.1
dataformat = QA
inputfile = BiMsol6_insitu_700 C-00073.xy
backgroundfile = Quartz2mm-dist500-00000.xy
mode = xray
bgscale = 0.0042
composition = Bi2Fe4O9
outputtype = gr
qmaxinst = 24.998449118
qmin = 0.1
qmax = 21.4986662415
rmax = 80.0
rmin = 0.0
rstep = 0.01
rpoly = 0.9

[Misc]
inputdir = C:/Data/Seafile/CPH/Beamtime/Desy Oct 20/In situ data/Processed/BiMsol6/PDF
savedir = C:/Data/Seafile/CPH/Beamtime/Desy Oct 20/In situ data/PDF/BiMsol6
backgroundfilefull = C:/Data/Seafile/CPH/Beamtime/Desy Oct 20/In situ data/Processed/Standard_Empty_Cap/Quartz2mm-dist500-00000.xy

#### start data
#S 1
#L r($\AA$)  G($\AA^{-2}$)
0 0
0.01 0.00609798
0.02 0.0118519
0.03 0.0169672
0.04 0.0211798
0.05 0.0242683
0.06 0.0260637
0.07 0.026382
0.08 0.02517
0.09 0.0225648
0.1 0.0186794
0.11 0.0136886
0.12 0.00782152
0.13 0.00135112
0.14 -0.00541505
0.15 -0.0120921
0.16 -0.0183552
0.17 -0.0238996
0.18 -0.0284527
0.19 -0.0317875
0.2 -0.033671
0.21 -0.0339455
0.22 -0.0327074
0.23 -0.0300231
0.24 -0.0260338
0.25 -0.0209505
0.26 -0.0150466
0.27 -0.0086345
0.28 -0.00215829
0.29 0.00398663
0.3 0.00941658
0.31 0.0137677
0.32 0.0167139
0.33 0.0179254
0.34 0.0170814
0.35 0.0142381
0.36 0.00939902
0.37 0.0026683
0.38 -0.00574801
0.39 -0.0155449
0.4 -0.0263666
0.41 -0.0376122
0.42 -0.0486927
0.43 -0.0590089
0.44 -0.0679415
0.45 -0.0748751
0.46 -0.0791589
0.47 -0.079954
0.48 -0.0770864
0.49 -0.0702218
0.5 -0.0591456
0.51 -0.0437768
0.52 -0.0241771
0.53 -0.000291609
0.54 0.0273328
0.55 0.0579805
0.56 0.0909851
0.57 0.125569
0.58 0.160865
0.59 0.195929
0.6 0.22955
0.61 0.260796
0.62 0.288722
0.63 0.312444
0.64 0.331167
0.65 0.344212
0.66 0.35063
0.67 0.350046
0.68 0.342646
0.69 0.328449
0.7 0.307656
0.71 0.280645
0.72 0.247962
0.73 0.209831
0.74 0.167738
0.75 0.122654
0.76 0.0756081
0.77 0.0276672
0.78 -0.0200947
0.79 -0.066513
0.8 -0.110421
0.81 -0.151032
0.82 -0.187582
0.83 -0.219448
0.84 -0.246157
0.85 -0.267401
0.86 -0.282464
0.87 -0.291916
0.88 -0.296068
0.89 -0.295304
0.9 -0.290137
0.91 -0.281189
0.92 -0.269077
0.93 -0.254595
0.94 -0.238772
0.95 -0.222404
0.96 -0.206255
0.97 -0.191036
0.98 -0.177377
0.99 -0.166048
1 -0.157363
1.01 -0.151537
1.02 -0.148715
1.03 -0.148917
1.04 -0.152043
1.05 -0.157949
1.06 -0.16642
1.07 -0.176813
1.08 -0.188666
1.09 -0.201482
1.1 -0.21475
1.11 -0.227968
1.12 -0.240581
1.13 -0.252138
1.14 -0.262311
1.15 -0.270827
1.16 -0.277499
1.17 -0.282226
1.18 -0.284968
1.19 -0.285665
1.2 -0.284686
1.21 -0.282274
1.22 -0.278719
1.23 -0.274354
1.24 -0.269527
1.25 -0.264613
1.26 -0.260002
1.27 -0.255999
1.28 -0.252863
1.29 -0.250796
1.3 -0.249934
1.31 -0.250351
1.32 -0.252164
1.33 -0.255133
1.34 -0.259097
1.35 -0.263837
1.36 -0.269089
1.37 -0.274552
1.38 -0.279885
1.39 -0.284714
1.4 -0.288745
1.41 -0.2917
1.42 -0.293347
1.43 -0.293507
1.44 -0.292064
1.45 -0.288788
1.46 -0.283899
1.47 -0.277525
1.48 -0.269853
1.49 -0.261131
1.5 -0.251661
1.51 -0.241781
1.52 -0.231917
1.53 -0.222471
1.54 -0.213814
1.55 -0.206293
1.56 -0.200215
1.57 -0.195835
1.58 -0.193546
1.59 -0.193304
1.6 -0.195095
1.61 -0.198851
1.62 -0.204423
1.63 -0.211587
1.64 -0.220079
1.65 -0.229524
1.66 -0.23941
1.67 -0.24929
1.68 -0.25871
1.69 -0.267214
1.7 -0.274371
1.71 -0.279595
1.72 -0.282621
1.73 -0.283235
1.74 -0.281253
1.75 -0.276575
1.76 -0.269188
1.77 -0.259104
1.78 -0.246354
1.79 -0.231438
1.8 -0.214685
1.81 -0.196478
1.82 -0.177244
1.83 -0.157435
1.84 -0.137542
1.85 -0.118082
1.86 -0.09948
1.87 -0.0821185
1.88 -0.0663239
1.89 -0.0523574
1.9 -0.0404381
1.91 -0.0308644
1.92 -0.0234317
1.93 -0.0180662
1.94 -0.0146201
1.95 -0.0128795
1.96 -0.0125745
1.97 -0.013443
1.98 -0.0150683
1.99 -0.0170382
2 -0.0189994
2.01 -0.0206186
2.02 -0.0215972
2.03 -0.0216793
2.04 -0.0205364
2.05 -0.0181671
2.06 -0.014536
2.07 -0.00968237
2.08 -0.0037189
2.09 0.00317246
2.1 0.0107681
2.11 0.0187184
2.12 0.0266362
2.13 0.0341489
2.14 0.0408744
2.15 0.0464359
2.16 0.0504768
2.17 0.0524426
2.18 0.0522305
2.19 0.0496572
2.2 0.0445952
2.21 0.036993
2.22 0.0268777
2.23 0.014255
2.24 -0.000712439
2.25 -0.017582
2.26 -0.0360217
2.27 -0.0556507
2.28 -0.0760517
2.29 -0.0967844
2.3 -0.117345
2.31 -0.137255
2.32 -0.156107
2.33 -0.173528
2.34 -0.189196
2.35 -0.202848
2.36 -0.214209
2.37 -0.22304
2.38 -0.229503
2.39 -0.233648
2.4 -0.235597
2.41 -0.235539
2.42 -0.233718
2.43 -0.230328
2.44 -0.22583
2.45 -0.220621
2.46 -0.215064
2.47 -0.209517
2.48 -0.204318
2.49 -0.199797
2.5 -0.196316
2.51 -0.194013
2.52 -0.193037
2.53 -0.193478
2.54 -0.195364
2.55 -0.198663
2.56 -0.203378
2.57 -0.209297
2.58 -0.216172
2.59 -0.223775
2.6 -0.231857
2.61 -0.240154
2.62 -0.248395
2.63 -0.256262
2.64 -0.26353
2.65 -0.269991
2.66 -0.275473
2.67 -0.279841
2.68 -0.283007
2.69 -0.284843
2.7 -0.285375
2.71 -0.284723
2.72 -0.28298
2.73 -0.280273
2.74 -0.276755
2.75 -0.272597
2.76 -0.267954
2.77 -0.263081
2.78 -0.258157
2.79 -0.253348
2.8 -0.248798
2.81 -0.244625
2.82 -0.240947
2.83 -0.237828
2.84 -0.23525
2.85 -0.233191
2.86 -0.231599
2.87 -0.230393
2.88 -0.22947
2.89 -0.22871
2.9 -0.227945
2.91 -0.227035
2.92 -0.225839
2.93 -0.224228
2.94 -0.222086
2.95 -0.219283
2.96 -0.215719
2.97 -0.211401
2.98 -0.206317
2.99 -0.200483
3 -0.193943
3.01 -0.186767
3.02 -0.179003
3.03 -0.170816
3.04 -0.162342
3.05 -0.153708
3.06 -0.145047
3.07 -0.136481
3.08 -0.128135
3.09 -0.120133
3.1 -0.112528
3.11 -0.105367
3.12 -0.0986733
3.13 -0.0924405
3.14 -0.086637
3.15 -0.0812296
3.16 -0.0761034
3.17 -0.0711405
3.18 -0.0662192
3.19 -0.0612075
3.2 -0.0559678
3.21 -0.0503515
3.22 -0.0441717
3.23 -0.0373458
3.24 -0.029769
3.25 -0.0213551
3.26 -0.0120396
3.27 -0.00178142
3.28 0.00950604
3.29 0.0217799
3.3 0.0349602
3.31 0.0489869
3.32 0.0637816
3.33 0.0792499
3.34 0.0952902
3.35 0.111818
3.36 0.128658
3.37 0.145694
3.38 0.162815
3.39 0.179919
3.4 0.196916
3.41 0.213713
3.42 0.230244
3.43 0.246477
3.44 0.262386
3.45 0.277958
3.46 0.293194
3.47 0.308103
3.48 0.32267
3.49 0.336954
3.5 0.350979
3.51 0.364763
3.52 0.378319
3.53 0.391652
3.54 0.404739
3.55 0.417552
3.56 0.430066
3.57 0.442229
3.58 0.453971
3.59 0.465211
3.6 0.475857
3.61 0.485723
3.62 0.494752
3.63 0.502842
3.64 0.509883
3.65 0.515772
3.66 0.520411
3.67 0.523659
3.68 0.525389
3.69 0.525656
3.7 0.524434
3.71 0.521716
3.72 0.517518
3.73 0.511875
3.74 0.504724
3.75 0.496249
3.76 0.486583
3.77 0.475838
3.78 0.464138
3.79 0.451614
3.8 0.438389
3.81 0.424588
3.82 0.410404
3.83 0.395969
3.84 0.381406
3.85 0.366827
3.86 0.352333
3.87 0.338033
3.88 0.323999
3.89 0.310281
3.9 0.296919
3.91 0.283944
3.92 0.271371
3.93 0.259213
3.94 0.247498
3.95 0.236173
3.96 0.225218
3.97 0.214612
3.98 0.20433
3.99 0.194347
4 0.184654
4.01 0.175217
4.02 0.166002
4.03 0.15699
4.04 0.148162
4.05 0.139504
4.06 0.131003
4.07 0.122661
4.08 0.114451
4.09 0.106363
4.1 0.098387
4.11 0.0905135
4.12 0.082732
4.13 0.0750364
4.14 0.0674138
4.15 0.059849
4.16 0.0523322
4.17 0.0448548
4.18 0.0374099
4.19 0.0299939
4.2 0.0226098
4.21 0.0152596
4.22 0.00795328
4.23 0.000705952
4.24 -0.00646169
4.25 -0.0135236
4.26 -0.0204403
4.27 -0.0271672
4.28 -0.0336742
4.29 -0.0399197
4.3 -0.0458614
4.31 -0.0514581
4.32 -0.0566711
4.33 -0.0614204
4.34 -0.0657127
4.35 -0.0695358
4.36 -0.0728807
4.37 -0.0757486
4.38 -0.0781516
4.39 -0.0800977
4.4 -0.0816113
4.41 -0.0827749
4.42 -0.0836458
4.43 -0.0842891
4.44 -0.0847759
4.45 -0.0851811
4.46 -0.0855877
4.47 -0.0860798
4.48 -0.0867274
4.49 -0.0875938
4.5 -0.0887331
4.51 -0.0901877
4.52 -0.0919972
4.53 -0.0941996
4.54 -0.0967589
4.55 -0.0996554
4.56 -0.102854
4.57 -0.106306
4.58 -0.10995
4.59 -0.113716
4.6 -0.117506
4.61 -0.121229
4.62 -0.124795
4.63 -0.128118
4.64 -0.131113
4.65 -0.133697
4.66 -0.135757
4.67 -0.137286
4.68 -0.13825
4.69 -0.138631
4.7 -0.138427
4.71 -0.137656
4.72 -0.136317
4.73 -0.134481
4.74 -0.132241
4.75 -0.129676
4.76 -0.126872
4.77 -0.123926
4.78 -0.120934
4.79 -0.118011
4.8 -0.115251
4.81 -0.112741
4.82 -0.110556
4.83 -0.108761
4.84 -0.107406
4.85 -0.106556
4.86 -0.106232
4.87 -0.106406
4.88 -0.107063
4.89 -0.108173
4.9 -0.109694
4.91 -0.111574
4.92 -0.113779
4.93 -0.116202
4.94 -0.118772
4.95 -0.121419
4.96 -0.124075
4.97 -0.126678
4.98 -0.129165
4.99 -0.13148
5 -0.133596
5.01 -0.13549
5.02 -0.137148
5.03 -0.138568
5.04 -0.139758
5.05 -0.140714
5.06 -0.14148
5.07 -0.14209
5.08 -0.142577
5.09 -0.142974
5.1 -0.143315
5.11 -0.14363
5.12 -0.143948
5.13 -0.144291
5.14 -0.14467
5.15 -0.145092
5.16 -0.145555
5.17 -0.146048
5.18 -0.146557
5.19 -0.147056
5.2 -0.147519
5.21 -0.147916
5.22 -0.148218
5.23 -0.148396
5.24 -0.14842
5.25 -0.148254
5.26 -0.147895
5.27 -0.147336
5.28 -0.146573
5.29 -0.145612
5.3 -0.144465
5.31 -0.143141
5.32 -0.141675
5.33 -0.140105
5.34 -0.138465
5.35 -0.13679
5.36 -0.135115
5.37 -0.133474
5.38 -0.131904
5.39 -0.130425
5.4 -0.12905
5.41 -0.127788
5.42 -0.126636
5.43 -0.125585
5.44 -0.124619
5.45 -0.123706
5.46 -0.122806
5.47 -0.12188
5.48 -0.120884
5.49 -0.119772
5.5 -0.1185
5.51 -0.117
5.52 -0.115254
5.53 -0.113237
5.54 -0.110927
5.55 -0.108317
5.56 -0.105407
5.57 -0.102197
5.58 -0.0987134
5.59 -0.0950123
5.6 -0.0911402
5.61 -0.0871512
5.62 -0.0831051
5.63 -0.0790651
5.64 -0.0751097
5.65 -0.0712997
5.66 -0.0676904
5.67 -0.0643306
5.68 -0.0612589
5.69 -0.0585025
5.7 -0.0560901
5.71 -0.0540291
5.72 -0.0522768
5.73 -0.050801
5.74 -0.0495558
5.75 -0.048484
5.76 -0.0475186
5.77 -0.0465804
5.78 -0.045579
5.79 -0.0444337
5.8 -0.0430673
5.81 -0.0414081
5.82 -0.0393934
5.83 -0.0369571
5.84 -0.0340362
5.85 -0.0306487
5.86 -0.0267947
5.87 -0.0224924
5.88 -0.0177771
5.89 -0.0127008
5.9 -0.0073124
5.91 -0.00171974
5.92 0.00397616
5.93 0.00967729
5.94 0.0152833
5.95 0.0206951
5.96 0.0258105
5.97 0.0305074
5.98 0.0347457
5.99 0.0384722
6 0.0416518
6.01 0.0442689
6.02 0.0463288
6.03 0.0478213
6.04 0.0488198
6.05 0.0494163
6.06 0.0496966
6.07 0.0497593
6.08 0.0497127
6.09 0.0496722
6.1 0.0497783
6.11 0.0501394
6.12 0.0508581
6.13 0.0520249
6.14 0.0537148
6.15 0.055984
6.16 0.0589075
6.17 0.0624893
6.18 0.0666784
6.19 0.0714336
6.2 0.0766911
6.21 0.082367
6.22 0.0883591
6.23 0.0945596
6.24 0.100805
6.25 0.106959
6.26 0.112889
6.27 0.118461
6.28 0.123555
6.29 0.128021
6.3 0.131748
6.31 0.134705
6.32 0.136847
6.33 0.13815
6.34 0.138618
6.35 0.138277
6.36 0.137105
6.37 0.135256
6.38 0.132835
6.39 0.129952
6.4 0.126725
6.41 0.123283
6.42 0.119756
6.43 0.116289
6.44 0.113003
6.45 0.110002
6.46 0.107376
6.47 0.105196
6.48 0.103511
6.49 0.1024
6.5 0.101827
6.51 0.101758
6.52 0.102149
6.53 0.102939
6.54 0.104049
6.55 0.105391
6.56 0.106858
6.57 0.108324
6.58 0.109684
6.59 0.110833
6.6 0.111677
6.61 0.112132
6.62 0.112086
6.63 0.111505
6.64 0.110376
6.65 0.108689
6.66 0.106455
6.67 0.103703
6.68 0.100474
6.69 0.0968094
6.7 0.0928339
6.71 0.0886375
6.72 0.0843159
6.73 0.0799671
6.74 0.0756882
6.75 0.0715898
6.76 0.0677619
6.77 0.0642668
6.78 0.0611606
6.79 0.0584838
6.8 0.05626
6.81 0.0544992
6.82 0.0532324
6.83 0.0523782
6.84 0.0518908
6.85 0.0517122
6.86 0.0517749
6.87 0.0520041
6.88 0.0523217
6.89 0.0526362
6.9 0.0528677
6.91 0.0529465
6.92 0.0528119
6.93 0.0524135
6.94 0.0517136
6.95 0.0506494
6.96 0.0492492
6.97 0.0475215
6.98 0.0454874
6.99 0.0431801
7 0.0406426
7.01 0.0379206
7.02 0.0350781
7.03 0.0321873
7.04 0.0293081
7.05 0.0264976
7.06 0.0238075
7.07 0.0212817
7.08 0.0189775
7.09 0.0169008
7.1 0.0150569
7.11 0.0134415
7.12 0.0120386
7.13 0.0108207
7.14 0.00975439
7.15 0.00879086
7.16 0.00786643
7.17 0.00692553
7.18 0.00591231
7.19 0.00477327
7.2 0.00345985
7.21 0.00190792
7.22 9.85778e-05
7.23 -0.00197961
7.24 -0.00433059
7.25 -0.00694463
7.26 -0.00979814
7.27 -0.0128582
7.28 -0.0160762
7.29 -0.0193712
7.3 -0.0226711
7.31 -0.0258978
7.32 -0.0289696
7.33 -0.0318043
7.34 -0.0342906
7.35 -0.0363603
7.36 -0.0379624
7.37 -0.0390458
7.38 -0.0395734
7.39 -0.0395234
7.4 -0.0388816
7.41 -0.0376174
7.42 -0.0358241
7.43 -0.0335536
7.44 -0.0308735
7.45 -0.0278646
7.46 -0.0246192
7.47 -0.0212366
7.48 -0.0178421
7.49 -0.01455
7.5 -0.011467
7.51 -0.00869428
7.52 -0.00632438
7.53 -0.00444175
7.54 -0.0031776
7.55 -0.00252242
7.56 -0.00250405
7.57 -0.00313134
7.58 -0.00439395
7.59 -0.00626263
7.6 -0.00871925
7.61 -0.0116876
7.62 -0.0150544
7.63 -0.0187274
7.64 -0.0226066
7.65 -0.026587
7.66 -0.0305624
7.67 -0.034405
7.68 -0.0380192
7.69 -0.0413178
7.7 -0.0442247
7.71 -0.0466779
7.72 -0.0486313
7.73 -0.0500302
7.74 -0.050853
7.75 -0.0511482
7.76 -0.0509447
7.77 -0.0502873
7.78 -0.0492349
7.79 -0.0478585
7.8 -0.0462228
7.81 -0.0444456
7.82 -0.0426217
7.83 -0.0408413
7.84 -0.0391912
7.85 -0.0377518
7.86 -0.0366066
7.87 -0.0358365
7.88 -0.0354598
7.89 -0.0355028
7.9 -0.035976
7.91 -0.0368729
7.92 -0.0381714
7.93 -0.0398614
7.94 -0.0418598
7.95 -0.0440897
7.96 -0.0464745
7.97 -0.048931
7.98 -0.0513717
7.99 -0.0537032
8 -0.0558152
8.01 -0.0576388
8.02 -0.059102
8.03 -0.0601436
8.04 -0.0607149
8.05 -0.0607813
8.06 -0.0602822
8.07 -0.0592379
8.08 -0.0576862
8.09 -0.0556601
8.1 -0.0532072
8.11 -0.0503882
8.12 -0.047272
8.13 -0.0439318
8.14 -0.0404851
8.15 -0.0370235
8.16 -0.0336388
8.17 -0.0304204
8.18 -0.0274522
8.19 -0.0248371
8.2 -0.0226429
8.21 -0.0209034
8.22 -0.019655
8.23 -0.0189193
8.24 -0.0187025
8.25 -0.0189971
8.26 -0.0198278
8.27 -0.021095
8.28 -0.0227444
8.29 -0.0247112
8.3 -0.0269221
8.31 -0.0292977
8.32 -0.0317546
8.33 -0.0341954
8.34 -0.036534
8.35 -0.0386928
8.36 -0.0406007
8.37 -0.0421955
8.38 -0.0434247
8.39 -0.0442001
8.4 -0.0445341
8.41 -0.0444176
8.42 -0.0438513
8.43 -0.042848
8.44 -0.0414319
8.45 -0.0396223
8.46 -0.0374608
8.47 -0.0350258
8.48 -0.0323732
8.49 -0.0295616
8.5 -0.0266499
8.51 -0.0236956
8.52 -0.0207588
8.53 -0.0178922
8.54 -0.0151361
8.55 -0.0125236
8.56 -0.0100793
8.57 -0.00781925
8.58 -0.00575715
8.59 -0.00389985
8.6 -0.0022206
8.61 -0.000702179
8.62 0.000677827
8.63 0.00194559
8.64 0.00312954
8.65 0.00425662
8.66 0.00536139
8.67 0.00647041
8.68 0.00760479
8.69 0.00878056
8.7 0.010008
8.71 0.0112921
8.72 0.0126327
8.73 0.0140136
8.74 0.015418
8.75 0.0168238
8.76 0.018205
8.77 0.0195325
8.78 0.0207671
8.79 0.021877
8.8 0.0228376
8.81 0.0236237
8.82 0.0242152
8.83 0.0245977
8.84 0.024761
8.85 0.024686
8.86 0.0244058
8.87 0.0239386
8.88 0.0233101
8.89 0.022553
8.9 0.0217057
8.91 0.0208114
8.92 0.019924
8.93 0.0190932
8.94 0.0183655
8.95 0.0177847
8.96 0.01739
8.97 0.0172143
8.98 0.0173131
8.99 0.0176737
9 0.0182994
9.01 0.0191832
9.02 0.0203075
9.03 0.0216444
9.04 0.0231635
9.05 0.0248118
9.06 0.0265246
9.07 0.0282431
9.08 0.0299057
9.09 0.031451
9.1 0.0328193
9.11 0.0339248
9.12 0.0347376
9.13 0.0352222
9.14 0.035351
9.15 0.0351084
9.16 0.0344914
9.17 0.0334957
9.18 0.0321389
9.19 0.0304868
9.2 0.0285898
9.21 0.0265074
9.22 0.0243072
9.23 0.0220619
9.24 0.0198576
9.25 0.0177764
9.26 0.0158897
9.27 0.0142639
9.28 0.0129568
9.29 0.0120159
9.3 0.0114894
9.31 0.0114217
9.32 0.0117797
9.33 0.0125494
9.34 0.013702
9.35 0.0151937
9.36 0.016968
9.37 0.0189682
9.38 0.0210949
9.39 0.0232564
9.4 0.025365
9.41 0.0273332
9.42 0.0290768
9.43 0.0305103
9.44 0.0315294
9.45 0.0321114
9.46 0.0322176
9.47 0.0318251
9.48 0.0309281
9.49 0.0295378
9.5 0.0276523
9.51 0.0253393
9.52 0.0226827
9.53 0.0197587
9.54 0.0166532
9.55 0.0134594
9.56 0.010275
9.57 0.00721969
9.58 0.0043835
9.59 0.00185259
9.6 -0.000297005
9.61 -0.0020019
9.62 -0.00321362
9.63 -0.00386662
9.64 -0.00395196
9.65 -0.00350797
9.66 -0.00256216
9.67 -0.00115918
9.68 0.00064079
9.69 0.00276403
9.7 0.00514267
9.71 0.00764706
9.72 0.0101788
9.73 0.0126397
9.74 0.0149344
9.75 0.0169744
9.76 0.0186597
9.77 0.0199101
9.78 0.0207009
9.79 0.0210016
9.8 0.0208
9.81 0.0201022
9.82 0.0189327
9.83 0.0172947
9.84 0.0152947
9.85 0.0130132
9.86 0.0105365
9.87 0.00795814
9.88 0.00537621
9.89 0.00289787
9.9 0.000639889
9.91 -0.00131769
9.92 -0.00289597
9.93 -0.00402853
9.94 -0.00466364
9.95 -0.00476603
9.96 -0.00426672
9.97 -0.00320803
9.98 -0.00162671
9.99 0.000436507
10 0.00292519
10.01 0.0057692
10.02 0.00889216
10.03 0.0122017
10.04 0.0155784
10.05 0.0189242
10.06 0.0221428
10.07 0.0251425
10.08 0.0278395
10.09 0.030124
10.1 0.0319471
10.11 0.0332794
10.12 0.0340935
10.13 0.0343784
10.14 0.0341387
10.15 0.0333864
10.16 0.0321242
10.17 0.0304522
10.18 0.0284312
10.19 0.02613
10.2 0.0236225
10.21 0.0209856
10.22 0.018298
10.23 0.0156454
10.24 0.0130976
10.25 0.0107152
10.26 0.00854953
10.27 0.00664174
10.28 0.00502391
10.29 0.0037467
10.3 0.00278145
10.31 0.00212089
10.32 0.00174784
10.33 0.00163647
10.34 0.00175386
10.35 0.00207042
10.36 0.0025368
10.37 0.00309874
10.38 0.00371315
10.39 0.00433921
10.4 0.00493982
10.41 0.00548286
10.42 0.00593027
10.43 0.0062708
10.44 0.00649357
10.45 0.00659389
10.46 0.0065732
10.47 0.0064383
10.48 0.00619617
10.49 0.00586219
10.5 0.00546022
10.51 0.00500763
10.52 0.00452098
10.53 0.00401489
10.54 0.00350105
10.55 0.00298786
10.56 0.00247856
10.57 0.00197109
10.58 0.00145897
10.59 0.000931683
10.6 0.000375306
10.61 -0.000229083
10.62 -0.000904659
10.63 -0.00166562
10.64 -0.0025286
10.65 -0.0035075
10.66 -0.00461234
10.67 -0.00584808
10.68 -0.00722487
10.69 -0.00872455
10.7 -0.0103271
10.71 -0.0120089
10.72 -0.0137396
10.73 -0.0154829
10.74 -0.0171953
10.75 -0.0188204
10.76 -0.0203138
10.77 -0.0216278
10.78 -0.0227164
10.79 -0.0235374
10.8 -0.0240543
10.81 -0.0242094
10.82 -0.0239953
10.83 -0.0234172
10.84 -0.022479
10.85 -0.0211962
10.86 -0.019596
10.87 -0.0177137
10.88 -0.0155861
10.89 -0.0133015
10.9 -0.010928
10.91 -0.00853853
10.92 -0.00620919
10.93 -0.00401634
10.94 -0.00205373
10.95 -0.000395686
10.96 0.000908478
10.97 0.00180875
10.98 0.00226702
10.99 0.00225864
11 0.0017714
11.01 0.00076203
11.02 -0.000690852
11.03 -0.00254758
11.04 -0.00475471
11.05 -0.00724649
11.06 -0.00994684
11.07 -0.0127733
11.08 -0.0156216
11.09 -0.0183928
11.1 -0.0209955
11.11 -0.0233423
11.12 -0.0253528
11.13 -0.026956
11.14 -0.0280359
11.15 -0.0285938
11.16 -0.0286069
11.17 -0.0280654
11.18 -0.0269762
11.19 -0.0253626
11.2 -0.0232434
11.21 -0.0206711
11.22 -0.0177481
11.23 -0.0145528
11.24 -0.0111705
11.25 -0.00769106
11.26 -0.00420562
11.27 -0.000820954
11.28 0.00237601
11.29 0.00531073
11.3 0.00791688
11.31 0.0101399
11.32 0.0119384
11.33 0.013269
11.34 0.014098
11.35 0.0144692
11.36 0.014403
11.37 0.0139324
11.38 0.0131021
11.39 0.0119658
11.4 0.010569
11.41 0.00900086
11.42 0.00733676
11.43 0.0056443
11.44 0.00398787
11.45 0.00242646
11.46 0.00101641
11.47 -0.000182357
11.48 -0.00115483
11.49 -0.00188269
11.5 -0.00235902
11.51 -0.00258802
11.52 -0.00258447
11.53 -0.00235918
11.54 -0.00195799
11.55 -0.00142947
11.56 -0.000818068
11.57 -0.000170243
11.58 0.000467575
11.59 0.0010497
11.6 0.0015227
11.61 0.00186017
11.62 0.00203658
11.63 0.00203485
11.64 0.00184691
11.65 0.00147405
11.66 0.000916506
11.67 0.000200228
11.68 -0.000637114
11.69 -0.00156046
11.7 -0.0025301
11.71 -0.00350336
11.72 -0.00443626
11.73 -0.00527147
11.74 -0.0059752
11.75 -0.00651276
11.76 -0.00685573
11.77 -0.00698313
11.78 -0.00688238
11.79 -0.00653743
11.8 -0.00595454
11.81 -0.00516513
