# xPDFsuite Configuration #
[PDF]
wavelength = 0.1
dataformat = QA
inputfile = BiMsol6_insitu_700 C-00584.xy
backgroundfile = Quartz2mm-dist500-00000.xy
mode = xray
bgscale = 0.0042
composition = Bi2Fe4O9
outputtype = gr
qmaxinst = 24.998449118
qmin = 0.1
qmax = 21.4986662415
rmax = 80.0
rmin = 0.0
rstep = 0.01
rpoly = 0.9

[Misc]
inputdir = C:/Data/Seafile/CPH/Beamtime/Desy Oct 20/In situ data/Processed/BiMsol6/PDF
savedir = C:/Data/Seafile/CPH/Beamtime/Desy Oct 20/In situ data/PDF/BiMsol6
backgroundfilefull = C:/Data/Seafile/CPH/Beamtime/Desy Oct 20/In situ data/Processed/Standard_Empty_Cap/Quartz2mm-dist500-00000.xy

#### start data
#S 1
#L r($\AA$)  G($\AA^{-2}$)
0 0
0.01 0.00542256
0.02 0.0105296
0.03 0.0150512
0.04 0.0187459
0.05 0.0214114
0.06 0.0228947
0.07 0.0230294
0.08 0.0217702
0.09 0.0192459
0.1 0.0155637
0.11 0.0108878
0.12 0.00543217
0.13 -0.000549619
0.14 -0.00676944
0.15 -0.0128754
0.16 -0.0185698
0.17 -0.0235743
0.18 -0.0276421
0.19 -0.0305695
0.2 -0.0321487
0.21 -0.0322445
0.22 -0.0309562
0.23 -0.0283557
0.24 -0.0245841
0.25 -0.0198472
0.26 -0.0144074
0.27 -0.00856906
0.28 -0.00274557
0.29 0.00269449
0.3 0.00739448
0.31 0.0110189
0.32 0.0132701
0.33 0.0138489
0.34 0.0124673
0.35 0.0091975
0.36 0.00405963
0.37 -0.00283053
0.38 -0.0112611
0.39 -0.0209274
0.4 -0.0314694
0.41 -0.0423086
0.42 -0.0528802
0.43 -0.0626096
0.44 -0.0709061
0.45 -0.0771856
0.46 -0.0808313
0.47 -0.0810455
0.48 -0.0776841
0.49 -0.0704416
0.5 -0.0591282
0.51 -0.0436822
0.52 -0.0241789
0.53 -0.000582215
0.54 0.0265687
0.55 0.0565776
0.56 0.0887971
0.57 0.122476
0.58 0.156779
0.59 0.190801
0.6 0.223379
0.61 0.253631
0.62 0.280657
0.63 0.30362
0.64 0.321767
0.65 0.334458
0.66 0.340794
0.67 0.340423
0.68 0.333534
0.69 0.320148
0.7 0.30046
0.71 0.274833
0.72 0.243786
0.73 0.207525
0.74 0.167464
0.75 0.12452
0.76 0.0796627
0.77 0.0338981
0.78 -0.0117626
0.79 -0.0562271
0.8 -0.0983991
0.81 -0.137534
0.82 -0.172915
0.83 -0.203952
0.84 -0.230199
0.85 -0.251362
0.86 -0.266768
0.87 -0.276937
0.88 -0.282154
0.89 -0.282765
0.9 -0.279238
0.91 -0.272145
0.92 -0.262047
0.93 -0.249668
0.94 -0.235962
0.95 -0.221662
0.96 -0.207472
0.97 -0.194048
0.98 -0.181975
0.99 -0.17196
1 -0.164304
1.01 -0.15922
1.02 -0.156853
1.03 -0.157236
1.04 -0.160293
1.05 -0.165911
1.06 -0.173915
1.07 -0.183735
1.08 -0.194964
1.09 -0.207166
1.1 -0.219889
1.11 -0.232687
1.12 -0.245072
1.13 -0.256633
1.14 -0.267064
1.15 -0.276112
1.16 -0.283593
1.17 -0.289401
1.18 -0.293477
1.19 -0.295738
1.2 -0.296481
1.21 -0.295889
1.22 -0.294188
1.23 -0.291635
1.24 -0.288509
1.25 -0.28509
1.26 -0.281693
1.27 -0.278572
1.28 -0.275935
1.29 -0.273942
1.3 -0.272706
1.31 -0.272288
1.32 -0.272766
1.33 -0.273982
1.34 -0.275819
1.35 -0.278117
1.36 -0.280686
1.37 -0.283311
1.38 -0.285746
1.39 -0.287733
1.4 -0.289078
1.41 -0.289603
1.42 -0.289167
1.43 -0.287672
1.44 -0.285069
1.45 -0.281249
1.46 -0.276406
1.47 -0.270674
1.48 -0.264228
1.49 -0.257285
1.5 -0.250092
1.51 -0.242934
1.52 -0.236139
1.53 -0.229975
1.54 -0.2247
1.55 -0.220538
1.56 -0.217674
1.57 -0.216245
1.58 -0.216481
1.59 -0.218262
1.6 -0.221494
1.61 -0.226048
1.62 -0.231732
1.63 -0.2383
1.64 -0.245469
1.65 -0.252869
1.66 -0.260102
1.67 -0.2668
1.68 -0.272606
1.69 -0.277178
1.7 -0.280211
1.71 -0.281259
1.72 -0.280212
1.73 -0.276994
1.74 -0.271548
1.75 -0.263888
1.76 -0.254102
1.77 -0.242303
1.78 -0.228635
1.79 -0.213566
1.8 -0.197429
1.81 -0.180589
1.82 -0.163429
1.83 -0.146333
1.84 -0.129742
1.85 -0.114032
1.86 -0.0994869
1.87 -0.0863615
1.88 -0.0748518
1.89 -0.0650895
1.9 -0.0571653
1.91 -0.0512233
1.92 -0.0469874
1.93 -0.044307
1.94 -0.0429785
1.95 -0.0427545
1.96 -0.0433554
1.97 -0.0444951
1.98 -0.0458135
1.99 -0.0469915
2 -0.0477574
2.01 -0.0478746
2.02 -0.0471525
2.03 -0.0454508
2.04 -0.0425769
2.05 -0.0386517
2.06 -0.0337487
2.07 -0.0280049
2.08 -0.0216165
2.09 -0.0148317
2.1 -0.00795533
2.11 -0.00136539
2.12 0.00458844
2.13 0.00955746
2.14 0.0132039
2.15 0.0152139
2.16 0.0153103
2.17 0.0130092
2.18 0.00835256
2.19 0.00126794
2.2 -0.00826232
2.21 -0.0201833
2.22 -0.0343681
2.23 -0.0507027
2.24 -0.068929
2.25 -0.0885744
2.26 -0.10927
2.27 -0.130617
2.28 -0.152198
2.29 -0.173595
2.3 -0.194298
2.31 -0.213929
2.32 -0.23216
2.33 -0.248695
2.34 -0.263298
2.35 -0.275796
2.36 -0.286004
2.37 -0.293782
2.38 -0.299362
2.39 -0.302861
2.4 -0.304451
2.41 -0.304357
2.42 -0.302845
2.43 -0.300146
2.44 -0.296684
2.45 -0.292821
2.46 -0.288879
2.47 -0.285163
2.48 -0.281954
2.49 -0.279519
2.5 -0.278146
2.51 -0.277901
2.52 -0.278872
2.53 -0.281094
2.54 -0.284549
2.55 -0.289173
2.56 -0.294923
2.57 -0.301587
2.58 -0.308933
2.59 -0.316754
2.6 -0.324828
2.61 -0.332929
2.62 -0.340832
2.63 -0.348267
2.64 -0.355079
2.65 -0.361113
2.66 -0.366245
2.67 -0.370387
2.68 -0.373486
2.69 -0.375458
2.7 -0.376343
2.71 -0.376254
2.72 -0.375276
2.73 -0.373515
2.74 -0.371096
2.75 -0.368151
2.76 -0.364791
2.77 -0.36121
2.78 -0.357537
2.79 -0.353887
2.8 -0.350359
2.81 -0.347034
2.82 -0.343986
2.83 -0.341257
2.84 -0.338838
2.85 -0.33672
2.86 -0.334872
2.87 -0.333248
2.88 -0.331793
2.89 -0.330443
2.9 -0.329111
2.91 -0.327723
2.92 -0.326211
2.93 -0.32451
2.94 -0.322567
2.95 -0.320319
2.96 -0.317716
2.97 -0.314755
2.98 -0.311421
2.99 -0.307703
3 -0.303598
3.01 -0.299103
3.02 -0.294177
3.03 -0.28884
3.04 -0.283086
3.05 -0.276887
3.06 -0.270206
3.07 -0.262993
3.08 -0.25516
3.09 -0.246579
3.1 -0.237207
3.11 -0.226937
3.12 -0.215655
3.13 -0.203243
3.14 -0.189583
3.15 -0.174435
3.16 -0.157756
3.17 -0.139504
3.18 -0.119614
3.19 -0.0980467
3.2 -0.0747908
3.21 -0.0498339
3.22 -0.0231226
3.23 0.00508118
3.24 0.034639
3.25 0.0653771
3.26 0.0970888
3.27 0.129537
3.28 0.162474
3.29 0.195557
3.3 0.228469
3.31 0.2609
3.32 0.292541
3.33 0.323091
3.34 0.352243
3.35 0.379536
3.36 0.404885
3.37 0.428081
3.38 0.448952
3.39 0.467361
3.4 0.48321
3.41 0.496273
3.42 0.506558
3.43 0.514233
3.44 0.519361
3.45 0.522033
3.46 0.522368
3.47 0.520508
3.48 0.516395
3.49 0.51045
3.5 0.502854
3.51 0.493788
3.52 0.48343
3.53 0.471951
3.54 0.459473
3.55 0.446157
3.56 0.432196
3.57 0.417711
3.58 0.402808
3.59 0.38758
3.6 0.372108
3.61 0.356453
3.62 0.3407
3.63 0.324907
3.64 0.309131
3.65 0.293427
3.66 0.277851
3.67 0.262477
3.68 0.247393
3.69 0.232659
3.7 0.218359
3.71 0.204586
3.72 0.191436
3.73 0.179013
3.74 0.167515
3.75 0.157004
3.76 0.14757
3.77 0.139321
3.78 0.132355
3.79 0.126767
3.8 0.122683
3.81 0.120271
3.82 0.119453
3.83 0.120264
3.84 0.122725
3.85 0.126835
3.86 0.13258
3.87 0.140054
3.88 0.149121
3.89 0.159658
3.9 0.17158
3.91 0.184794
3.92 0.199195
3.93 0.214684
3.94 0.231203
3.95 0.24852
3.96 0.266506
3.97 0.285029
3.98 0.303957
3.99 0.32316
4 0.342509
4.01 0.361855
4.02 0.381068
4.03 0.400028
4.04 0.418618
4.05 0.436721
4.06 0.454224
4.07 0.470933
4.08 0.486815
4.09 0.50177
4.1 0.515705
4.11 0.528531
4.12 0.540165
4.13 0.550449
4.14 0.559307
4.15 0.566752
4.16 0.572734
4.17 0.577211
4.18 0.580153
4.19 0.581538
4.2 0.581181
4.21 0.579258
4.22 0.57579
4.23 0.570803
4.24 0.564334
4.25 0.556426
4.26 0.547067
4.27 0.536299
4.28 0.524277
4.29 0.511069
4.3 0.496738
4.31 0.48135
4.32 0.464967
4.33 0.447558
4.34 0.429264
4.35 0.410144
4.36 0.39024
4.37 0.369588
4.38 0.348218
4.39 0.326132
4.4 0.303329
4.41 0.279885
4.42 0.255823
4.43 0.231169
4.44 0.205953
4.45 0.18021
4.46 0.153949
4.47 0.127262
4.48 0.100232
4.49 0.0729373
4.5 0.0454716
4.51 0.0179386
4.52 -0.00954206
4.53 -0.0368176
4.54 -0.0637607
4.55 -0.0902334
4.56 -0.116096
4.57 -0.141209
4.58 -0.165439
4.59 -0.18857
4.6 -0.210515
4.61 -0.231216
4.62 -0.250592
4.63 -0.268584
4.64 -0.285153
4.65 -0.300258
4.66 -0.313787
4.67 -0.325922
4.68 -0.336718
4.69 -0.346251
4.7 -0.354613
4.71 -0.361914
4.72 -0.368216
4.73 -0.373684
4.74 -0.378494
4.75 -0.382777
4.76 -0.386657
4.77 -0.390253
4.78 -0.39367
4.79 -0.397001
4.8 -0.400335
4.81 -0.403727
4.82 -0.407213
4.83 -0.410809
4.84 -0.414516
4.85 -0.418319
4.86 -0.42218
4.87 -0.426047
4.88 -0.429862
4.89 -0.433563
4.9 -0.437085
4.91 -0.440362
4.92 -0.44329
4.93 -0.44584
4.94 -0.447964
4.95 -0.449624
4.96 -0.450793
4.97 -0.451455
4.98 -0.451579
4.99 -0.451162
5 -0.450258
5.01 -0.448891
5.02 -0.447093
5.03 -0.444898
5.04 -0.442343
5.05 -0.439433
5.06 -0.436231
5.07 -0.432768
5.08 -0.429061
5.09 -0.425121
5.1 -0.42095
5.11 -0.416531
5.12 -0.411833
5.13 -0.40685
5.14 -0.40155
5.15 -0.395898
5.16 -0.389855
5.17 -0.383384
5.18 -0.376409
5.19 -0.368927
5.2 -0.360932
5.21 -0.352419
5.22 -0.343392
5.23 -0.33387
5.24 -0.323879
5.25 -0.313445
5.26 -0.302678
5.27 -0.291656
5.28 -0.280471
5.29 -0.269222
5.3 -0.258015
5.31 -0.24698
5.32 -0.236234
5.33 -0.225876
5.34 -0.216006
5.35 -0.20671
5.36 -0.198066
5.37 -0.190144
5.38 -0.18306
5.39 -0.176763
5.4 -0.171256
5.41 -0.166525
5.42 -0.162542
5.43 -0.159262
5.44 -0.156664
5.45 -0.154658
5.46 -0.153135
5.47 -0.152014
5.48 -0.151213
5.49 -0.150653
5.5 -0.15026
5.51 -0.14997
5.52 -0.149714
5.53 -0.149447
5.54 -0.149138
5.55 -0.148768
5.56 -0.148329
5.57 -0.147819
5.58 -0.147251
5.59 -0.146645
5.6 -0.146021
5.61 -0.145399
5.62 -0.144795
5.63 -0.144217
5.64 -0.14367
5.65 -0.143137
5.66 -0.142592
5.67 -0.141993
5.68 -0.141285
5.69 -0.140399
5.7 -0.139237
5.71 -0.137678
5.72 -0.135641
5.73 -0.133015
5.74 -0.129693
5.75 -0.125568
5.76 -0.120542
5.77 -0.114426
5.78 -0.107222
5.79 -0.0989034
5.8 -0.0894501
5.81 -0.0788659
5.82 -0.0671825
5.83 -0.054428
5.84 -0.0406565
5.85 -0.0260742
5.86 -0.0108243
5.87 0.00493079
5.88 0.021013
5.89 0.0372336
5.9 0.0533768
5.91 0.0692283
5.92 0.0846057
5.93 0.0993374
5.94 0.11327
5.95 0.126273
5.96 0.138219
5.97 0.148947
5.98 0.158525
5.99 0.166954
6 0.174267
6.01 0.180528
6.02 0.185829
6.03 0.190235
6.04 0.193931
6.05 0.197107
6.06 0.199926
6.07 0.202548
6.08 0.205134
6.09 0.207831
6.1 0.210806
6.11 0.214145
6.12 0.217923
6.13 0.222183
6.14 0.226937
6.15 0.232164
6.16 0.237832
6.17 0.243833
6.18 0.250027
6.19 0.256268
6.2 0.262395
6.21 0.268231
6.22 0.273593
6.23 0.278198
6.24 0.281928
6.25 0.284618
6.26 0.286121
6.27 0.28631
6.28 0.285089
6.29 0.282309
6.3 0.277914
6.31 0.272006
6.32 0.26462
6.33 0.255825
6.34 0.245717
6.35 0.234416
6.36 0.221967
6.37 0.208646
6.38 0.194631
6.39 0.180097
6.4 0.165211
6.41 0.150138
6.42 0.135032
6.43 0.120049
6.44 0.1053
6.45 0.090872
6.46 0.0768289
6.47 0.06321
6.48 0.050031
6.49 0.0373237
6.5 0.0250232
6.51 0.0130719
6.52 0.0014088
6.53 -0.0100353
6.54 -0.0213341
6.55 -0.0325617
6.56 -0.0437964
6.57 -0.0551024
6.58 -0.066527
6.59 -0.0781024
6.6 -0.0898445
6.61 -0.101751
6.62 -0.113812
6.63 -0.125972
6.64 -0.138168
6.65 -0.150327
6.66 -0.162363
6.67 -0.174183
6.68 -0.185678
6.69 -0.1967
6.7 -0.207184
6.71 -0.217035
6.72 -0.226169
6.73 -0.234511
6.74 -0.242001
6.75 -0.248523
6.76 -0.254071
6.77 -0.258673
6.78 -0.262331
6.79 -0.265061
6.8 -0.266889
6.81 -0.267844
6.82 -0.26789
6.83 -0.267165
6.84 -0.265711
6.85 -0.263569
6.86 -0.26077
6.87 -0.257339
6.88 -0.25325
6.89 -0.248505
6.9 -0.243121
6.91 -0.237068
6.92 -0.230303
6.93 -0.222773
6.94 -0.214414
6.95 -0.205045
6.96 -0.194683
6.97 -0.183258
6.98 -0.170697
6.99 -0.156936
7 -0.141922
7.01 -0.125548
7.02 -0.107768
7.03 -0.0886681
7.04 -0.0682691
7.05 -0.0466133
7.06 -0.023765
7.07 0.000190334
7.08 0.0252369
7.09 0.0511441
7.1 0.0777534
7.11 0.104907
7.12 0.132438
7.13 0.160174
7.14 0.187934
7.15 0.215515
7.16 0.242749
7.17 0.269479
7.18 0.295559
7.19 0.320858
7.2 0.345259
7.21 0.368563
7.22 0.39075
7.23 0.411785
7.24 0.431624
7.25 0.45024
7.26 0.467617
7.27 0.483717
7.28 0.498472
7.29 0.512002
7.3 0.524324
7.31 0.53545
7.32 0.545393
7.33 0.55416
7.34 0.561655
7.35 0.567924
7.36 0.572989
7.37 0.576824
7.38 0.579395
7.39 0.580657
7.4 0.580539
7.41 0.578863
7.42 0.575708
7.43 0.57102
7.44 0.564747
7.45 0.556842
7.46 0.547269
7.47 0.535882
7.48 0.522708
7.49 0.507835
7.5 0.491288
7.51 0.47311
7.52 0.453366
7.53 0.432128
7.54 0.409369
7.55 0.385375
7.56 0.360287
7.57 0.334262
7.58 0.307465
7.59 0.280077
7.6 0.252268
7.61 0.224259
7.62 0.196263
7.63 0.168468
7.64 0.141057
7.65 0.114207
7.66 0.0880821
7.67 0.0629507
7.68 0.0388687
7.69 0.0159508
7.7 -0.00570115
7.71 -0.0260027
7.72 -0.0448879
7.73 -0.0622372
7.74 -0.0779871
7.75 -0.0922316
7.76 -0.104979
7.77 -0.116254
7.78 -0.126093
7.79 -0.134546
7.8 -0.141548
7.81 -0.14729
7.82 -0.151872
7.83 -0.155378
7.84 -0.157895
7.85 -0.159514
7.86 -0.160296
7.87 -0.16031
7.88 -0.159705
7.89 -0.158559
7.9 -0.156946
7.91 -0.154933
7.92 -0.152581
7.93 -0.149919
7.94 -0.147012
7.95 -0.143902
7.96 -0.140613
7.97 -0.137161
7.98 -0.133556
7.99 -0.129796
8 -0.125868
8.01 -0.121775
8.02 -0.117506
8.03 -0.113048
8.04 -0.108387
8.05 -0.10351
8.06 -0.0983911
8.07 -0.0930328
8.08 -0.087446
8.09 -0.0816393
8.1 -0.0756289
8.11 -0.0694393
8.12 -0.0631019
8.13 -0.0566551
8.14 -0.0501648
8.15 -0.0436898
8.16 -0.0372949
8.17 -0.0310496
8.18 -0.0250261
8.19 -0.0193232
8.2 -0.014018
8.21 -0.00916366
8.22 -0.00482205
8.23 -0.00104718
8.24 0.00211707
8.25 0.00463639
8.26 0.00641862
8.27 0.00753736
8.28 0.00800785
8.29 0.00786071
8.3 0.00714163
8.31 0.00591049
8.32 0.00422032
8.33 0.002168
8.34 -0.000125773
8.35 -0.00256076
8.36 -0.00503415
8.37 -0.00744365
8.38 -0.0096906
8.39 -0.0116462
8.4 -0.0132486
8.41 -0.0144344
8.42 -0.0151539
8.43 -0.015375
8.44 -0.0150845
8.45 -0.0142672
8.46 -0.0129438
8.47 -0.0112014
8.48 -0.00910906
8.49 -0.00675197
8.5 -0.00422892
8.51 -0.00164962
8.52 0.000850389
8.53 0.0031406
8.54 0.00510105
8.55 0.00661471
8.56 0.00757248
8.57 0.00787647
8.58 0.00741539
8.59 0.00607676
8.6 0.00388054
8.61 0.000805107
8.62 -0.00314997
8.63 -0.007964
8.64 -0.0135959
8.65 -0.0200447
8.66 -0.0271775
8.67 -0.0348769
8.68 -0.0430371
8.69 -0.0515452
8.7 -0.0602845
8.71 -0.0691381
8.72 -0.0779784
8.73 -0.0866928
8.74 -0.0951877
8.75 -0.103383
8.76 -0.111213
8.77 -0.118629
8.78 -0.125566
8.79 -0.132026
8.8 -0.138037
8.81 -0.143622
8.82 -0.148819
8.83 -0.153678
8.84 -0.158255
8.85 -0.162605
8.86 -0.166824
8.87 -0.170981
8.88 -0.175142
8.89 -0.179363
8.9 -0.183696
8.91 -0.188191
8.92 -0.192876
8.93 -0.19775
8.94 -0.20281
8.95 -0.208038
8.96 -0.213402
8.97 -0.218859
8.98 -0.224353
8.99 -0.229811
9 -0.235165
9.01 -0.240342
9.02 -0.245273
9.03 -0.249888
9.04 -0.254099
9.05 -0.25784
9.06 -0.261089
9.07 -0.263813
9.08 -0.265989
9.09 -0.26761
9.1 -0.268676
9.11 -0.269148
9.12 -0.269109
9.13 -0.268603
9.14 -0.267675
9.15 -0.266378
9.16 -0.264766
9.17 -0.26289
9.18 -0.260809
9.19 -0.258593
9.2 -0.256294
9.21 -0.253954
9.22 -0.251608
9.23 -0.249287
9.24 -0.247013
9.25 -0.244796
9.26 -0.242635
9.27 -0.240524
9.28 -0.23845
9.29 -0.236398
9.3 -0.234346
9.31 -0.232267
9.32 -0.23014
9.33 -0.227943
9.34 -0.22566
9.35 -0.223277
9.36 -0.220785
9.37 -0.218172
9.38 -0.215448
9.39 -0.212625
9.4 -0.209719
9.41 -0.206748
9.42 -0.203732
9.43 -0.200696
9.44 -0.197664
9.45 -0.19466
9.46 -0.191699
9.47 -0.188795
9.48 -0.185952
9.49 -0.183168
9.5 -0.180434
9.51 -0.177725
9.52 -0.175006
9.53 -0.172238
9.54 -0.16937
9.55 -0.166346
9.56 -0.163101
9.57 -0.159531
9.58 -0.155589
9.59 -0.151207
9.6 -0.146316
9.61 -0.140851
9.62 -0.134754
9.63 -0.127929
9.64 -0.120337
9.65 -0.111987
9.66 -0.102864
9.67 -0.0929663
9.68 -0.082302
9.69 -0.0708932
9.7 -0.0586957
9.71 -0.04584
9.72 -0.032382
9.73 -0.0183834
9.74 -0.00391094
9.75 0.0109652
9.76 0.0261869
9.77 0.0416764
9.78 0.057345
9.79 0.0731293
9.8 0.0889713
9.81 0.104819
9.82 0.120629
9.83 0.13635
9.84 0.151959
9.85 0.167434
9.86 0.182758
9.87 0.197919
9.88 0.212907
9.89 0.227707
9.9 0.242305
9.91 0.256704
9.92 0.270892
9.93 0.284853
9.94 0.298564
9.95 0.311999
9.96 0.325089
9.97 0.33781
9.98 0.350122
9.99 0.361971
10 0.3733
10.01 0.38405
10.02 0.394138
10.03 0.403456
10.04 0.412005
10.05 0.419734
10.06 0.426598
10.07 0.432563
10.08 0.437604
10.09 0.441631
10.1 0.444692
10.11 0.446834
10.12 0.448091
10.13 0.448504
10.14 0.448132
10.15 0.447031
10.16 0.445239
10.17 0.442913
10.18 0.440149
10.19 0.437043
10.2 0.433693
10.21 0.430197
10.22 0.42665
10.23 0.423152
10.24 0.41978
10.25 0.416599
10.26 0.413663
10.27 0.411013
10.28 0.408676
10.29 0.4067
10.3 0.405043
10.31 0.403687
10.32 0.402601
10.33 0.401743
10.34 0.40106
10.35 0.400494
10.36 0.399968
10.37 0.399403
10.38 0.398725
10.39 0.39786
10.4 0.396734
10.41 0.395278
10.42 0.393376
10.43 0.391004
10.44 0.388113
10.45 0.38466
10.46 0.380605
10.47 0.37592
10.48 0.37055
10.49 0.364465
10.5 0.357704
10.51 0.350264
10.52 0.342152
10.53 0.333374
10.54 0.323944
10.55 0.313813
10.56 0.303057
10.57 0.291707
10.58 0.279783
10.59 0.26731
10.6 0.25431
10.61 0.240793
10.62 0.226769
10.63 0.212305
10.64 0.197431
10.65 0.182179
10.66 0.166581
10.67 0.150674
10.68 0.134474
10.69 0.118043
10.7 0.10143
10.71 0.0846788
10.72 0.0678351
10.73 0.0509447
10.74 0.0340552
10.75 0.0172216
10.76 0.000487674
10.77 -0.0161042
10.78 -0.0325145
10.79 -0.0487071
10.8 -0.0646505
10.81 -0.0802938
10.82 -0.0956254
10.83 -0.110642
10.84 -0.125334
10.85 -0.139701
10.86 -0.153745
10.87 -0.16747
10.88 -0.180866
10.89 -0.193984
10.9 -0.206843
10.91 -0.219469
10.92 -0.231884
10.93 -0.244113
10.94 -0.25617
10.95 -0.268079
10.96 -0.279867
10.97 -0.291543
10.98 -0.303116
10.99 -0.314586
11 -0.325949
11.01 -0.337179
11.02 -0.348269
11.03 -0.359196
11.04 -0.369928
11.05 -0.380432
11.06 -0.390668
11.07 -0.400573
11.08 -0.410093
11.09 -0.419202
11.1 -0.42785
11.11 -0.435992
11.12 -0.443581
11.13 -0.450574
11.14 -0.456856
11.15 -0.462453
11.16 -0.467337
11.17 -0.471481
11.18 -0.474861
11.19 -0.477459
11.2 -0.479224
11.21 -0.480128
11.22 -0.480221
11.23 -0.479506
11.24 -0.477985
11.25 -0.475665
11.26 -0.472556
11.27 -0.468595
11.28 -0.463861
11.29 -0.458384
11.3 -0.452183
11.31 -0.445276
11.32 -0.437684
11.33 -0.429405
11.34 -0.420434
11.35 -0.41085
11.36 -0.400676
11.37 -0.389936
11.38 -0.378659
11.39 -0.36687
11.4 -0.354559
11.41 -0.341787
11.42 -0.328599
11.43 -0.315028
11.44 -0.301107
11.45 -0.286871
11.46 -0.272347
11.47 -0.257561
11.48 -0.242573
11.49 -0.227422
11.5 -0.212143
11.51 -0.196774
11.52 -0.181352
11.53 -0.165915
11.54 -0.150504
11.55 -0.135156
11.56 -0.119906
11.57 -0.104789
11.58 -0.0898401
11.59 -0.0750959
11.6 -0.060616
11.61 -0.0464121
11.62 -0.0325175
11.63 -0.0189648
11.64 -0.00578661
11.65 0.00698533
11.66 0.0192888
11.67 0.031096
11.68 0.0424007
11.69 0.0531763
11.7 0.063398
11.71 0.0730437
11.72 0.0820933
11.73 0.0904613
11.74 0.0982063
11.75 0.105323
11.76 0.111811
11.77 0.117676
11.78 0.122928
11.79 0.127552
11.8 0.131569
11.81 0.135045
11.82 0.138012
11.83 0.140508
11.84 0.142573
11.85 0.144251
11.86 0.145552
11.87 0.146562
11.88 0.147324
11.89 0.147881
11.9 0.14827
11.91 0.148522
11.92 0.14866
11.93 0.1487
11.94 0.148661
11.95 0.14854
11.96 0.14833
11.97 0.14801
11.98 0.147554
11.99 0.146904
12 0.14602
12.01 0.144853
12.02 0.143343
12.03 0.141424
12.04 0.139028
12.05 0.136067
12.06 0.132431
12.07 0.128101
12.08 0.123016
12.09 0.117119
12.1 0.110365
12.11 0.102714
12.12 0.0940569
12.13 0.0844282
12.14 0.0738559
12.15 0.0623516
12.16 0.0499404
12.17 0.0366599
12.18 0.0225444
