# xPDFsuite Configuration #
[PDF]
wavelength = 0.1
dataformat = QA
inputfile = BiMsol6_insitu_700 C-00421.xy
backgroundfile = Quartz2mm-dist500-00000.xy
mode = xray
bgscale = 0.0042
composition = Bi2Fe4O9
outputtype = gr
qmaxinst = 24.998449118
qmin = 0.1
qmax = 21.4986662415
rmax = 80.0
rmin = 0.0
rstep = 0.01
rpoly = 0.9

[Misc]
inputdir = C:/Data/Seafile/CPH/Beamtime/Desy Oct 20/In situ data/Processed/BiMsol6/PDF
savedir = C:/Data/Seafile/CPH/Beamtime/Desy Oct 20/In situ data/PDF/BiMsol6
backgroundfilefull = C:/Data/Seafile/CPH/Beamtime/Desy Oct 20/In situ data/Processed/Standard_Empty_Cap/Quartz2mm-dist500-00000.xy

#### start data
#S 1
#L r($\AA$)  G($\AA^{-2}$)
0 0
0.01 0.00729906
0.02 0.0141944
0.03 0.0203401
0.04 0.0254256
0.05 0.0291892
0.06 0.0314304
0.07 0.0319288
0.08 0.030617
0.09 0.0276507
0.1 0.0231567
0.11 0.0173338
0.12 0.0104447
0.13 0.00280406
0.14 -0.0052373
0.15 -0.0132264
0.16 -0.0207822
0.17 -0.0275457
0.18 -0.0331929
0.19 -0.0374502
0.2 -0.0400352
0.21 -0.0407488
0.22 -0.0396865
0.23 -0.0369084
0.24 -0.0325612
0.25 -0.026873
0.26 -0.020145
0.27 -0.0127148
0.28 -0.00509241
0.29 0.00226849
0.3 0.00892613
0.31 0.014457
0.32 0.0184764
0.33 0.0205926
0.34 0.0204177
0.35 0.0179836
0.36 0.0132649
0.37 0.00634862
0.38 -0.00256402
0.39 -0.0131596
0.4 -0.0250812
0.41 -0.0376736
0.42 -0.0502898
0.43 -0.0622722
0.44 -0.0729361
0.45 -0.0815947
0.46 -0.08752
0.47 -0.0897776
0.48 -0.0881322
0.49 -0.082185
0.5 -0.0716649
0.51 -0.0564451
0.52 -0.0365538
0.53 -0.0118819
0.54 0.0170144
0.55 0.0493854
0.56 0.0845367
0.57 0.121649
0.58 0.1598
0.59 0.197983
0.6 0.234922
0.61 0.269576
0.62 0.300916
0.63 0.327973
0.64 0.349871
0.65 0.365853
0.66 0.374878
0.67 0.376506
0.68 0.370896
0.69 0.358036
0.7 0.338109
0.71 0.31149
0.72 0.278736
0.73 0.240045
0.74 0.196996
0.75 0.150611
0.76 0.101973
0.77 0.0522123
0.78 0.00246892
0.79 -0.0460276
0.8 -0.0920368
0.81 -0.134706
0.82 -0.17322
0.83 -0.206908
0.84 -0.235262
0.85 -0.25795
0.86 -0.27422
0.87 -0.284658
0.88 -0.289592
0.89 -0.289426
0.9 -0.284702
0.91 -0.27608
0.92 -0.264221
0.93 -0.249968
0.94 -0.234404
0.95 -0.218373
0.96 -0.202683
0.97 -0.188083
0.98 -0.175237
0.99 -0.164964
1 -0.157576
1.01 -0.153292
1.02 -0.15225
1.03 -0.154456
1.04 -0.159788
1.05 -0.168075
1.06 -0.179068
1.07 -0.192065
1.08 -0.206557
1.09 -0.221998
1.1 -0.237829
1.11 -0.253501
1.12 -0.2684
1.13 -0.282038
1.14 -0.294062
1.15 -0.304175
1.16 -0.312173
1.17 -0.317948
1.18 -0.321452
1.19 -0.322613
1.2 -0.321844
1.21 -0.319407
1.22 -0.315624
1.23 -0.310853
1.24 -0.30548
1.25 -0.299908
1.26 -0.294569
1.27 -0.289809
1.28 -0.285917
1.29 -0.283123
1.3 -0.281588
1.31 -0.281408
1.32 -0.282726
1.33 -0.285304
1.34 -0.288986
1.35 -0.293555
1.36 -0.298746
1.37 -0.304254
1.38 -0.309736
1.39 -0.314809
1.4 -0.319165
1.41 -0.322517
1.42 -0.324625
1.43 -0.325303
1.44 -0.324429
1.45 -0.321776
1.46 -0.317557
1.47 -0.311896
1.48 -0.304983
1.49 -0.297066
1.5 -0.288447
1.51 -0.279469
1.52 -0.270557
1.53 -0.262107
1.54 -0.254486
1.55 -0.248032
1.56 -0.243043
1.57 -0.239759
1.58 -0.238556
1.59 -0.239368
1.6 -0.24216
1.61 -0.24684
1.62 -0.253238
1.63 -0.261103
1.64 -0.270145
1.65 -0.279959
1.66 -0.290029
1.67 -0.299899
1.68 -0.309107
1.69 -0.3172
1.7 -0.323753
1.71 -0.328183
1.72 -0.33026
1.73 -0.329808
1.74 -0.326681
1.75 -0.320822
1.76 -0.312268
1.77 -0.301087
1.78 -0.287382
1.79 -0.271701
1.8 -0.25443
1.81 -0.236005
1.82 -0.216901
1.83 -0.197615
1.84 -0.178706
1.85 -0.160707
1.86 -0.144039
1.87 -0.129089
1.88 -0.116176
1.89 -0.105545
1.9 -0.09739
1.91 -0.091998
1.92 -0.0890695
1.93 -0.0884702
1.94 -0.0899846
1.95 -0.0933253
1.96 -0.0981448
1.97 -0.104093
1.98 -0.110662
1.99 -0.117362
2 -0.123765
2.01 -0.129467
2.02 -0.134104
2.03 -0.137361
2.04 -0.138798
2.05 -0.138432
2.06 -0.136201
2.07 -0.132125
2.08 -0.126311
2.09 -0.118942
2.1 -0.110219
2.11 -0.100515
2.12 -0.0902842
2.13 -0.0799349
2.14 -0.0698924
2.15 -0.0605808
2.16 -0.0524081
2.17 -0.0459536
2.18 -0.0414154
2.19 -0.039037
2.2 -0.0390034
2.21 -0.0414235
2.22 -0.0463258
2.23 -0.0537629
2.24 -0.0636334
2.25 -0.0755417
2.26 -0.0892018
2.27 -0.104276
2.28 -0.120387
2.29 -0.13713
2.3 -0.154071
2.31 -0.170735
2.32 -0.186731
2.33 -0.201705
2.34 -0.21535
2.35 -0.227412
2.36 -0.237637
2.37 -0.245805
2.38 -0.252034
2.39 -0.256362
2.4 -0.258895
2.41 -0.259797
2.42 -0.259288
2.43 -0.257555
2.44 -0.255
2.45 -0.251971
2.46 -0.248793
2.47 -0.245778
2.48 -0.243223
2.49 -0.241416
2.5 -0.240674
2.51 -0.241094
2.52 -0.242789
2.53 -0.245819
2.54 -0.250187
2.55 -0.255844
2.56 -0.262768
2.57 -0.270744
2.58 -0.279531
2.59 -0.288909
2.6 -0.298641
2.61 -0.308479
2.62 -0.318172
2.63 -0.327423
2.64 -0.33604
2.65 -0.34384
2.66 -0.350673
2.67 -0.356426
2.68 -0.361025
2.69 -0.36436
2.7 -0.366458
2.71 -0.367433
2.72 -0.367365
2.73 -0.366361
2.74 -0.364546
2.75 -0.362055
2.76 -0.358983
2.77 -0.355541
2.78 -0.351852
2.79 -0.348023
2.8 -0.344136
2.81 -0.340248
2.82 -0.336391
2.83 -0.332558
2.84 -0.328708
2.85 -0.324778
2.86 -0.32068
2.87 -0.316305
2.88 -0.311535
2.89 -0.30617
2.9 -0.300119
2.91 -0.293266
2.92 -0.2855
2.93 -0.27673
2.94 -0.266886
2.95 -0.255877
2.96 -0.243657
2.97 -0.230332
2.98 -0.215958
2.99 -0.200617
3 -0.184417
3.01 -0.167489
3.02 -0.149939
3.03 -0.131991
3.04 -0.11382
3.05 -0.0955922
3.06 -0.0774624
3.07 -0.0595736
3.08 -0.0420659
3.09 -0.0250771
3.1 -0.00864377
3.11 0.00719265
3.12 0.022419
3.13 0.03705
3.14 0.0511261
3.15 0.0646765
3.16 0.0778232
3.17 0.090682
3.18 0.103361
3.19 0.115969
3.2 0.128612
3.21 0.141391
3.22 0.154411
3.23 0.167713
3.24 0.181329
3.25 0.195264
3.26 0.209493
3.27 0.223965
3.28 0.238604
3.29 0.253281
3.3 0.267856
3.31 0.282177
3.32 0.296083
3.33 0.309404
3.34 0.32196
3.35 0.333479
3.36 0.343895
3.37 0.353078
3.38 0.36092
3.39 0.367341
3.4 0.372292
3.41 0.375664
3.42 0.377494
3.43 0.377924
3.44 0.377046
3.45 0.374982
3.46 0.37188
3.47 0.36791
3.48 0.363204
3.49 0.358059
3.5 0.352684
3.51 0.347283
3.52 0.342056
3.53 0.337192
3.54 0.3329
3.55 0.32936
3.56 0.326661
3.57 0.3249
3.58 0.32415
3.59 0.324455
3.6 0.325834
3.61 0.328392
3.62 0.331993
3.63 0.336573
3.64 0.342062
3.65 0.34838
3.66 0.355436
3.67 0.363158
3.68 0.371454
3.69 0.380182
3.7 0.38925
3.71 0.398573
3.72 0.408076
3.73 0.41769
3.74 0.427356
3.75 0.437015
3.76 0.446625
3.77 0.456152
3.78 0.465565
3.79 0.474838
3.8 0.483938
3.81 0.492823
3.82 0.501475
3.83 0.50986
3.84 0.517934
3.85 0.525648
3.86 0.532946
3.87 0.539716
3.88 0.545899
3.89 0.551433
3.9 0.556232
3.91 0.56021
3.92 0.563276
3.93 0.565322
3.94 0.566163
3.95 0.56582
3.96 0.564219
3.97 0.561298
3.98 0.557003
3.99 0.551292
4 0.544033
4.01 0.535248
4.02 0.525005
4.03 0.51332
4.04 0.500222
4.05 0.485751
4.06 0.469952
4.07 0.452766
4.08 0.434409
4.09 0.414963
4.1 0.394513
4.11 0.373149
4.12 0.350965
4.13 0.32802
4.14 0.304427
4.15 0.280325
4.16 0.25581
4.17 0.230978
4.18 0.205927
4.19 0.180748
4.2 0.155544
4.21 0.130417
4.22 0.105457
4.23 0.0807536
4.24 0.0563914
4.25 0.0324544
4.26 0.00905159
4.27 -0.0137189
4.28 -0.0358219
4.29 -0.0571934
4.3 -0.077776
4.31 -0.0975208
4.32 -0.116388
4.33 -0.134253
4.34 -0.151177
4.35 -0.16717
4.36 -0.182242
4.37 -0.196412
4.38 -0.209715
4.39 -0.222167
4.4 -0.233799
4.41 -0.244745
4.42 -0.255076
4.43 -0.264873
4.44 -0.274215
4.45 -0.283186
4.46 -0.291844
4.47 -0.300292
4.48 -0.308603
4.49 -0.316831
4.5 -0.325022
4.51 -0.333206
4.52 -0.3414
4.53 -0.349604
4.54 -0.357802
4.55 -0.365961
4.56 -0.374039
4.57 -0.381978
4.58 -0.389716
4.59 -0.397153
4.6 -0.404213
4.61 -0.410833
4.62 -0.416937
4.63 -0.422458
4.64 -0.427338
4.65 -0.431515
4.66 -0.434892
4.67 -0.437523
4.68 -0.43941
4.69 -0.440573
4.7 -0.441046
4.71 -0.440883
4.72 -0.440117
4.73 -0.438856
4.74 -0.437221
4.75 -0.435316
4.76 -0.433249
4.77 -0.431128
4.78 -0.429064
4.79 -0.427188
4.8 -0.425585
4.81 -0.424338
4.82 -0.423514
4.83 -0.423168
4.84 -0.423339
4.85 -0.424077
4.86 -0.425386
4.87 -0.427216
4.88 -0.429534
4.89 -0.432295
4.9 -0.435439
4.91 -0.4389
4.92 -0.442619
4.93 -0.446484
4.94 -0.450412
4.95 -0.454322
4.96 -0.458135
4.97 -0.46178
4.98 -0.465176
4.99 -0.46825
5 -0.47097
5.01 -0.473297
5.02 -0.475198
5.03 -0.476647
5.04 -0.477624
5.05 -0.478065
5.06 -0.477995
5.07 -0.477409
5.08 -0.476295
5.09 -0.474634
5.1 -0.472404
5.11 -0.469555
5.12 -0.466016
5.13 -0.461791
5.14 -0.456826
5.15 -0.451063
5.16 -0.444433
5.17 -0.436867
5.18 -0.428191
5.19 -0.41838
5.2 -0.40739
5.21 -0.395147
5.22 -0.381588
5.23 -0.366655
5.24 -0.350267
5.25 -0.33229
5.26 -0.312842
5.27 -0.291925
5.28 -0.269557
5.29 -0.245775
5.3 -0.220631
5.31 -0.194103
5.32 -0.166336
5.33 -0.137485
5.34 -0.107662
5.35 -0.0769911
5.36 -0.0456016
5.37 -0.0136233
5.38 0.0188292
5.39 0.05156
5.4 0.0844332
5.41 0.117316
5.42 0.150081
5.43 0.182607
5.44 0.214745
5.45 0.246378
5.46 0.277423
5.47 0.307783
5.48 0.337368
5.49 0.366087
5.5 0.393854
5.51 0.420454
5.52 0.445915
5.53 0.470147
5.54 0.49306
5.55 0.514561
5.56 0.534553
5.57 0.552842
5.58 0.569299
5.59 0.58392
5.6 0.596603
5.61 0.607249
5.62 0.615761
5.63 0.622051
5.64 0.625786
5.65 0.627122
5.66 0.626033
5.67 0.62249
5.68 0.616482
5.69 0.608021
5.7 0.597036
5.71 0.583526
5.72 0.567754
5.73 0.549827
5.74 0.529874
5.75 0.508044
5.76 0.484501
5.77 0.459297
5.78 0.432764
5.79 0.405132
5.8 0.376606
5.81 0.347391
5.82 0.317687
5.83 0.287687
5.84 0.257596
5.85 0.227604
5.86 0.197868
5.87 0.168528
5.88 0.139709
5.89 0.111517
5.9 0.0841137
5.91 0.0575411
5.92 0.0318354
5.93 0.00704335
5.94 -0.0167978
5.95 -0.039658
5.96 -0.0614897
5.97 -0.0821925
5.98 -0.10184
5.99 -0.120408
6 -0.137869
6.01 -0.154189
6.02 -0.169331
6.03 -0.183156
6.04 -0.195648
6.05 -0.206805
6.06 -0.21657
6.07 -0.224886
6.08 -0.231699
6.09 -0.236939
6.1 -0.240404
6.11 -0.242227
6.12 -0.242388
6.13 -0.24088
6.14 -0.237714
6.15 -0.232916
6.16 -0.226438
6.17 -0.218375
6.18 -0.208902
6.19 -0.198129
6.2 -0.186181
6.21 -0.173199
6.22 -0.159338
6.23 -0.144698
6.24 -0.129547
6.25 -0.11406
6.26 -0.0984076
6.27 -0.0827562
6.28 -0.0672631
6.29 -0.0520969
6.3 -0.03741
6.31 -0.0232887
6.32 -0.00981999
6.33 0.0029306
6.34 0.0149199
6.35 0.0261273
6.36 0.0364743
6.37 0.0460633
6.38 0.0549506
6.39 0.0632006
6.4 0.0708918
6.41 0.0781148
6.42 0.0849579
6.43 0.0915328
6.44 0.0979734
6.45 0.104386
6.46 0.110873
6.47 0.117529
6.48 0.124442
6.49 0.131727
6.5 0.139428
6.51 0.147587
6.52 0.156238
6.53 0.165403
6.54 0.175091
6.55 0.185314
6.56 0.196081
6.57 0.20732
6.58 0.218995
6.59 0.231065
6.6 0.24348
6.61 0.25619
6.62 0.269155
6.63 0.282302
6.64 0.295566
6.65 0.308893
6.66 0.322229
6.67 0.335522
6.68 0.348718
6.69 0.361752
6.7 0.374585
6.71 0.387172
6.72 0.399465
6.73 0.411417
6.74 0.422982
6.75 0.434072
6.76 0.444643
6.77 0.45466
6.78 0.464064
6.79 0.472798
6.8 0.480799
6.81 0.487996
6.82 0.494228
6.83 0.499515
6.84 0.503792
6.85 0.506991
6.86 0.509047
6.87 0.509899
6.88 0.509407
6.89 0.507518
6.9 0.504256
6.91 0.499581
6.92 0.493461
6.93 0.485873
6.94 0.476802
6.95 0.46607
6.96 0.453848
6.97 0.440157
6.98 0.425018
6.99 0.408466
7 0.390541
7.01 0.371229
7.02 0.350577
7.03 0.32874
7.04 0.305791
7.05 0.281809
7.06 0.256879
7.07 0.231091
7.08 0.204471
7.09 0.177196
7.1 0.149379
7.11 0.121124
7.12 0.0925367
7.13 0.0637255
7.14 0.0347986
7.15 0.00587927
7.16 -0.0229174
7.17 -0.0514854
7.18 -0.0797212
7.19 -0.107524
7.2 -0.134796
7.21 -0.161381
7.22 -0.187224
7.23 -0.21226
7.24 -0.23642
7.25 -0.259638
7.26 -0.281859
7.27 -0.303006
7.28 -0.322971
7.29 -0.341824
7.3 -0.359548
7.31 -0.376139
7.32 -0.3916
7.33 -0.405943
7.34 -0.419105
7.35 -0.431168
7.36 -0.442211
7.37 -0.452276
7.38 -0.461413
7.39 -0.469673
7.4 -0.477099
7.41 -0.483689
7.42 -0.489581
7.43 -0.494829
7.44 -0.499485
7.45 -0.503597
7.46 -0.507211
7.47 -0.510336
7.48 -0.513022
7.49 -0.515316
7.5 -0.51724
7.51 -0.518809
7.52 -0.52003
7.53 -0.520907
7.54 -0.521399
7.55 -0.521536
7.56 -0.521304
7.57 -0.520689
7.58 -0.51967
7.59 -0.518226
7.6 -0.516307
7.61 -0.513884
7.62 -0.510961
7.63 -0.507514
7.64 -0.503524
7.65 -0.498969
7.66 -0.493836
7.67 -0.488042
7.68 -0.481645
7.69 -0.474642
7.7 -0.467038
7.71 -0.458839
7.72 -0.45006
7.73 -0.440695
7.74 -0.430763
7.75 -0.420338
7.76 -0.409459
7.77 -0.398176
7.78 -0.38654
7.79 -0.374612
7.8 -0.362442
7.81 -0.350126
7.82 -0.337744
7.83 -0.325375
7.84 -0.313099
7.85 -0.300998
7.86 -0.289168
7.87 -0.277715
7.88 -0.266694
7.89 -0.25618
7.9 -0.24624
7.91 -0.236935
7.92 -0.228319
7.93 -0.220506
7.94 -0.213487
7.95 -0.207266
7.96 -0.201852
7.97 -0.197248
7.98 -0.193442
7.99 -0.190435
8 -0.18824
8.01 -0.186746
8.02 -0.185906
8.03 -0.185665
8.04 -0.185968
8.05 -0.186752
8.06 -0.187985
8.07 -0.189581
8.08 -0.191465
8.09 -0.193582
8.1 -0.195884
8.11 -0.198325
8.12 -0.20087
8.13 -0.203489
8.14 -0.206152
8.15 -0.20884
8.16 -0.211544
8.17 -0.214257
8.18 -0.216975
8.19 -0.219697
8.2 -0.22242
8.21 -0.225141
8.22 -0.227851
8.23 -0.230537
8.24 -0.233178
8.25 -0.235746
8.26 -0.238183
8.27 -0.240448
8.28 -0.242479
8.29 -0.244204
8.3 -0.245541
8.31 -0.2464
8.32 -0.246644
8.33 -0.24615
8.34 -0.244847
8.35 -0.242626
8.36 -0.23938
8.37 -0.235009
8.38 -0.229417
8.39 -0.222369
8.4 -0.213918
8.41 -0.20402
8.42 -0.192634
8.43 -0.179739
8.44 -0.16533
8.45 -0.149354
8.46 -0.131809
8.47 -0.112855
8.48 -0.0925611
8.49 -0.0710073
8.5 -0.0482865
8.51 -0.0245002
8.52 0.000326106
8.53 0.0259915
8.54 0.0523651
8.55 0.0793358
8.56 0.106797
8.57 0.134648
8.58 0.162803
8.59 0.191178
8.6 0.21968
8.61 0.248247
8.62 0.276828
8.63 0.305379
8.64 0.333866
8.65 0.362249
8.66 0.390503
8.67 0.418608
8.68 0.446538
8.69 0.474264
8.7 0.501751
8.71 0.528947
8.72 0.555768
8.73 0.582174
8.74 0.608086
8.75 0.633411
8.76 0.658046
8.77 0.681874
8.78 0.704688
8.79 0.726367
8.8 0.746805
8.81 0.765857
8.82 0.783376
8.83 0.799217
8.84 0.813216
8.85 0.825047
8.86 0.834784
8.87 0.842326
8.88 0.847585
8.89 0.85049
8.9 0.850992
8.91 0.848898
8.92 0.84423
8.93 0.837126
8.94 0.827616
8.95 0.815743
8.96 0.801569
8.97 0.785164
8.98 0.766372
8.99 0.745542
9 0.72277
9.01 0.698154
9.02 0.671794
9.03 0.643787
9.04 0.614152
9.05 0.58298
9.06 0.550458
9.07 0.516671
9.08 0.481701
9.09 0.445631
9.1 0.408543
9.11 0.370429
9.12 0.331478
9.13 0.291795
9.14 0.251485
9.15 0.210661
9.16 0.169451
9.17 0.12799
9.18 0.0864526
9.19 0.0450262
9.2 0.00389553
9.21 -0.0367424
9.22 -0.0766797
9.23 -0.1157
9.24 -0.15345
9.25 -0.189765
9.26 -0.224445
9.27 -0.257274
9.28 -0.288045
9.29 -0.316563
9.3 -0.342571
9.31 -0.365756
9.32 -0.386205
9.33 -0.40382
9.34 -0.418533
9.35 -0.430306
9.36 -0.439133
9.37 -0.444791
9.38 -0.447497
9.39 -0.44743
9.4 -0.4447
9.41 -0.439435
9.42 -0.431782
9.43 -0.421856
9.44 -0.409693
9.45 -0.395675
9.46 -0.379975
9.47 -0.362761
9.48 -0.344191
9.49 -0.324415
9.5 -0.3035
9.51 -0.281614
9.52 -0.258905
9.53 -0.23546
9.54 -0.21135
9.55 -0.186636
9.56 -0.161359
9.57 -0.135512
9.58 -0.109185
9.59 -0.0824084
9.6 -0.0552122
9.61 -0.0276318
9.62 0.000290518
9.63 0.0285165
9.64 0.0569677
9.65 0.0855465
9.66 0.114156
9.67 0.142683
9.68 0.171002
9.69 0.19897
9.7 0.22636
9.71 0.25305
9.72 0.27887
9.73 0.30365
9.74 0.32722
9.75 0.349415
9.76 0.369995
9.77 0.388775
9.78 0.405736
9.79 0.42078
9.8 0.43383
9.81 0.444834
9.82 0.453767
9.83 0.460414
9.84 0.464999
9.85 0.467607
9.86 0.468316
9.87 0.467226
9.88 0.464455
9.89 0.460075
9.9 0.454196
9.91 0.447081
9.92 0.438878
9.93 0.42973
9.94 0.419775
9.95 0.409141
9.96 0.397899
9.97 0.3862
9.98 0.374135
9.99 0.361769
10 0.349147
10.01 0.3363
10.02 0.323236
10.03 0.309942
10.04 0.296425
10.05 0.282663
10.06 0.268633
10.07 0.254307
10.08 0.239659
10.09 0.224636
10.1 0.20924
10.11 0.193477
10.12 0.177355
10.13 0.160893
10.14 0.144121
10.15 0.127083
10.16 0.109828
10.17 0.0924523
10.18 0.0750392
10.19 0.057678
10.2 0.0404639
10.21 0.023495
10.22 0.00690089
10.23 -0.00921859
10.24 -0.0247916
10.25 -0.0397383
10.26 -0.0539898
10.27 -0.0674897
10.28 -0.0801902
10.29 -0.0919783
10.3 -0.102935
10.31 -0.11307
10.32 -0.122408
10.33 -0.130985
10.34 -0.138855
10.35 -0.146044
10.36 -0.152638
10.37 -0.158754
10.38 -0.164475
10.39 -0.169887
10.4 -0.175073
10.41 -0.180115
10.42 -0.185091
10.43 -0.190081
10.44 -0.195147
10.45 -0.200337
10.46 -0.205694
10.47 -0.211247
10.48 -0.217027
10.49 -0.223052
10.5 -0.229306
10.51 -0.235781
10.52 -0.242466
10.53 -0.249341
10.54 -0.256387
10.55 -0.26359
10.56 -0.270912
10.57 -0.278327
10.58 -0.285814
10.59 -0.293352
10.6 -0.300924
10.61 -0.30852
10.62 -0.316127
10.63 -0.323739
10.64 -0.331352
10.65 -0.338966
10.66 -0.346582
10.67 -0.354202
10.68 -0.361827
10.69 -0.369459
10.7 -0.377096
10.71 -0.384736
10.72 -0.392373
10.73 -0.399999
10.74 -0.407601
10.75 -0.415159
10.76 -0.422657
10.77 -0.430074
10.78 -0.437389
10.79 -0.444576
10.8 -0.451613
10.81 -0.458458
10.82 -0.465094
10.83 -0.471506
10.84 -0.477678
10.85 -0.483595
10.86 -0.489244
10.87 -0.494615
10.88 -0.49968
10.89 -0.504467
10.9 -0.50898
10.91 -0.513225
10.92 -0.517211
10.93 -0.520945
10.94 -0.524419
10.95 -0.527647
10.96 -0.530645
10.97 -0.533413
10.98 -0.535947
10.99 -0.538238
11 -0.540272
11.01 -0.541994
11.02 -0.543406
11.03 -0.544474
11.04 -0.545157
11.05 -0.545411
11.06 -0.545188
11.07 -0.544402
11.08 -0.542991
11.09 -0.540934
11.1 -0.538179
11.11 -0.534677
11.12 -0.530385
11.13 -0.525267
11.14 -0.519193
11.15 -0.512233
11.16 -0.504382
11.17 -0.495642
11.18 -0.486025
11.19 -0.475554
11.2 -0.464225
11.21 -0.452072
11.22 -0.439206
11.23 -0.42569
11.24 -0.411592
11.25 -0.396988
11.26 -0.381953
11.27 -0.366539
11.28 -0.350862
11.29 -0.335002
11.3 -0.31903
11.31 -0.303011
11.32 -0.287004
11.33 -0.271062
11.34 -0.255234
11.35 -0.239543
11.36 -0.224006
11.37 -0.20863
11.38 -0.193413
11.39 -0.178341
11.4 -0.163403
11.41 -0.148556
11.42 -0.133759
11.43 -0.11897
11.44 -0.104141
11.45 -0.0892247
11.46 -0.0741653
11.47 -0.0588949
11.48 -0.0433803
11.49 -0.0275783
11.5 -0.0114501
11.51 0.00503757
11.52 0.021912
11.53 0.0392262
11.54 0.056979
11.55 0.0751582
11.56 0.0937608
11.57 0.112777
11.58 0.132189
11.59 0.15198
11.6 0.172148
11.61 0.19262
11.62 0.213357
11.63 0.234316
11.64 0.255453
11.65 0.276721
11.66 0.298072
11.67 0.319449
11.68 0.340797
11.69 0.362066
11.7 0.383206
11.71 0.404166
11.72 0.424898
11.73 0.445313
11.74 0.465391
11.75 0.485081
11.76 0.504336
11.77 0.523105
11.78 0.541338
11.79 0.558948
11.8 0.575871
11.81 0.592089
11.82 0.607548
11.83 0.622191
11.84 0.635961
11.85 0.6488
11.86 0.660536
11.87 0.671201
11.88 0.680746
11.89 0.689113
11.9 0.696244
11.91 0.702085
11.92 0.706522
11.93 0.70946
11.94 0.710955
11.95 0.710968
11.96 0.709467
11.97 0.706426
11.98 0.701826
11.99 0.695503
12 0.687576
12.01 0.678082
12.02 0.66704
12.03 0.654473
12.04 0.640415
12.05 0.624864
12.06 0.607807
12.07 0.589429
12.08 0.569799
12.09 0.548995
12.1 0.527104
12.11 0.504215
12.12 0.480359
12.13 0.4557
12.14 0.430374
12.15 0.404493
12.16 0.37817
12.17 0.351521
12.18 0.324661
12.19 0.297716
12.2 0.270819
12.21 0.244086
12.22 0.217629
12.23 0.191558
12.24 0.16598
12.25 0.141048
12.26 0.116854
12.27 0.0934625
12.28 0.070959
12.29 0.0494219
