# xPDFsuite Configuration #
[PDF]
wavelength = 0.1
dataformat = QA
inputfile = BiMsol6_insitu_700 C-00677.xy
backgroundfile = Quartz2mm-dist500-00000.xy
mode = xray
bgscale = 0.0042
composition = Bi2Fe4O9
outputtype = gr
qmaxinst = 24.998449118
qmin = 0.1
qmax = 21.4986662415
rmax = 80.0
rmin = 0.0
rstep = 0.01
rpoly = 0.9

[Misc]
inputdir = C:/Data/Seafile/CPH/Beamtime/Desy Oct 20/In situ data/Processed/BiMsol6/PDF
savedir = C:/Data/Seafile/CPH/Beamtime/Desy Oct 20/In situ data/PDF/BiMsol6
backgroundfilefull = C:/Data/Seafile/CPH/Beamtime/Desy Oct 20/In situ data/Processed/Standard_Empty_Cap/Quartz2mm-dist500-00000.xy

#### start data
#S 1
#L r($\AA$)  G($\AA^{-2}$)
0 0
0.01 0.00533921
0.02 0.0103696
0.03 0.014827
0.04 0.0184747
0.05 0.0211144
0.06 0.0225955
0.07 0.022754
0.08 0.0215442
0.09 0.0190907
0.1 0.0154969
0.11 0.0109219
0.12 0.00557338
0.13 -0.000301663
0.14 -0.00642372
0.15 -0.0124477
0.16 -0.0180819
0.17 -0.0230533
0.18 -0.0271186
0.19 -0.0300762
0.2 -0.0317201
0.21 -0.0319138
0.22 -0.03075
0.23 -0.0282947
0.24 -0.0246815
0.25 -0.0201074
0.26 -0.0148255
0.27 -0.0091276
0.28 -0.00341761
0.29 0.00194437
0.3 0.00660907
0.31 0.0102465
0.32 0.0125625
0.33 0.0132598
0.34 0.0120506
0.35 0.0089968
0.36 0.00410987
0.37 -0.00250561
0.38 -0.0106512
0.39 -0.0200374
0.4 -0.0303239
0.41 -0.04095
0.42 -0.0513665
0.43 -0.0610139
0.44 -0.0693147
0.45 -0.0756948
0.46 -0.0795465
0.47 -0.0800834
0.48 -0.0771481
0.49 -0.0704281
0.5 -0.0597215
0.51 -0.0449503
0.52 -0.0261694
0.53 -0.00331855
0.54 0.0230946
0.55 0.0524036
0.56 0.0839905
0.57 0.117133
0.58 0.151024
0.59 0.184782
0.6 0.217285
0.61 0.247649
0.62 0.274983
0.63 0.298451
0.64 0.317296
0.65 0.330866
0.66 0.338253
0.67 0.339074
0.68 0.333477
0.69 0.321447
0.7 0.303139
0.71 0.278874
0.72 0.249128
0.73 0.214049
0.74 0.175017
0.75 0.132915
0.76 0.088684
0.77 0.0433044
0.78 -0.00222838
0.79 -0.0468436
0.8 -0.0894477
0.81 -0.129267
0.82 -0.165564
0.83 -0.197723
0.84 -0.225261
0.85 -0.247846
0.86 -0.26476
0.87 -0.276465
0.88 -0.283191
0.89 -0.285237
0.9 -0.283024
0.91 -0.277077
0.92 -0.267913
0.93 -0.256211
0.94 -0.242919
0.95 -0.228759
0.96 -0.214431
0.97 -0.200595
0.98 -0.187853
0.99 -0.176917
1 -0.16814
1.01 -0.161779
1.02 -0.158025
1.03 -0.156957
1.04 -0.158551
1.05 -0.162744
1.06 -0.169423
1.07 -0.178054
1.08 -0.188272
1.09 -0.199671
1.1 -0.211825
1.11 -0.224303
1.12 -0.236648
1.13 -0.248433
1.14 -0.259334
1.15 -0.269075
1.16 -0.277449
1.17 -0.284315
1.18 -0.289579
1.19 -0.29312
1.2 -0.295179
1.21 -0.295896
1.22 -0.295456
1.23 -0.294078
1.24 -0.292007
1.25 -0.289479
1.26 -0.286791
1.27 -0.284187
1.28 -0.281867
1.29 -0.279992
1.3 -0.27868
1.31 -0.278004
1.32 -0.278044
1.33 -0.278686
1.34 -0.279838
1.35 -0.28137
1.36 -0.283121
1.37 -0.284906
1.38 -0.286505
1.39 -0.287691
1.4 -0.288291
1.41 -0.288142
1.42 -0.287115
1.43 -0.285118
1.44 -0.282108
1.45 -0.277979
1.46 -0.272911
1.47 -0.267024
1.48 -0.260481
1.49 -0.253484
1.5 -0.246263
1.51 -0.239087
1.52 -0.232266
1.53 -0.226057
1.54 -0.220705
1.55 -0.216428
1.56 -0.21341
1.57 -0.211784
1.58 -0.211785
1.59 -0.213301
1.6 -0.216255
1.61 -0.220528
1.62 -0.225945
1.63 -0.232276
1.64 -0.239258
1.65 -0.246542
1.66 -0.253738
1.67 -0.260491
1.68 -0.266451
1.69 -0.271282
1.7 -0.274677
1.71 -0.276195
1.72 -0.27571
1.73 -0.27313
1.74 -0.268379
1.75 -0.261454
1.76 -0.252418
1.77 -0.241361
1.78 -0.228397
1.79 -0.21397
1.8 -0.198394
1.81 -0.182014
1.82 -0.165195
1.83 -0.148311
1.84 -0.131784
1.85 -0.115994
1.86 -0.101233
1.87 -0.0877654
1.88 -0.0758009
1.89 -0.0654888
1.9 -0.0569402
1.91 -0.0503222
1.92 -0.045392
1.93 -0.0420257
1.94 -0.040046
1.95 -0.0392304
1.96 -0.0393217
1.97 -0.0400612
1.98 -0.0411034
1.99 -0.0421336
2 -0.0428842
2.01 -0.0431179
2.02 -0.042638
2.03 -0.0412936
2.04 -0.0388855
2.05 -0.0355018
2.06 -0.031193
2.07 -0.0260714
2.08 -0.0203074
2.09 -0.0141238
2.1 -0.00779664
2.11 -0.00167811
2.12 0.00389758
2.13 0.00859644
2.14 0.0120909
2.15 0.0140727
2.16 0.0142648
2.17 0.0121908
2.18 0.00786884
2.19 0.00121033
2.2 -0.00782151
2.21 -0.0191939
2.22 -0.0328045
2.23 -0.0485662
2.24 -0.0662517
2.25 -0.0854131
2.26 -0.105705
2.27 -0.126749
2.28 -0.148146
2.29 -0.16949
2.3 -0.190295
2.31 -0.210175
2.32 -0.228796
2.33 -0.245857
2.34 -0.261109
2.35 -0.274363
2.36 -0.285417
2.37 -0.294107
2.38 -0.300637
2.39 -0.305093
2.4 -0.307624
2.41 -0.308427
2.42 -0.307747
2.43 -0.305779
2.44 -0.302934
2.45 -0.29956
2.46 -0.295968
2.47 -0.292457
2.48 -0.289302
2.49 -0.286769
2.5 -0.285141
2.51 -0.284507
2.52 -0.284967
2.53 -0.286572
2.54 -0.28932
2.55 -0.293165
2.56 -0.298082
2.57 -0.303883
2.58 -0.310358
2.59 -0.317318
2.6 -0.324559
2.61 -0.331873
2.62 -0.339048
2.63 -0.345838
2.64 -0.352088
2.65 -0.357652
2.66 -0.362413
2.67 -0.366287
2.68 -0.369222
2.69 -0.371142
2.7 -0.372083
2.71 -0.372148
2.72 -0.37142
2.73 -0.369997
2.74 -0.367997
2.75 -0.365546
2.76 -0.36275
2.77 -0.359786
2.78 -0.356771
2.79 -0.353809
2.8 -0.350988
2.81 -0.348374
2.82 -0.346029
2.83 -0.343979
2.84 -0.342204
2.85 -0.34068
2.86 -0.339365
2.87 -0.338203
2.88 -0.337128
2.89 -0.336059
2.9 -0.33491
2.91 -0.333606
2.92 -0.332077
2.93 -0.330264
2.94 -0.328114
2.95 -0.325574
2.96 -0.322602
2.97 -0.319218
2.98 -0.315422
2.99 -0.311225
3 -0.306643
3.01 -0.301696
3.02 -0.29637
3.03 -0.290705
3.04 -0.284714
3.05 -0.278387
3.06 -0.2717
3.07 -0.264613
3.08 -0.257049
3.09 -0.248888
3.1 -0.24007
3.11 -0.230476
3.12 -0.219978
3.13 -0.208435
3.14 -0.195704
3.15 -0.181516
3.16 -0.165788
3.17 -0.148443
3.18 -0.129381
3.19 -0.108525
3.2 -0.0858317
3.21 -0.0612528
3.22 -0.0346892
3.23 -0.00640044
3.24 0.0234893
3.25 0.0548136
3.26 0.0873659
3.27 0.120902
3.28 0.155172
3.29 0.189804
3.3 0.224434
3.31 0.258719
3.32 0.292307
3.33 0.324852
3.34 0.355998
3.35 0.385225
3.36 0.412401
3.37 0.437273
3.38 0.459628
3.39 0.479292
3.4 0.496137
3.41 0.5099
3.42 0.520571
3.43 0.528334
3.44 0.533253
3.45 0.535433
3.46 0.535014
3.47 0.532163
3.48 0.526835
3.49 0.519516
3.5 0.510428
3.51 0.499795
3.52 0.487836
3.53 0.474762
3.54 0.460736
3.55 0.445957
3.56 0.430642
3.57 0.414931
3.58 0.398944
3.59 0.38278
3.6 0.366519
3.61 0.350229
3.62 0.333966
3.63 0.317768
3.64 0.301668
3.65 0.285696
3.66 0.269882
3.67 0.254273
3.68 0.238927
3.69 0.223884
3.7 0.20921
3.71 0.194985
3.72 0.1813
3.73 0.168257
3.74 0.156052
3.75 0.144768
3.76 0.134514
3.77 0.125417
3.78 0.117606
3.79 0.111199
3.8 0.106358
3.81 0.103287
3.82 0.10193
3.83 0.102346
3.84 0.104575
3.85 0.108633
3.86 0.114511
3.87 0.122322
3.88 0.131916
3.89 0.143149
3.9 0.155918
3.91 0.170104
3.92 0.185574
3.93 0.2022
3.94 0.219885
3.95 0.238359
3.96 0.257459
3.97 0.277025
3.98 0.296899
3.99 0.31693
4 0.336968
4.01 0.356861
4.02 0.37649
4.03 0.395746
4.04 0.414532
4.05 0.432759
4.06 0.450344
4.07 0.467139
4.08 0.483152
4.09 0.49833
4.1 0.512619
4.11 0.525972
4.12 0.538339
4.13 0.549609
4.14 0.559729
4.15 0.568708
4.16 0.576498
4.17 0.583045
4.18 0.5883
4.19 0.59221
4.2 0.594563
4.21 0.59546
4.22 0.594864
4.23 0.592738
4.24 0.589051
4.25 0.583781
4.26 0.576834
4.27 0.568179
4.28 0.557931
4.29 0.546111
4.3 0.532748
4.31 0.517884
4.32 0.501568
4.33 0.483727
4.34 0.464557
4.35 0.444159
4.36 0.422614
4.37 0.400013
4.38 0.376447
4.39 0.351981
4.4 0.326694
4.41 0.300751
4.42 0.274246
4.43 0.247277
4.44 0.219936
4.45 0.192317
4.46 0.164501
4.47 0.1366
4.48 0.108705
4.49 0.0809019
4.5 0.0532748
4.51 0.0259067
4.52 -0.00110887
4.53 -0.0276539
4.54 -0.0536814
4.55 -0.0791138
4.56 -0.103876
4.57 -0.127895
4.58 -0.151103
4.59 -0.17336
4.6 -0.194636
4.61 -0.214915
4.62 -0.234152
4.63 -0.252313
4.64 -0.269371
4.65 -0.285294
4.66 -0.29998
4.67 -0.313551
4.68 -0.326027
4.69 -0.337436
4.7 -0.347818
4.71 -0.357222
4.72 -0.365644
4.73 -0.373177
4.74 -0.379935
4.75 -0.38599
4.76 -0.391417
4.77 -0.39629
4.78 -0.400679
4.79 -0.404617
4.8 -0.40822
4.81 -0.411545
4.82 -0.414641
4.83 -0.417551
4.84 -0.420309
4.85 -0.422935
4.86 -0.425447
4.87 -0.427862
4.88 -0.430181
4.89 -0.4324
4.9 -0.434508
4.91 -0.436494
4.92 -0.438323
4.93 -0.439989
4.94 -0.441473
4.95 -0.442758
4.96 -0.443824
4.97 -0.444653
4.98 -0.445217
4.99 -0.445493
5 -0.445486
5.01 -0.445183
5.02 -0.444574
5.03 -0.443645
5.04 -0.442386
5.05 -0.440747
5.06 -0.438739
5.07 -0.436352
5.08 -0.433565
5.09 -0.430359
5.1 -0.426711
5.11 -0.422577
5.12 -0.41791
5.13 -0.412722
5.14 -0.406994
5.15 -0.400706
5.16 -0.393846
5.17 -0.386406
5.18 -0.378337
5.19 -0.369686
5.2 -0.360493
5.21 -0.35079
5.22 -0.340624
5.23 -0.330052
5.24 -0.319135
5.25 -0.307949
5.26 -0.296613
5.27 -0.285229
5.28 -0.2739
5.29 -0.262735
5.3 -0.251845
5.31 -0.241375
5.32 -0.231426
5.33 -0.222078
5.34 -0.213413
5.35 -0.205503
5.36 -0.198404
5.37 -0.192166
5.38 -0.186893
5.39 -0.182494
5.4 -0.178952
5.41 -0.176229
5.42 -0.174274
5.43 -0.173022
5.44 -0.172428
5.45 -0.172381
5.46 -0.172754
5.47 -0.173447
5.48 -0.174361
5.49 -0.175402
5.5 -0.176478
5.51 -0.177495
5.52 -0.178382
5.53 -0.179085
5.54 -0.179562
5.55 -0.179784
5.56 -0.179737
5.57 -0.179404
5.58 -0.178796
5.59 -0.17795
5.6 -0.176892
5.61 -0.175654
5.62 -0.174265
5.63 -0.172756
5.64 -0.17114
5.65 -0.169443
5.66 -0.16767
5.67 -0.16581
5.68 -0.163841
5.69 -0.161726
5.7 -0.159403
5.71 -0.156789
5.72 -0.153822
5.73 -0.150414
5.74 -0.146474
5.75 -0.141904
5.76 -0.136611
5.77 -0.130418
5.78 -0.123298
5.79 -0.115202
5.8 -0.106081
5.81 -0.0959064
5.82 -0.084669
5.83 -0.0723519
5.84 -0.0589531
5.85 -0.0446319
5.86 -0.0294837
5.87 -0.0136261
5.88 0.00280435
5.89 0.0196545
5.9 0.0367652
5.91 0.0539266
5.92 0.0709545
5.93 0.0876748
5.94 0.103921
5.95 0.11954
5.96 0.134375
5.97 0.148232
5.98 0.161102
5.99 0.172923
6 0.183665
6.01 0.193325
6.02 0.201925
6.03 0.209446
6.04 0.216007
6.05 0.221748
6.06 0.226781
6.07 0.231229
6.08 0.23522
6.09 0.23888
6.1 0.242326
6.11 0.245699
6.12 0.249095
6.13 0.252585
6.14 0.256222
6.15 0.260031
6.16 0.264023
6.17 0.268159
6.18 0.27237
6.19 0.276572
6.2 0.280659
6.21 0.284507
6.22 0.28798
6.23 0.290852
6.24 0.293019
6.25 0.294332
6.26 0.294652
6.27 0.293851
6.28 0.291817
6.29 0.28839
6.3 0.283482
6.31 0.277149
6.32 0.26939
6.33 0.260234
6.34 0.249738
6.35 0.237986
6.36 0.224979
6.37 0.210974
6.38 0.196135
6.39 0.180629
6.4 0.164625
6.41 0.148299
6.42 0.131823
6.43 0.115383
6.44 0.0991357
6.45 0.0832119
6.46 0.0677219
6.47 0.0527533
6.48 0.0383694
6.49 0.0246684
6.5 0.0116153
6.51 -0.000821927
6.52 -0.0126828
6.53 -0.0240261
6.54 -0.034927
6.55 -0.0454651
6.56 -0.0557357
6.57 -0.0658685
6.58 -0.0759626
6.59 -0.086112
6.6 -0.0964013
6.61 -0.106903
6.62 -0.117698
6.63 -0.128815
6.64 -0.140258
6.65 -0.152019
6.66 -0.164069
6.67 -0.176362
6.68 -0.18883
6.69 -0.201384
6.7 -0.213903
6.71 -0.226273
6.72 -0.238371
6.73 -0.250068
6.74 -0.261233
6.75 -0.27168
6.76 -0.281286
6.77 -0.289966
6.78 -0.297614
6.79 -0.304137
6.8 -0.309457
6.81 -0.313496
6.82 -0.316067
6.83 -0.317281
6.84 -0.317119
6.85 -0.31558
6.86 -0.312672
6.87 -0.308415
6.88 -0.302759
6.89 -0.295755
6.9 -0.287518
6.91 -0.278093
6.92 -0.267528
6.93 -0.255867
6.94 -0.243157
6.95 -0.229328
6.96 -0.214536
6.97 -0.198816
6.98 -0.182201
6.99 -0.164716
7 -0.146386
7.01 -0.127192
7.02 -0.107144
7.03 -0.0863178
7.04 -0.0647334
7.05 -0.0424144
7.06 -0.0193873
7.07 0.00431701
7.08 0.0287241
7.09 0.0537286
7.1 0.0792708
7.11 0.105293
7.12 0.131729
7.13 0.158506
7.14 0.185552
7.15 0.212772
7.16 0.240052
7.17 0.267293
7.18 0.29439
7.19 0.321236
7.2 0.347718
7.21 0.373671
7.22 0.399001
7.23 0.423607
7.24 0.447379
7.25 0.470208
7.26 0.491989
7.27 0.512587
7.28 0.531818
7.29 0.549695
7.3 0.566135
7.31 0.581062
7.32 0.594405
7.33 0.606101
7.34 0.615952
7.35 0.623982
7.36 0.630214
7.37 0.634618
7.38 0.637172
7.39 0.637862
7.4 0.636652
7.41 0.633391
7.42 0.62828
7.43 0.621341
7.44 0.612605
7.45 0.602112
7.46 0.589908
7.47 0.575937
7.48 0.56031
7.49 0.543178
7.5 0.52462
7.51 0.504722
7.52 0.483575
7.53 0.461274
7.54 0.437823
7.55 0.413458
7.56 0.388293
7.57 0.362446
7.58 0.336036
7.59 0.309189
7.6 0.282017
7.61 0.254668
7.62 0.227286
7.63 0.2
7.64 0.172935
7.65 0.146218
7.66 0.119971
7.67 0.0943941
7.68 0.0695516
7.69 0.0455508
7.7 0.0224965
7.71 0.000486841
7.72 -0.0203877
7.73 -0.0399836
7.74 -0.0581914
7.75 -0.0750375
7.76 -0.0904745
7.77 -0.104467
7.78 -0.116993
7.79 -0.128042
7.8 -0.137472
7.81 -0.145429
7.82 -0.15197
7.83 -0.157142
7.84 -0.161004
7.85 -0.163624
7.86 -0.165041
7.87 -0.165308
7.88 -0.164613
7.89 -0.163054
7.9 -0.160732
7.91 -0.157749
7.92 -0.154205
7.93 -0.150162
7.94 -0.145751
7.95 -0.141067
7.96 -0.136182
7.97 -0.13116
7.98 -0.126055
7.99 -0.120909
8 -0.115755
8.01 -0.110617
8.02 -0.105501
8.03 -0.100408
8.04 -0.0953313
8.05 -0.0902583
8.06 -0.0851698
8.07 -0.0800454
8.08 -0.0748677
8.09 -0.0696208
8.1 -0.0642932
8.11 -0.058879
8.12 -0.0533781
8.13 -0.0477948
8.14 -0.0421577
8.15 -0.0364955
8.16 -0.0308453
8.17 -0.0252519
8.18 -0.0197668
8.19 -0.0144621
8.2 -0.00940432
8.21 -0.00464652
8.22 -0.000249131
8.23 0.00373097
8.24 0.00724264
8.25 0.0102407
8.26 0.0126289
8.27 0.0144475
8.28 0.0156908
8.29 0.0163665
8.3 0.0164965
8.31 0.016116
8.32 0.0152508
8.33 0.0139699
8.34 0.0123731
8.35 0.0105395
8.36 0.00855285
8.37 0.00649879
8.38 0.00446169
8.39 0.00254065
8.4 0.000804595
8.41 -0.000686935
8.42 -0.00188641
8.43 -0.00276106
8.44 -0.00329431
8.45 -0.00347222
8.46 -0.00330968
8.47 -0.00287124
8.48 -0.00221312
8.49 -0.00140601
8.5 -0.000532922
8.51 0.000313289
8.52 0.00101013
8.53 0.00145259
8.54 0.00154032
8.55 0.0011746
8.56 0.000264181
8.57 -0.00127162
8.58 -0.00352582
8.59 -0.00659118
8.6 -0.0104386
8.61 -0.0150786
8.62 -0.0205024
8.63 -0.0266823
8.64 -0.0335726
8.65 -0.0411607
8.66 -0.049321
8.67 -0.057943
8.68 -0.0669272
8.69 -0.0761695
8.7 -0.0855642
8.71 -0.0950064
8.72 -0.104382
8.73 -0.113601
8.74 -0.122587
8.75 -0.131279
8.76 -0.139629
8.77 -0.147606
8.78 -0.155166
8.79 -0.162328
8.8 -0.169126
8.81 -0.175595
8.82 -0.181778
8.83 -0.187727
8.84 -0.193498
8.85 -0.199147
8.86 -0.204749
8.87 -0.210357
8.88 -0.216016
8.89 -0.22176
8.9 -0.227612
8.91 -0.233589
8.92 -0.23968
8.93 -0.245854
8.94 -0.252071
8.95 -0.258278
8.96 -0.264411
8.97 -0.270393
8.98 -0.276106
8.99 -0.281483
9 -0.286435
9.01 -0.290879
9.02 -0.294735
9.03 -0.297935
9.04 -0.30038
9.05 -0.302013
9.06 -0.302859
9.07 -0.30291
9.08 -0.302179
9.09 -0.300694
9.1 -0.298502
9.11 -0.295603
9.12 -0.292145
9.13 -0.288224
9.14 -0.283936
9.15 -0.279383
9.16 -0.274666
9.17 -0.269888
9.18 -0.265159
9.19 -0.260568
9.2 -0.256187
9.21 -0.252078
9.22 -0.248288
9.23 -0.244847
9.24 -0.241804
9.25 -0.23913
9.26 -0.236795
9.27 -0.234769
9.28 -0.233006
9.29 -0.231455
9.3 -0.230057
9.31 -0.228747
9.32 -0.227448
9.33 -0.2261
9.34 -0.224646
9.35 -0.223036
9.36 -0.221232
9.37 -0.219181
9.38 -0.216878
9.39 -0.214326
9.4 -0.211533
9.41 -0.208515
9.42 -0.205302
9.43 -0.201924
9.44 -0.198419
9.45 -0.194847
9.46 -0.19125
9.47 -0.187671
9.48 -0.184148
9.49 -0.18071
9.5 -0.177389
9.51 -0.174192
9.52 -0.171111
9.53 -0.168129
9.54 -0.165219
9.55 -0.16234
9.56 -0.159439
9.57 -0.156437
9.58 -0.153266
9.59 -0.149848
9.6 -0.146102
9.61 -0.141946
9.62 -0.137299
9.63 -0.132046
9.64 -0.12611
9.65 -0.119465
9.66 -0.112061
9.67 -0.103862
9.68 -0.094843
9.69 -0.0849936
9.7 -0.0742221
9.71 -0.062642
9.72 -0.0502851
9.73 -0.0371925
9.74 -0.0234146
9.75 -0.00900909
9.76 0.00598568
9.77 0.0214987
9.78 0.0374239
9.79 0.0536915
9.8 0.0702335
9.81 0.0869844
9.82 0.103883
9.83 0.120875
9.84 0.137896
9.85 0.154898
9.86 0.171839
9.87 0.18868
9.88 0.205387
9.89 0.221918
9.9 0.238228
9.91 0.254297
9.92 0.270092
9.93 0.285577
9.94 0.300711
9.95 0.315454
9.96 0.329713
9.97 0.343464
9.98 0.356666
9.99 0.369264
10 0.381205
10.01 0.392436
10.02 0.402881
10.03 0.412441
10.04 0.421144
10.05 0.428957
10.06 0.435859
10.07 0.441838
10.08 0.446892
10.09 0.450961
10.1 0.454117
10.11 0.456431
10.12 0.457956
10.13 0.458754
10.14 0.458897
10.15 0.458455
10.16 0.457486
10.17 0.456134
10.18 0.45449
10.19 0.452641
10.2 0.450671
10.21 0.448656
10.22 0.446672
10.23 0.444783
10.24 0.443029
10.25 0.441441
10.26 0.440035
10.27 0.438815
10.28 0.437772
10.29 0.436896
10.3 0.436134
10.31 0.43544
10.32 0.434765
10.33 0.434053
10.34 0.433246
10.35 0.432271
10.36 0.431065
10.37 0.429583
10.38 0.427779
10.39 0.425612
10.4 0.423049
10.41 0.420064
10.42 0.416589
10.43 0.412664
10.44 0.408288
10.45 0.403465
10.46 0.398206
10.47 0.392519
10.48 0.386398
10.49 0.379848
10.5 0.372905
10.51 0.365573
10.52 0.357852
10.53 0.349735
10.54 0.341208
10.55 0.332207
10.56 0.32274
10.57 0.312783
10.58 0.302299
10.59 0.291254
10.6 0.27961
10.61 0.267308
10.62 0.254288
10.63 0.240579
10.64 0.226169
10.65 0.211059
10.66 0.195259
10.67 0.178795
10.68 0.161657
10.69 0.143948
10.7 0.125757
10.71 0.10717
10.72 0.0882847
10.73 0.0692061
10.74 0.0500484
10.75 0.0309462
10.76 0.0120211
10.77 -0.00661417
10.78 -0.0248542
10.79 -0.0426038
10.8 -0.0597812
10.81 -0.0762654
10.82 -0.0920325
10.83 -0.107084
10.84 -0.121418
10.85 -0.135052
10.86 -0.148025
10.87 -0.160385
10.88 -0.172173
10.89 -0.183538
10.9 -0.194581
10.91 -0.205408
10.92 -0.216127
10.93 -0.226845
10.94 -0.237675
10.95 -0.248716
10.96 -0.260034
10.97 -0.271682
10.98 -0.283695
10.99 -0.296085
11 -0.30884
11.01 -0.321956
11.02 -0.335327
11.03 -0.34887
11.04 -0.36248
11.05 -0.376038
11.06 -0.389414
11.07 -0.402439
11.08 -0.414946
11.09 -0.426814
11.1 -0.437904
11.11 -0.448091
11.12 -0.457261
11.13 -0.465318
11.14 -0.47205
11.15 -0.477524
11.16 -0.481725
11.17 -0.484653
11.18 -0.486331
11.19 -0.486803
11.2 -0.486086
11.21 -0.48425
11.22 -0.481474
11.23 -0.477865
11.24 -0.473537
11.25 -0.468603
11.26 -0.463174
11.27 -0.457322
11.28 -0.451178
11.29 -0.444825
11.3 -0.438317
11.31 -0.431693
11.32 -0.424971
11.33 -0.418146
11.34 -0.411184
11.35 -0.404053
11.36 -0.396695
11.37 -0.38904
11.38 -0.38101
11.39 -0.372524
11.4 -0.363442
11.41 -0.353708
11.42 -0.343267
11.43 -0.332061
11.44 -0.320045
11.45 -0.307193
11.46 -0.293479
11.47 -0.278865
11.48 -0.26347
11.49 -0.247358
11.5 -0.230613
11.51 -0.213335
11.52 -0.195644
11.53 -0.177658
11.54 -0.159549
11.55 -0.141474
11.56 -0.12358
11.57 -0.106013
11.58 -0.0889076
11.59 -0.0724009
11.6 -0.0566805
11.61 -0.0417733
11.62 -0.0277504
11.63 -0.0146625
11.64 -0.00253861
11.65 0.00861308
11.66 0.0187439
11.67 0.0279076
11.68 0.0362062
11.69 0.0437067
11.7 0.0504871
11.71 0.0566334
11.72 0.0622347
11.73 0.0673423
11.74 0.0721044
11.75 0.0766033
11.76 0.0809124
11.77 0.0850946
11.78 0.0892003
11.79 0.0932654
11.8 0.0973138
11.81 0.101352
11.82 0.105372
11.83 0.109352
11.84 0.11326
11.85 0.117056
11.86 0.12067
11.87 0.124061
11.88 0.127176
11.89 0.129963
11.9 0.132371
11.91 0.134358
11.92 0.135862
11.93 0.136836
11.94 0.137295
11.95 0.137228
11.96 0.136632
11.97 0.135514
11.98 0.133886
11.99 0.13172
12 0.129079
12.01 0.125996
12.02 0.122497
12.03 0.118602
12.04 0.114329
12.05 0.10968
12.06 0.10464
12.07 0.0992379
12.08 0.09346
12.09 0.0872862
12.1 0.0806884
12.11 0.0736315
12.12 0.0660281
12.13 0.0578548
12.14 0.0490804
12.15 0.0396592
12.16 0.0295484
12.17 0.0187111
