# xPDFsuite Configuration #
[PDF]
wavelength = 0.1
dataformat = QA
inputfile = BiMsol6_insitu_700 C-00373.xy
backgroundfile = Quartz2mm-dist500-00000.xy
mode = xray
bgscale = 0.0042
composition = Bi2Fe4O9
outputtype = gr
qmaxinst = 24.998449118
qmin = 0.1
qmax = 21.4986662415
rmax = 80.0
rmin = 0.0
rstep = 0.01
rpoly = 0.9

[Misc]
inputdir = C:/Data/Seafile/CPH/Beamtime/Desy Oct 20/In situ data/Processed/BiMsol6/PDF
savedir = C:/Data/Seafile/CPH/Beamtime/Desy Oct 20/In situ data/PDF/BiMsol6
backgroundfilefull = C:/Data/Seafile/CPH/Beamtime/Desy Oct 20/In situ data/Processed/Standard_Empty_Cap/Quartz2mm-dist500-00000.xy

#### start data
#S 1
#L r($\AA$)  G($\AA^{-2}$)
0 0
0.01 0.00652414
0.02 0.0126816
0.03 0.0181587
0.04 0.0226736
0.05 0.0259897
0.06 0.0279264
0.07 0.028286
0.08 0.0270102
0.09 0.0242432
0.1 0.0201035
0.11 0.0147751
0.12 0.00850015
0.13 0.00156736
0.14 -0.00569912
0.15 -0.0128889
0.16 -0.0196559
0.17 -0.0256754
0.18 -0.0306557
0.19 -0.0343527
0.2 -0.0365155
0.21 -0.0369718
0.22 -0.0358187
0.23 -0.0331213
0.24 -0.0290239
0.25 -0.0237454
0.26 -0.0175708
0.27 -0.0108242
0.28 -0.00397517
0.29 0.00255814
0.3 0.00836932
0.31 0.0130714
0.32 0.0163158
0.33 0.0177493
0.34 0.017025
0.35 0.0141924
0.36 0.00924494
0.37 0.00228211
0.38 -0.00648976
0.39 -0.0167599
0.4 -0.0281689
0.41 -0.0400913
0.42 -0.0519122
0.43 -0.0630057
0.44 -0.0727232
0.45 -0.0804169
0.46 -0.0854006
0.47 -0.08679
0.48 -0.0843847
0.49 -0.0778197
0.5 -0.0668527
0.51 -0.0513791
0.52 -0.0314418
0.53 -0.00695394
0.54 0.021538
0.55 0.0533069
0.56 0.0876795
0.57 0.123865
0.58 0.160978
0.59 0.198049
0.6 0.233852
0.61 0.2674
0.62 0.29771
0.63 0.323859
0.64 0.345011
0.65 0.360446
0.66 0.369168
0.67 0.370758
0.68 0.365372
0.69 0.352998
0.7 0.33381
0.71 0.308161
0.72 0.27658
0.73 0.239244
0.74 0.197661
0.75 0.152802
0.76 0.105697
0.77 0.0574197
0.78 0.00905473
0.79 -0.038231
0.8 -0.0832546
0.81 -0.125192
0.82 -0.163259
0.83 -0.196807
0.84 -0.225339
0.85 -0.248522
0.86 -0.265625
0.87 -0.277179
0.88 -0.283473
0.89 -0.284868
0.9 -0.281855
0.91 -0.275038
0.92 -0.265014
0.93 -0.252557
0.94 -0.238685
0.95 -0.224184
0.96 -0.209809
0.97 -0.196262
0.98 -0.18417
0.99 -0.174291
1 -0.166944
1.01 -0.16235
1.02 -0.160658
1.03 -0.161894
1.04 -0.165965
1.05 -0.172736
1.06 -0.181999
1.07 -0.193129
1.08 -0.205676
1.09 -0.219156
1.1 -0.233072
1.11 -0.246931
1.12 -0.260193
1.13 -0.272415
1.14 -0.283278
1.15 -0.292515
1.16 -0.29994
1.17 -0.305457
1.18 -0.309022
1.19 -0.310574
1.2 -0.310473
1.21 -0.30895
1.22 -0.306288
1.23 -0.302805
1.24 -0.298838
1.25 -0.294744
1.26 -0.290898
1.27 -0.287596
1.28 -0.285086
1.29 -0.28356
1.3 -0.28315
1.31 -0.283925
1.32 -0.285993
1.33 -0.28913
1.34 -0.293182
1.35 -0.297942
1.36 -0.303159
1.37 -0.308554
1.38 -0.313802
1.39 -0.318557
1.4 -0.322546
1.41 -0.325515
1.42 -0.327252
1.43 -0.327597
1.44 -0.326451
1.45 -0.323612
1.46 -0.319296
1.47 -0.313632
1.48 -0.306804
1.49 -0.299053
1.5 -0.290667
1.51 -0.281971
1.52 -0.273364
1.53 -0.265216
1.54 -0.257867
1.55 -0.251632
1.56 -0.246784
1.57 -0.243547
1.58 -0.242269
1.59 -0.242886
1.6 -0.245363
1.61 -0.249615
1.62 -0.255484
1.63 -0.262738
1.64 -0.271112
1.65 -0.280236
1.66 -0.289632
1.67 -0.298881
1.68 -0.307559
1.69 -0.315251
1.7 -0.321566
1.71 -0.32597
1.72 -0.328249
1.73 -0.328235
1.74 -0.325792
1.75 -0.320859
1.76 -0.313463
1.77 -0.303657
1.78 -0.29152
1.79 -0.277543
1.8 -0.262066
1.81 -0.245473
1.82 -0.228184
1.83 -0.210639
1.84 -0.193328
1.85 -0.176726
1.86 -0.161213
1.87 -0.147136
1.88 -0.13478
1.89 -0.124367
1.9 -0.116077
1.91 -0.110165
1.92 -0.106386
1.93 -0.10463
1.94 -0.104722
1.95 -0.106422
1.96 -0.109439
1.97 -0.113484
1.98 -0.118129
1.99 -0.122959
2 -0.127615
2.01 -0.131759
2.02 -0.135088
2.03 -0.137341
2.04 -0.138163
2.05 -0.137564
2.06 -0.135497
2.07 -0.131987
2.08 -0.127129
2.09 -0.121081
2.1 -0.114026
2.11 -0.106279
2.12 -0.0982164
2.13 -0.0901796
2.14 -0.0825226
2.15 -0.0755963
2.16 -0.0697352
2.17 -0.0654253
2.18 -0.0628094
2.19 -0.062077
2.2 -0.0633685
2.21 -0.0667595
2.22 -0.0722583
2.23 -0.0798931
2.24 -0.0895626
2.25 -0.100922
2.26 -0.11372
2.27 -0.127666
2.28 -0.142438
2.29 -0.157694
2.3 -0.173063
2.31 -0.188154
2.32 -0.202647
2.33 -0.21625
2.34 -0.228712
2.35 -0.239832
2.36 -0.249403
2.37 -0.25725
2.38 -0.263479
2.39 -0.268128
2.4 -0.271286
2.41 -0.273093
2.42 -0.27373
2.43 -0.273347
2.44 -0.272272
2.45 -0.270786
2.46 -0.269148
2.47 -0.267607
2.48 -0.266396
2.49 -0.26574
2.5 -0.265886
2.51 -0.266909
2.52 -0.268896
2.53 -0.271894
2.54 -0.275904
2.55 -0.280889
2.56 -0.28683
2.57 -0.293566
2.58 -0.300916
2.59 -0.308718
2.6 -0.316793
2.61 -0.324962
2.62 -0.33304
2.63 -0.34081
2.64 -0.348132
2.65 -0.354871
2.66 -0.360914
2.67 -0.366176
2.68 -0.370595
2.69 -0.374079
2.7 -0.376631
2.71 -0.378311
2.72 -0.379154
2.73 -0.379204
2.74 -0.378515
2.75 -0.377144
2.76 -0.37508
2.77 -0.372449
2.78 -0.369288
2.79 -0.365621
2.8 -0.361455
2.81 -0.356784
2.82 -0.351551
2.83 -0.345706
2.84 -0.339225
2.85 -0.332045
2.86 -0.324096
2.87 -0.315307
2.88 -0.305611
2.89 -0.294838
2.9 -0.283036
2.91 -0.270188
2.92 -0.25629
2.93 -0.241361
2.94 -0.225446
2.95 -0.208579
2.96 -0.190846
2.97 -0.172438
2.98 -0.153498
2.99 -0.134184
3 -0.114666
3.01 -0.0951202
3.02 -0.0757542
3.03 -0.0567453
3.04 -0.0382459
3.05 -0.0203944
3.06 -0.00330661
3.07 0.0129275
3.08 0.0282168
3.09 0.0424813
3.1 0.05581
3.11 0.0682442
3.12 0.0798538
3.13 0.0907344
3.14 0.101004
3.15 0.110769
3.16 0.120221
3.17 0.129527
3.18 0.138839
3.19 0.148298
3.2 0.158033
3.21 0.168165
3.22 0.178825
3.23 0.190028
3.24 0.201795
3.25 0.214122
3.26 0.226969
3.27 0.240273
3.28 0.253957
3.29 0.267874
3.3 0.281871
3.31 0.295794
3.32 0.309484
3.33 0.322779
3.34 0.335516
3.35 0.347461
3.36 0.358547
3.37 0.368667
3.38 0.377734
3.39 0.38569
3.4 0.392503
3.41 0.3981
3.42 0.402522
3.43 0.405891
3.44 0.408286
3.45 0.40981
3.46 0.410579
3.47 0.410724
3.48 0.410341
3.49 0.40964
3.5 0.408758
3.51 0.407825
3.52 0.406963
3.53 0.406277
3.54 0.405876
3.55 0.405846
3.56 0.40622
3.57 0.40703
3.58 0.408289
3.59 0.409999
3.6 0.412143
3.61 0.414736
3.62 0.417702
3.63 0.420993
3.64 0.424568
3.65 0.428385
3.66 0.432405
3.67 0.436599
3.68 0.440943
3.69 0.445406
3.7 0.449976
3.71 0.454649
3.72 0.459429
3.73 0.464319
3.74 0.469342
3.75 0.474498
3.76 0.479788
3.77 0.485211
3.78 0.490759
3.79 0.496412
3.8 0.502138
3.81 0.507886
3.82 0.513586
3.83 0.51916
3.84 0.524513
3.85 0.529541
3.86 0.534126
3.87 0.538082
3.88 0.541287
3.89 0.543622
3.9 0.544953
3.91 0.545149
3.92 0.544085
3.93 0.541622
3.94 0.537534
3.95 0.531883
3.96 0.524612
3.97 0.515687
3.98 0.505093
3.99 0.492839
4 0.478844
4.01 0.463211
4.02 0.446089
4.03 0.42757
4.04 0.407757
4.05 0.386769
4.06 0.364722
4.07 0.341666
4.08 0.317847
4.09 0.293395
4.1 0.268436
4.11 0.243092
4.12 0.217478
4.13 0.191695
4.14 0.165857
4.15 0.140057
4.16 0.114372
4.17 0.0888738
4.18 0.0636242
4.19 0.0386809
4.2 0.0141435
4.21 -0.00997254
4.22 -0.0336204
4.23 -0.0567518
4.24 -0.0793179
4.25 -0.101269
4.26 -0.122517
4.27 -0.142989
4.28 -0.162677
4.29 -0.181526
4.3 -0.199484
4.31 -0.216503
4.32 -0.232537
4.33 -0.247439
4.34 -0.261265
4.35 -0.274011
4.36 -0.285668
4.37 -0.29624
4.38 -0.305741
4.39 -0.314164
4.4 -0.321515
4.41 -0.327934
4.42 -0.333486
4.43 -0.338248
4.44 -0.342305
4.45 -0.345744
4.46 -0.348616
4.47 -0.351059
4.48 -0.353174
4.49 -0.355041
4.5 -0.356737
4.51 -0.358325
4.52 -0.359857
4.53 -0.361379
4.54 -0.362917
4.55 -0.364482
4.56 -0.366073
4.57 -0.367675
4.58 -0.369264
4.59 -0.3708
4.6 -0.372242
4.61 -0.373546
4.62 -0.37467
4.63 -0.37557
4.64 -0.376208
4.65 -0.376548
4.66 -0.376538
4.67 -0.376198
4.68 -0.375528
4.69 -0.374541
4.7 -0.373261
4.71 -0.371724
4.72 -0.369965
4.73 -0.368051
4.74 -0.366055
4.75 -0.364045
4.76 -0.362088
4.77 -0.360253
4.78 -0.358607
4.79 -0.357242
4.8 -0.356186
4.81 -0.35548
4.82 -0.355154
4.83 -0.355226
4.84 -0.355703
4.85 -0.356601
4.86 -0.357901
4.87 -0.359549
4.88 -0.361507
4.89 -0.363731
4.9 -0.36617
4.91 -0.368773
4.92 -0.371493
4.93 -0.374261
4.94 -0.37703
4.95 -0.379756
4.96 -0.382402
4.97 -0.384937
4.98 -0.38733
4.99 -0.389559
5 -0.391624
5.01 -0.393519
5.02 -0.395241
5.03 -0.39679
5.04 -0.398162
5.05 -0.399335
5.06 -0.400311
5.07 -0.401075
5.08 -0.4016
5.09 -0.401849
5.1 -0.401774
5.11 -0.401298
5.12 -0.40032
5.13 -0.398788
5.14 -0.396608
5.15 -0.393681
5.16 -0.389901
5.17 -0.385161
5.18 -0.379247
5.19 -0.372108
5.2 -0.363679
5.21 -0.353872
5.22 -0.342613
5.23 -0.329843
5.24 -0.31548
5.25 -0.299393
5.26 -0.281726
5.27 -0.262499
5.28 -0.241753
5.29 -0.219546
5.3 -0.195953
5.31 -0.170974
5.32 -0.144777
5.33 -0.117531
5.34 -0.0893605
5.35 -0.060394
5.36 -0.0307626
5.37 -0.000591169
5.38 0.030014
5.39 0.0608785
5.4 0.0918872
5.41 0.122931
5.42 0.153909
5.43 0.184726
5.44 0.21527
5.45 0.245449
5.46 0.275194
5.47 0.304425
5.48 0.33306
5.49 0.361013
5.5 0.38819
5.51 0.414383
5.52 0.439575
5.53 0.463646
5.54 0.486471
5.55 0.507911
5.56 0.527824
5.57 0.545958
5.58 0.562124
5.59 0.576273
5.6 0.588256
5.61 0.59793
5.62 0.605164
5.63 0.609844
5.64 0.61158
5.65 0.61056
5.66 0.606769
5.67 0.6002
5.68 0.590876
5.69 0.578852
5.7 0.56411
5.71 0.546719
5.72 0.527029
5.73 0.505226
5.74 0.48152
5.75 0.456141
5.76 0.429332
5.77 0.401259
5.78 0.372299
5.79 0.34273
5.8 0.312797
5.81 0.282735
5.82 0.252759
5.83 0.22308
5.84 0.19391
5.85 0.165361
5.86 0.13754
5.87 0.110531
5.88 0.0843885
5.89 0.0591441
5.9 0.0348849
5.91 0.0115493
5.92 -0.0109159
5.93 -0.032544
5.94 -0.0533716
5.95 -0.073434
5.96 -0.0927457
5.97 -0.111276
5.98 -0.129097
5.99 -0.146196
6 -0.162543
6.01 -0.178086
6.02 -0.192758
6.03 -0.206394
6.04 -0.218909
6.05 -0.230226
6.06 -0.240223
6.07 -0.248773
6.08 -0.255753
6.09 -0.261024
6.1 -0.264299
6.11 -0.265676
6.12 -0.265093
6.13 -0.262516
6.14 -0.257938
6.15 -0.251385
6.16 -0.242798
6.17 -0.232308
6.18 -0.220145
6.19 -0.20647
6.2 -0.191469
6.21 -0.175349
6.22 -0.158334
6.23 -0.140613
6.24 -0.122528
6.25 -0.104321
6.26 -0.0862257
6.27 -0.0684628
6.28 -0.0512349
6.29 -0.0347674
6.3 -0.0192405
6.31 -0.00471915
6.32 0.00871735
6.33 0.0210236
6.34 0.032188
6.35 0.0422321
6.36 0.051104
6.37 0.0589983
6.38 0.0660382
6.39 0.0723539
6.4 0.0780898
6.41 0.0834002
6.42 0.0884398
6.43 0.0933858
6.44 0.0984078
6.45 0.103647
6.46 0.109232
6.47 0.115274
6.48 0.121866
6.49 0.129146
6.5 0.137123
6.51 0.145812
6.52 0.155221
6.53 0.165339
6.54 0.176143
6.55 0.187613
6.56 0.199726
6.57 0.212371
6.58 0.225485
6.59 0.239005
6.6 0.252868
6.61 0.267016
6.62 0.281406
6.63 0.295971
6.64 0.31066
6.65 0.325434
6.66 0.340261
6.67 0.355109
6.68 0.369951
6.69 0.384756
6.7 0.399494
6.71 0.414135
6.72 0.428642
6.73 0.442971
6.74 0.457068
6.75 0.470845
6.76 0.484227
6.77 0.497141
6.78 0.50949
6.79 0.52117
6.8 0.532067
6.81 0.542053
6.82 0.550885
6.83 0.558537
6.84 0.564883
6.85 0.569802
6.86 0.573178
6.87 0.574907
6.88 0.574781
6.89 0.572719
6.9 0.568757
6.91 0.562853
6.92 0.55498
6.93 0.545129
6.94 0.533312
6.95 0.519339
6.96 0.50348
6.97 0.485803
6.98 0.466386
6.99 0.445316
7 0.422691
7.01 0.398549
7.02 0.372995
7.03 0.346237
7.04 0.31839
7.05 0.289568
7.06 0.259881
7.07 0.229439
7.08 0.19829
7.09 0.166604
7.1 0.134488
7.11 0.102034
7.12 0.0693333
7.13 0.0364758
7.14 0.00354991
7.15 -0.0293434
7.16 -0.0621116
7.17 -0.0946648
7.18 -0.126911
7.19 -0.158756
7.2 -0.190104
7.21 -0.220792
7.22 -0.250748
7.23 -0.279885
7.24 -0.308104
7.25 -0.335305
7.26 -0.361393
7.27 -0.386242
7.28 -0.409678
7.29 -0.431738
7.3 -0.452357
7.31 -0.471485
7.32 -0.489083
7.33 -0.505126
7.34 -0.519477
7.35 -0.532214
7.36 -0.543416
7.37 -0.55312
7.38 -0.561376
7.39 -0.568246
7.4 -0.573782
7.41 -0.577974
7.42 -0.581041
7.43 -0.583077
7.44 -0.584178
7.45 -0.584441
7.46 -0.583957
7.47 -0.582777
7.48 -0.581011
7.49 -0.578762
7.5 -0.576096
7.51 -0.573068
7.52 -0.569722
7.53 -0.566091
7.54 -0.562172
7.55 -0.558007
7.56 -0.553597
7.57 -0.548933
7.58 -0.544
7.59 -0.538778
7.6 -0.533217
7.61 -0.527284
7.62 -0.520962
7.63 -0.51422
7.64 -0.507023
7.65 -0.499341
7.66 -0.491145
7.67 -0.482349
7.68 -0.472989
7.69 -0.463057
7.7 -0.452545
7.71 -0.441455
7.72 -0.429793
7.73 -0.417549
7.74 -0.404738
7.75 -0.391428
7.76 -0.377658
7.77 -0.363473
7.78 -0.348926
7.79 -0.334076
7.8 -0.318971
7.81 -0.30371
7.82 -0.288377
7.83 -0.273052
7.84 -0.257821
7.85 -0.242776
7.86 -0.228019
7.87 -0.213673
7.88 -0.199805
7.89 -0.186507
7.9 -0.173864
7.91 -0.161959
7.92 -0.150867
7.93 -0.140744
7.94 -0.131599
7.95 -0.123456
7.96 -0.116351
7.97 -0.110307
7.98 -0.105336
7.99 -0.101463
8 -0.098739
8.01 -0.0970345
8.02 -0.0963061
8.03 -0.0964992
8.04 -0.0975493
8.05 -0.0993836
8.06 -0.101971
8.07 -0.105188
8.08 -0.10892
8.09 -0.11308
8.1 -0.117585
8.11 -0.122352
8.12 -0.12731
8.13 -0.132394
8.14 -0.137529
8.15 -0.142671
8.16 -0.147781
8.17 -0.152834
8.18 -0.157812
8.19 -0.162701
8.2 -0.167501
8.21 -0.172222
8.22 -0.176872
8.23 -0.181458
8.24 -0.185988
8.25 -0.190463
8.26 -0.194872
8.27 -0.199205
8.28 -0.203437
8.29 -0.207529
8.3 -0.211429
8.31 -0.215071
8.32 -0.218352
8.33 -0.221163
8.34 -0.223417
8.35 -0.224997
8.36 -0.225782
8.37 -0.225642
8.38 -0.22445
8.39 -0.221936
8.4 -0.218088
8.41 -0.212806
8.42 -0.205995
8.43 -0.197573
8.44 -0.187481
8.45 -0.1756
8.46 -0.161868
8.47 -0.146419
8.48 -0.12929
8.49 -0.11054
8.5 -0.0902505
8.51 -0.0685212
8.52 -0.0453539
8.53 -0.0210033
8.54 0.00436026
8.55 0.0305846
8.56 0.0575153
8.57 0.084999
8.58 0.112896
8.59 0.141062
8.6 0.169341
8.61 0.197621
8.62 0.22581
8.63 0.253829
8.64 0.281619
8.65 0.30911
8.66 0.33629
8.67 0.363158
8.68 0.389713
8.69 0.415966
8.7 0.441927
8.71 0.467606
8.72 0.492994
8.73 0.518118
8.74 0.542969
8.75 0.567523
8.76 0.591741
8.77 0.615564
8.78 0.63887
8.79 0.661561
8.8 0.683535
8.81 0.704649
8.82 0.724748
8.83 0.743658
8.84 0.761182
8.85 0.776961
8.86 0.790955
8.87 0.802977
8.88 0.812847
8.89 0.8204
8.9 0.825486
8.91 0.827798
8.92 0.827254
8.93 0.823915
8.94 0.817738
8.95 0.808709
8.96 0.796845
8.97 0.782187
8.98 0.764508
8.99 0.744239
9 0.72151
9.01 0.696472
9.02 0.669291
9.03 0.640148
9.04 0.609148
9.05 0.576502
9.06 0.542515
9.07 0.507382
9.08 0.47129
9.09 0.43442
9.1 0.396943
9.11 0.358986
9.12 0.320753
9.13 0.282382
9.14 0.243995
9.15 0.205702
9.16 0.167607
9.17 0.129822
9.18 0.0924638
9.19 0.0555959
9.2 0.0193064
9.21 -0.0163155
9.22 -0.0511771
9.23 -0.0851809
9.24 -0.118121
9.25 -0.149946
9.26 -0.180558
9.27 -0.209836
9.28 -0.237649
9.29 -0.263868
9.3 -0.288302
9.31 -0.3107
9.32 -0.331086
9.33 -0.34934
9.34 -0.36535
9.35 -0.379019
9.36 -0.390262
9.37 -0.398795
9.38 -0.404697
9.39 -0.408024
9.4 -0.408772
9.41 -0.40696
9.42 -0.402627
9.43 -0.395783
9.44 -0.38634
9.45 -0.374635
9.46 -0.360786
9.47 -0.344923
9.48 -0.327186
9.49 -0.307727
9.5 -0.286597
9.51 -0.264025
9.52 -0.240239
9.53 -0.215396
9.54 -0.189651
9.55 -0.163156
9.56 -0.13605
9.57 -0.108442
9.58 -0.0805243
9.59 -0.0524188
9.6 -0.0242423
9.61 0.00389417
9.62 0.0318847
9.63 0.0596053
9.64 0.0869438
9.65 0.113818
9.66 0.140131
9.67 0.165788
9.68 0.190693
9.69 0.214747
9.7 0.237733
9.71 0.259653
9.72 0.280409
9.73 0.299908
9.74 0.318055
9.75 0.334763
9.76 0.349865
9.77 0.363254
9.78 0.374966
9.79 0.38495
9.8 0.393164
9.81 0.399582
9.82 0.404193
9.83 0.406814
9.84 0.407636
9.85 0.406721
9.86 0.404123
9.87 0.399914
9.88 0.394176
9.89 0.38695
9.9 0.37831
9.91 0.368478
9.92 0.357577
9.93 0.345728
9.94 0.333057
9.95 0.319687
9.96 0.305694
9.97 0.291246
9.98 0.276462
9.99 0.261437
10 0.24626
10.01 0.231006
10.02 0.215744
10.03 0.200538
10.04 0.185429
10.05 0.17045
10.06 0.155624
10.07 0.140967
10.08 0.126488
10.09 0.112206
10.1 0.0981116
10.11 0.0841946
10.12 0.0704507
10.13 0.0568754
10.14 0.0434652
10.15 0.0302214
10.16 0.0171582
10.17 0.00426388
10.18 -0.00845427
10.19 -0.0209858
10.2 -0.0333172
10.21 -0.0454328
10.22 -0.0572963
10.23 -0.068891
10.24 -0.080207
10.25 -0.0912233
10.26 -0.101919
10.27 -0.112276
10.28 -0.122272
10.29 -0.131853
10.3 -0.141044
10.31 -0.149838
10.32 -0.158227
10.33 -0.166207
10.34 -0.173779
10.35 -0.180923
10.36 -0.187646
10.37 -0.193982
10.38 -0.199944
10.39 -0.205548
10.4 -0.210811
10.41 -0.215753
10.42 -0.220366
10.43 -0.224709
10.44 -0.228809
10.45 -0.232696
10.46 -0.236397
10.47 -0.239945
10.48 -0.243365
10.49 -0.246694
10.5 -0.249974
10.51 -0.253236
10.52 -0.256514
10.53 -0.25984
10.54 -0.263244
10.55 -0.266767
10.56 -0.270427
10.57 -0.274244
10.58 -0.278235
10.59 -0.282409
10.6 -0.286774
10.61 -0.291335
10.62 -0.296091
10.63 -0.301012
10.64 -0.306075
10.65 -0.311251
10.66 -0.316505
10.67 -0.321796
10.68 -0.327075
10.69 -0.332286
10.7 -0.337377
10.71 -0.342296
10.72 -0.346991
10.73 -0.351414
10.74 -0.35551
10.75 -0.359213
10.76 -0.362521
10.77 -0.365413
10.78 -0.367877
10.79 -0.369912
10.8 -0.371528
10.81 -0.372715
10.82 -0.373527
10.83 -0.374023
10.84 -0.374254
10.85 -0.37428
10.86 -0.374165
10.87 -0.373978
10.88 -0.373797
10.89 -0.373696
10.9 -0.373738
10.91 -0.37398
10.92 -0.374471
10.93 -0.375249
10.94 -0.376361
10.95 -0.377813
10.96 -0.379582
10.97 -0.381646
10.98 -0.383965
10.99 -0.386489
11 -0.389148
11.01 -0.391861
11.02 -0.394521
11.03 -0.397027
11.04 -0.399275
11.05 -0.401157
11.06 -0.402565
11.07 -0.403357
11.08 -0.40342
11.09 -0.402706
11.1 -0.401139
11.11 -0.398662
11.12 -0.39523
11.13 -0.390818
11.14 -0.385308
11.15 -0.378817
11.16 -0.371381
11.17 -0.363048
11.18 -0.353879
11.19 -0.343949
11.2 -0.333317
11.21 -0.322078
11.22 -0.310377
11.23 -0.298318
11.24 -0.286001
11.25 -0.273526
11.26 -0.260983
11.27 -0.248467
11.28 -0.236056
11.29 -0.223809
11.3 -0.211772
11.31 -0.199976
11.32 -0.188442
11.33 -0.177184
11.34 -0.166203
11.35 -0.155455
11.36 -0.144909
11.37 -0.134524
11.38 -0.124253
11.39 -0.114044
11.4 -0.10384
11.41 -0.0935785
11.42 -0.0832055
11.43 -0.0726712
11.44 -0.06193
11.45 -0.0509415
11.46 -0.0396644
11.47 -0.0280478
11.48 -0.0161003
11.49 -0.00381079
11.5 0.00882527
11.51 0.0218065
11.52 0.0351262
11.53 0.0487975
11.54 0.0627913
11.55 0.0770772
11.56 0.0916366
11.57 0.10645
11.58 0.1215
11.59 0.136769
11.6 0.152258
11.61 0.167929
11.62 0.183767
11.63 0.199761
11.64 0.215898
11.65 0.232165
11.66 0.248556
11.67 0.265053
11.68 0.281631
11.69 0.298271
11.7 0.314948
11.71 0.331632
11.72 0.34829
11.73 0.364868
11.74 0.381324
11.75 0.397606
11.76 0.413657
11.77 0.429414
11.78 0.444811
11.79 0.459751
11.8 0.474147
11.81 0.487953
11.82 0.501095
11.83 0.513499
11.84 0.525096
11.85 0.535816
11.86 0.545488
11.87 0.55414
11.88 0.561726
11.89 0.568199
11.9 0.573517
11.91 0.577644
11.92 0.580495
11.93 0.582007
11.94 0.582251
11.95 0.581215
11.96 0.578892
11.97 0.575279
11.98 0.570374
11.99 0.56406
12 0.556445
12.01 0.547566
12.02 0.537439
12.03 0.526086
12.04 0.513529
12.05 0.49976
12.06 0.48476
12.07 0.468669
12.08 0.451535
12.09 0.433414
12.1 0.414369
12.11 0.394472
12.12 0.373745
12.13 0.352332
12.14 0.330359
12.15 0.307934
12.16 0.285176
12.17 0.262208
12.18 0.239162
12.19 0.216198
12.2 0.193458
12.21 0.171084
12.22 0.149213
12.23 0.127983
12.24 0.107524
12.25 0.0880359
12.26 0.0696173
12.27 0.05233
