# xPDFsuite Configuration #
[PDF]
wavelength = 0.1
dataformat = QA
inputfile = BiMsol6_insitu_700 C-00650.xy
backgroundfile = Quartz2mm-dist500-00000.xy
mode = xray
bgscale = 0.0042
composition = Bi2Fe4O9
outputtype = gr
qmaxinst = 24.998449118
qmin = 0.1
qmax = 21.4986662415
rmax = 80.0
rmin = 0.0
rstep = 0.01
rpoly = 0.9

[Misc]
inputdir = C:/Data/Seafile/CPH/Beamtime/Desy Oct 20/In situ data/Processed/BiMsol6/PDF
savedir = C:/Data/Seafile/CPH/Beamtime/Desy Oct 20/In situ data/PDF/BiMsol6
backgroundfilefull = C:/Data/Seafile/CPH/Beamtime/Desy Oct 20/In situ data/Processed/Standard_Empty_Cap/Quartz2mm-dist500-00000.xy

#### start data
#S 1
#L r($\AA$)  G($\AA^{-2}$)
0 0
0.01 0.00661094
0.02 0.0128489
0.03 0.0183947
0.04 0.0229619
0.05 0.0263099
0.06 0.0282554
0.07 0.0285975
0.08 0.0272775
0.09 0.0244427
0.1 0.0202139
0.11 0.0147792
0.12 0.00838493
0.13 0.00132532
0.14 -0.00606938
0.15 -0.0133821
0.16 -0.0202614
0.17 -0.0263771
0.18 -0.0314336
0.19 -0.0351832
0.2 -0.0373718
0.21 -0.0378254
0.22 -0.0366434
0.23 -0.0338928
0.24 -0.0297206
0.25 -0.0243495
0.26 -0.0180687
0.27 -0.0112064
0.28 -0.00423804
0.29 0.00241361
0.3 0.00833843
0.31 0.0131465
0.32 0.0164872
0.33 0.018006
0.34 0.017356
0.35 0.0145887
0.36 0.00970025
0.37 0.002793
0.38 -0.00592337
0.39 -0.0161348
0.4 -0.0274782
0.41 -0.0393263
0.42 -0.0510638
0.43 -0.0620664
0.44 -0.0716884
0.45 -0.0792876
0.46 -0.0841862
0.47 -0.0855131
0.48 -0.0830801
0.49 -0.0765372
0.5 -0.0656588
0.51 -0.0503576
0.52 -0.0306948
0.53 -0.00661068
0.54 0.0213331
0.55 0.0524013
0.56 0.0859099
0.57 0.121061
0.58 0.156967
0.59 0.192661
0.6 0.22691
0.61 0.25876
0.62 0.28725
0.63 0.311483
0.64 0.330657
0.65 0.344086
0.66 0.35082
0.67 0.350488
0.68 0.343289
0.69 0.329255
0.7 0.308601
0.71 0.281722
0.72 0.24918
0.73 0.211218
0.74 0.169335
0.75 0.124514
0.76 0.0777906
0.77 0.0302336
0.78 -0.0170843
0.79 -0.0630035
0.8 -0.106371
0.81 -0.146421
0.82 -0.182411
0.83 -0.213742
0.84 -0.239968
0.85 -0.260809
0.86 -0.275588
0.87 -0.284894
0.88 -0.289057
0.89 -0.288479
0.9 -0.283684
0.91 -0.275299
0.92 -0.263948
0.93 -0.250421
0.94 -0.235715
0.95 -0.220604
0.96 -0.205822
0.97 -0.192046
0.98 -0.179871
0.99 -0.170023
1 -0.162769
1.01 -0.15829
1.02 -0.156695
1.03 -0.157972
1.04 -0.161997
1.05 -0.168604
1.06 -0.177554
1.07 -0.188223
1.08 -0.200157
1.09 -0.212876
1.1 -0.225894
1.11 -0.23874
1.12 -0.250891
1.13 -0.261944
1.14 -0.271616
1.15 -0.279676
1.16 -0.285973
1.17 -0.290444
1.18 -0.293077
1.19 -0.293849
1.2 -0.293126
1.21 -0.29115
1.22 -0.288204
1.23 -0.284602
1.24 -0.280666
1.25 -0.27674
1.26 -0.273162
1.27 -0.270188
1.28 -0.268028
1.29 -0.266833
1.3 -0.266694
1.31 -0.26764
1.32 -0.269724
1.33 -0.272703
1.34 -0.276401
1.35 -0.280594
1.36 -0.285026
1.37 -0.289418
1.38 -0.293446
1.39 -0.29679
1.4 -0.299219
1.41 -0.300516
1.42 -0.300512
1.43 -0.299096
1.44 -0.296216
1.45 -0.291733
1.46 -0.285905
1.47 -0.278902
1.48 -0.270942
1.49 -0.262293
1.5 -0.253258
1.51 -0.244182
1.52 -0.235462
1.53 -0.227433
1.54 -0.220405
1.55 -0.214657
1.56 -0.210415
1.57 -0.207852
1.58 -0.207255
1.59 -0.208493
1.6 -0.211474
1.61 -0.21606
1.62 -0.222043
1.63 -0.229153
1.64 -0.23708
1.65 -0.245421
1.66 -0.253716
1.67 -0.261556
1.68 -0.268538
1.69 -0.27428
1.7 -0.278434
1.71 -0.280512
1.72 -0.280377
1.73 -0.277934
1.74 -0.273111
1.75 -0.265917
1.76 -0.256439
1.77 -0.244793
1.78 -0.231126
1.79 -0.21594
1.8 -0.199587
1.81 -0.182458
1.82 -0.164956
1.83 -0.147492
1.84 -0.130528
1.85 -0.114462
1.86 -0.099593
1.87 -0.0861867
1.88 -0.0744453
1.89 -0.0645026
1.9 -0.0564474
1.91 -0.0504205
1.92 -0.0461305
1.93 -0.0434145
1.94 -0.0420555
1.95 -0.0417922
1.96 -0.0423321
1.97 -0.0433749
1.98 -0.0445517
1.99 -0.0455406
2 -0.0460694
2.01 -0.0459053
2.02 -0.0448655
2.03 -0.0428214
2.04 -0.0395972
2.05 -0.0353352
2.06 -0.0301295
2.07 -0.0241386
2.08 -0.0175798
2.09 -0.0107209
2.1 -0.00389088
2.11 0.00251707
2.12 0.00815295
2.13 0.0126662
2.14 0.015723
2.15 0.0170197
2.16 0.0162951
2.17 0.0130807
2.18 0.00745734
2.19 -0.000615057
2.2 -0.0111199
2.21 -0.0239665
2.22 -0.0389928
2.23 -0.0560441
2.24 -0.0748237
2.25 -0.0948435
2.26 -0.115716
2.27 -0.137031
2.28 -0.158368
2.29 -0.179313
2.3 -0.199352
2.31 -0.218148
2.32 -0.235407
2.33 -0.25087
2.34 -0.264343
2.35 -0.275697
2.36 -0.284798
2.37 -0.291563
2.38 -0.296266
2.39 -0.299061
2.4 -0.300156
2.41 -0.299802
2.42 -0.298283
2.43 -0.29586
2.44 -0.292938
2.45 -0.289855
2.46 -0.286908
2.47 -0.28437
2.48 -0.282478
2.49 -0.281449
2.5 -0.281515
2.51 -0.282676
2.52 -0.284964
2.53 -0.288358
2.54 -0.292791
2.55 -0.298152
2.56 -0.304341
2.57 -0.311127
2.58 -0.318277
2.59 -0.325582
2.6 -0.332832
2.61 -0.339823
2.62 -0.346362
2.63 -0.352211
2.64 -0.357292
2.65 -0.361511
2.66 -0.364809
2.67 -0.367161
2.68 -0.36858
2.69 -0.369057
2.7 -0.368691
2.71 -0.367632
2.72 -0.365998
2.73 -0.363921
2.74 -0.361536
2.75 -0.358974
2.76 -0.356369
2.77 -0.353844
2.78 -0.351489
2.79 -0.349369
2.8 -0.347528
2.81 -0.345985
2.82 -0.344747
2.83 -0.343782
2.84 -0.343019
2.85 -0.342391
2.86 -0.341818
2.87 -0.341218
2.88 -0.340502
2.89 -0.339559
2.9 -0.338326
2.91 -0.336745
2.92 -0.33477
2.93 -0.33237
2.94 -0.329534
2.95 -0.326246
2.96 -0.32252
2.97 -0.318421
2.98 -0.313993
2.99 -0.309285
3 -0.304345
3.01 -0.299215
3.02 -0.293916
3.03 -0.288477
3.04 -0.282895
3.05 -0.277144
3.06 -0.27117
3.07 -0.264897
3.08 -0.258205
3.09 -0.250919
3.1 -0.242923
3.11 -0.234048
3.12 -0.224116
3.13 -0.212944
3.14 -0.200353
3.15 -0.186022
3.16 -0.169866
3.17 -0.151814
3.18 -0.131776
3.19 -0.109699
3.2 -0.085573
3.21 -0.0593928
3.22 -0.0311133
3.23 -0.0010721
3.24 0.0305393
3.25 0.0634857
3.26 0.0974927
3.27 0.132252
3.28 0.167432
3.29 0.202614
3.3 0.237416
3.31 0.27147
3.32 0.30442
3.33 0.335927
3.34 0.365654
3.35 0.393092
3.36 0.418202
3.37 0.440797
3.38 0.460735
3.39 0.477923
3.4 0.492316
3.41 0.503743
3.42 0.512287
3.43 0.518197
3.44 0.521601
3.45 0.522655
3.46 0.521536
3.47 0.518434
3.48 0.513365
3.49 0.506748
3.5 0.498776
3.51 0.48963
3.52 0.479472
3.53 0.468447
3.54 0.456647
3.55 0.444179
3.56 0.431166
3.57 0.417668
3.58 0.403726
3.59 0.389371
3.6 0.374622
3.61 0.35946
3.62 0.343937
3.63 0.328081
3.64 0.311926
3.65 0.295515
3.66 0.27891
3.67 0.262188
3.68 0.24546
3.69 0.228856
3.7 0.212511
3.71 0.196577
3.72 0.181218
3.73 0.166607
3.74 0.153022
3.75 0.140596
3.76 0.129476
3.77 0.119822
3.78 0.111775
3.79 0.105461
3.8 0.101038
3.81 0.0986987
3.82 0.0983232
3.83 0.0999232
3.84 0.103483
3.85 0.108958
3.86 0.116278
3.87 0.125485
3.88 0.136363
3.89 0.148718
3.9 0.162401
3.91 0.177259
3.92 0.193132
3.93 0.209876
3.94 0.227371
3.95 0.245391
3.96 0.263798
3.97 0.282467
3.98 0.301285
3.99 0.320151
4 0.338966
4.01 0.357646
4.02 0.376126
4.03 0.394349
4.04 0.41226
4.05 0.429807
4.06 0.446936
4.07 0.463538
4.08 0.479601
4.09 0.49506
4.1 0.509842
4.11 0.523867
4.12 0.53705
4.13 0.549233
4.14 0.560305
4.15 0.570217
4.16 0.578864
4.17 0.586146
4.18 0.591963
4.19 0.596226
4.2 0.598661
4.21 0.599375
4.22 0.598326
4.23 0.595482
4.24 0.590829
4.25 0.584371
4.26 0.576047
4.27 0.565873
4.28 0.554033
4.29 0.540603
4.3 0.525672
4.31 0.509339
4.32 0.491709
4.33 0.472783
4.34 0.452785
4.35 0.431841
4.36 0.410055
4.37 0.387522
4.38 0.364331
4.39 0.340542
4.4 0.316212
4.41 0.291443
4.42 0.266284
4.43 0.240778
4.44 0.214961
4.45 0.188866
4.46 0.162507
4.47 0.135939
4.48 0.109204
4.49 0.0823498
4.5 0.0554277
4.51 0.0285
4.52 0.00164325
4.53 -0.0250383
4.54 -0.0514565
4.55 -0.0775074
4.56 -0.10308
4.57 -0.128058
4.58 -0.152323
4.59 -0.175682
4.6 -0.198043
4.61 -0.219332
4.62 -0.239458
4.63 -0.25834
4.64 -0.275918
4.65 -0.292126
4.66 -0.306825
4.67 -0.320159
4.68 -0.332154
4.69 -0.342858
4.7 -0.35234
4.71 -0.360685
4.72 -0.367931
4.73 -0.374231
4.74 -0.379757
4.75 -0.384635
4.76 -0.388991
4.77 -0.392946
4.78 -0.396615
4.79 -0.400089
4.8 -0.403484
4.81 -0.406864
4.82 -0.41028
4.83 -0.413761
4.84 -0.417317
4.85 -0.420944
4.86 -0.424612
4.87 -0.428273
4.88 -0.431873
4.89 -0.435352
4.9 -0.438641
4.91 -0.441672
4.92 -0.444334
4.93 -0.446596
4.94 -0.448406
4.95 -0.449724
4.96 -0.45052
4.97 -0.450777
4.98 -0.45047
4.99 -0.449598
5 -0.448227
5.01 -0.446392
5.02 -0.444138
5.03 -0.441513
5.04 -0.438572
5.05 -0.435343
5.06 -0.431903
5.07 -0.428296
5.08 -0.424554
5.09 -0.420699
5.1 -0.416739
5.11 -0.412665
5.12 -0.40845
5.13 -0.40407
5.14 -0.399481
5.15 -0.394631
5.16 -0.389461
5.17 -0.38391
5.18 -0.377872
5.19 -0.37131
5.2 -0.364189
5.21 -0.356472
5.22 -0.348136
5.23 -0.339177
5.24 -0.329593
5.25 -0.319384
5.26 -0.308665
5.27 -0.297514
5.28 -0.286029
5.29 -0.274321
5.3 -0.262518
5.31 -0.250771
5.32 -0.239242
5.33 -0.228073
5.34 -0.217406
5.35 -0.207376
5.36 -0.198105
5.37 -0.189711
5.38 -0.182378
5.39 -0.176072
5.4 -0.17083
5.41 -0.16666
5.42 -0.163549
5.43 -0.161457
5.44 -0.160378
5.45 -0.1602
5.46 -0.160769
5.47 -0.161966
5.48 -0.163665
5.49 -0.165733
5.5 -0.168036
5.51 -0.170441
5.52 -0.172805
5.53 -0.175018
5.54 -0.176985
5.55 -0.178628
5.56 -0.179885
5.57 -0.180687
5.58 -0.181005
5.59 -0.18086
5.6 -0.180261
5.61 -0.179229
5.62 -0.177795
5.63 -0.175994
5.64 -0.173833
5.65 -0.171384
5.66 -0.168681
5.67 -0.165748
5.68 -0.162597
5.69 -0.15923
5.7 -0.155622
5.71 -0.151736
5.72 -0.147546
5.73 -0.142998
5.74 -0.138029
5.75 -0.13257
5.76 -0.126545
5.77 -0.119811
5.78 -0.112338
5.79 -0.104079
5.8 -0.0949811
5.81 -0.0850095
5.82 -0.0741455
5.83 -0.0623619
5.84 -0.0496433
5.85 -0.0361155
5.86 -0.0218515
5.87 -0.00694515
5.88 0.00849053
5.89 0.0243261
5.9 0.0404275
5.91 0.0566084
5.92 0.0727034
5.93 0.0885552
5.94 0.104012
5.95 0.11893
5.96 0.133164
5.97 0.146533
5.98 0.159018
5.99 0.170556
6 0.181111
6.01 0.19067
6.02 0.199247
6.03 0.20681
6.04 0.213459
6.05 0.219316
6.06 0.224473
6.07 0.229035
6.08 0.233112
6.09 0.236811
6.1 0.240226
6.11 0.243489
6.12 0.246684
6.13 0.249876
6.14 0.253112
6.15 0.256418
6.16 0.259801
6.17 0.263236
6.18 0.266671
6.19 0.270042
6.2 0.273264
6.21 0.276238
6.22 0.278856
6.23 0.280931
6.24 0.282389
6.25 0.283112
6.26 0.28299
6.27 0.281924
6.28 0.279827
6.29 0.276569
6.3 0.272084
6.31 0.266418
6.32 0.259572
6.33 0.251567
6.34 0.242443
6.35 0.232264
6.36 0.221014
6.37 0.208893
6.38 0.196021
6.39 0.182515
6.4 0.168495
6.41 0.154084
6.42 0.139394
6.43 0.12455
6.44 0.109672
6.45 0.0948524
6.46 0.0801678
6.47 0.0656821
6.48 0.0514439
6.49 0.0375156
6.5 0.0238958
6.51 0.0105806
6.52 -0.00243892
6.53 -0.0151815
6.54 -0.0276732
6.55 -0.0399399
6.56 -0.0520107
6.57 -0.063939
6.58 -0.0757577
6.59 -0.0874961
6.6 -0.0991778
6.61 -0.11082
6.62 -0.122429
6.63 -0.134006
6.64 -0.145543
6.65 -0.157021
6.66 -0.168414
6.67 -0.179689
6.68 -0.190803
6.69 -0.201688
6.7 -0.212311
6.71 -0.222619
6.72 -0.232557
6.73 -0.242071
6.74 -0.251104
6.75 -0.259559
6.76 -0.267389
6.77 -0.274566
6.78 -0.28104
6.79 -0.286761
6.8 -0.291682
6.81 -0.295747
6.82 -0.298816
6.83 -0.300936
6.84 -0.302063
6.85 -0.302152
6.86 -0.301161
6.87 -0.299046
6.88 -0.295693
6.89 -0.291063
6.9 -0.285187
6.91 -0.278034
6.92 -0.269576
6.93 -0.259793
6.94 -0.248672
6.95 -0.236055
6.96 -0.222099
6.97 -0.206822
6.98 -0.190251
6.99 -0.172426
7 -0.153393
7.01 -0.133157
7.02 -0.111782
7.03 -0.0894227
7.04 -0.0661675
7.05 -0.0421102
7.06 -0.0173497
7.07 0.00801228
7.08 0.0339126
7.09 0.0601926
7.1 0.0867444
7.11 0.11347
7.12 0.140277
7.13 0.167077
7.14 0.193781
7.15 0.220296
7.16 0.246562
7.17 0.272517
7.18 0.298101
7.19 0.32326
7.2 0.347941
7.21 0.372039
7.22 0.39553
7.23 0.418375
7.24 0.440515
7.25 0.461887
7.26 0.482425
7.27 0.502027
7.28 0.520542
7.29 0.537966
7.3 0.554206
7.31 0.56917
7.32 0.582758
7.33 0.594873
7.34 0.605283
7.35 0.613956
7.36 0.620864
7.37 0.625931
7.38 0.629092
7.39 0.630297
7.4 0.629474
7.41 0.626436
7.42 0.621385
7.43 0.614342
7.44 0.605346
7.45 0.594451
7.46 0.581731
7.47 0.567158
7.48 0.55089
7.49 0.533124
7.5 0.513981
7.51 0.493591
7.52 0.472086
7.53 0.449595
7.54 0.426175
7.55 0.402059
7.56 0.37737
7.57 0.352221
7.58 0.326722
7.59 0.300973
7.6 0.275062
7.61 0.249088
7.62 0.223138
7.63 0.197286
7.64 0.171604
7.65 0.146161
7.66 0.12103
7.67 0.0963325
7.68 0.0721129
7.69 0.04845
7.7 0.0254304
7.71 0.00314548
7.72 -0.0183083
7.73 -0.0387811
7.74 -0.0581322
7.75 -0.0763238
7.76 -0.0932546
7.77 -0.108828
7.78 -0.122955
7.79 -0.135556
7.8 -0.146402
7.81 -0.155575
7.82 -0.163077
7.83 -0.168903
7.84 -0.173072
7.85 -0.175625
7.86 -0.176574
7.87 -0.17596
7.88 -0.174019
7.89 -0.170885
7.9 -0.166706
7.91 -0.161644
7.92 -0.155868
7.93 -0.149516
7.94 -0.142815
7.95 -0.135944
7.96 -0.129056
7.97 -0.122289
7.98 -0.115763
7.99 -0.109588
8 -0.103872
8.01 -0.0986263
8.02 -0.0938675
8.03 -0.0895881
8.04 -0.0857571
8.05 -0.0823224
8.06 -0.0792328
8.07 -0.0763777
8.08 -0.0736485
8.09 -0.0709451
8.1 -0.0681677
8.11 -0.065222
8.12 -0.0620187
8.13 -0.0584519
8.14 -0.0545008
8.15 -0.050138
8.16 -0.0453584
8.17 -0.0401799
8.18 -0.0346432
8.19 -0.0287966
8.2 -0.0227424
8.21 -0.0165978
8.22 -0.0104776
8.23 -0.00450453
8.24 0.0011959
8.25 0.00649806
8.26 0.0112156
8.27 0.0152946
8.28 0.0186502
8.29 0.0212178
8.3 0.0229559
8.31 0.0238479
8.32 0.0238582
8.33 0.023028
8.34 0.0214748
8.35 0.0192872
8.36 0.016573
8.37 0.0134548
8.38 0.0100657
8.39 0.00654523
8.4 0.00305877
8.41 -0.00026136
8.42 -0.00329543
8.43 -0.00593991
8.44 -0.00811155
8.45 -0.00972487
8.46 -0.0107304
8.47 -0.0111688
8.48 -0.0110694
8.49 -0.0104887
8.5 -0.009508
8.51 -0.00823067
8.52 -0.00677492
8.53 -0.00530743
8.54 -0.00397727
8.55 -0.00293253
8.56 -0.00231786
8.57 -0.00226927
8.58 -0.00293647
8.59 -0.00447363
8.6 -0.00689746
8.61 -0.0102579
8.62 -0.0145775
8.63 -0.019851
8.64 -0.0260455
8.65 -0.0331693
8.66 -0.0410757
8.67 -0.0496304
8.68 -0.0587091
8.69 -0.0681768
8.7 -0.0778926
8.71 -0.087714
8.72 -0.0974851
8.73 -0.107074
8.74 -0.116371
8.75 -0.125287
8.76 -0.13375
8.77 -0.141714
8.78 -0.149117
8.79 -0.155982
8.8 -0.162361
8.81 -0.168303
8.82 -0.173875
8.83 -0.179156
8.84 -0.184234
8.85 -0.189202
8.86 -0.194171
8.87 -0.199226
8.88 -0.20444
8.89 -0.209871
8.9 -0.21556
8.91 -0.221545
8.92 -0.227818
8.93 -0.234332
8.94 -0.241036
8.95 -0.247855
8.96 -0.254701
8.97 -0.261467
8.98 -0.268
8.99 -0.27419
9 -0.279914
9.01 -0.285054
9.02 -0.289502
9.03 -0.293163
9.04 -0.295912
9.05 -0.297681
9.06 -0.2985
9.07 -0.298372
9.08 -0.297324
9.09 -0.295409
9.1 -0.292703
9.11 -0.289243
9.12 -0.285224
9.13 -0.280787
9.14 -0.276071
9.15 -0.271218
9.16 -0.266368
9.17 -0.261665
9.18 -0.257254
9.19 -0.253221
9.2 -0.249646
9.21 -0.246584
9.22 -0.244064
9.23 -0.242093
9.24 -0.240697
9.25 -0.239781
9.26 -0.239265
9.27 -0.239058
9.28 -0.239059
9.29 -0.239155
9.3 -0.239227
9.31 -0.239134
9.32 -0.238773
9.33 -0.238045
9.34 -0.23687
9.35 -0.235182
9.36 -0.232938
9.37 -0.230069
9.38 -0.226613
9.39 -0.22262
9.4 -0.218143
9.41 -0.213254
9.42 -0.208041
9.43 -0.202601
9.44 -0.197047
9.45 -0.19151
9.46 -0.186095
9.47 -0.180904
9.48 -0.176021
9.49 -0.171518
9.5 -0.167478
9.51 -0.163918
9.52 -0.160815
9.53 -0.158142
9.54 -0.155846
9.55 -0.153853
9.56 -0.152065
9.57 -0.150363
9.58 -0.148595
9.59 -0.146619
9.6 -0.144291
9.61 -0.141469
9.62 -0.138014
9.63 -0.133745
9.64 -0.12854
9.65 -0.122354
9.66 -0.11512
9.67 -0.106796
9.68 -0.097364
9.69 -0.0868321
9.7 -0.0751161
9.71 -0.0624026
9.72 -0.0487748
9.73 -0.0343309
9.74 -0.0191821
9.75 -0.00344852
9.76 0.0127615
9.77 0.0293085
9.78 0.0460434
9.79 0.0628543
9.8 0.0796407
9.81 0.0963163
9.82 0.112811
9.83 0.129041
9.84 0.144994
9.85 0.160655
9.86 0.176026
9.87 0.19112
9.88 0.205959
9.89 0.220566
9.9 0.234975
9.91 0.249236
9.92 0.263379
9.93 0.277429
9.94 0.291397
9.95 0.305286
9.96 0.319069
9.97 0.33272
9.98 0.346193
9.99 0.359425
10 0.37234
10.01 0.384852
10.02 0.396846
10.03 0.408172
10.04 0.418772
10.05 0.428546
10.06 0.437401
10.07 0.445253
10.08 0.452033
10.09 0.457593
10.1 0.461952
10.11 0.465143
10.12 0.467184
10.13 0.468113
10.14 0.467992
10.15 0.466885
10.16 0.464838
10.17 0.462066
10.18 0.458698
10.19 0.454873
10.2 0.450734
10.21 0.44642
10.22 0.442077
10.23 0.437848
10.24 0.433845
10.25 0.430163
10.26 0.426877
10.27 0.424044
10.28 0.4217
10.29 0.419907
10.3 0.418595
10.31 0.417728
10.32 0.417253
10.33 0.417098
10.34 0.417182
10.35 0.417415
10.36 0.41768
10.37 0.417867
10.38 0.417874
10.39 0.417604
10.4 0.416965
10.41 0.415876
10.42 0.414199
10.43 0.411927
10.44 0.409019
10.45 0.405445
10.46 0.401186
10.47 0.396234
10.48 0.390558
10.49 0.384158
10.5 0.3771
10.51 0.369405
10.52 0.361097
10.53 0.3522
10.54 0.342738
10.55 0.332674
10.56 0.322075
10.57 0.310958
10.58 0.299329
10.59 0.287191
10.6 0.274542
10.61 0.26136
10.62 0.247617
10.63 0.233352
10.64 0.218565
10.65 0.203261
10.66 0.18745
10.67 0.171151
10.68 0.154352
10.69 0.137125
10.7 0.119533
10.71 0.101632
10.72 0.0834919
10.73 0.0651872
10.74 0.0468004
10.75 0.0284302
10.76 0.0101715
10.77 -0.00788739
10.78 -0.0256619
10.79 -0.0430731
10.8 -0.0600506
10.81 -0.0764912
10.82 -0.0923649
10.83 -0.107661
10.84 -0.122367
10.85 -0.136483
10.86 -0.150029
10.87 -0.163028
10.88 -0.175492
10.89 -0.187536
10.9 -0.19923
10.91 -0.210649
10.92 -0.221873
10.93 -0.23298
10.94 -0.244049
10.95 -0.25516
10.96 -0.26637
10.97 -0.277726
10.98 -0.289259
10.99 -0.300983
11 -0.312898
11.01 -0.324998
11.02 -0.337222
11.03 -0.349513
11.04 -0.361799
11.05 -0.373999
11.06 -0.386018
11.07 -0.397734
11.08 -0.409027
11.09 -0.419808
11.1 -0.429978
11.11 -0.439441
11.12 -0.44811
11.13 -0.455913
11.14 -0.462679
11.15 -0.468456
11.16 -0.473223
11.17 -0.476971
11.18 -0.479702
11.19 -0.481436
11.2 -0.482162
11.21 -0.481909
11.22 -0.480797
11.23 -0.478886
11.24 -0.476239
11.25 -0.472918
11.26 -0.468983
11.27 -0.464442
11.28 -0.459391
11.29 -0.45388
11.3 -0.447937
11.31 -0.441579
11.32 -0.434815
11.33 -0.427626
11.34 -0.419978
11.35 -0.41188
11.36 -0.403305
11.37 -0.394219
11.38 -0.384589
11.39 -0.374381
11.4 -0.363509
11.41 -0.351981
11.42 -0.339802
11.43 -0.326964
11.44 -0.313475
11.45 -0.299353
11.46 -0.284615
11.47 -0.269276
11.48 -0.253449
11.49 -0.237207
11.5 -0.220631
11.51 -0.203809
11.52 -0.186839
11.53 -0.169824
11.54 -0.152881
11.55 -0.136111
11.56 -0.119611
11.57 -0.103471
11.58 -0.0877737
11.59 -0.072599
11.6 -0.0580678
11.61 -0.0441718
11.62 -0.0309455
11.63 -0.0184106
11.64 -0.00657695
11.65 0.00455705
11.66 0.0149593
11.67 0.0246654
11.68 0.0337405
11.69 0.0422199
11.7 0.0501427
11.71 0.0575496
11.72 0.0644808
11.73 0.0709314
11.74 0.0769914
11.75 0.0826932
11.76 0.0880647
11.77 0.0931288
11.78 0.0979031
11.79 0.102386
11.8 0.106583
11.81 0.110515
11.82 0.11418
11.83 0.117577
11.84 0.120699
11.85 0.123543
11.86 0.126071
11.87 0.128307
11.88 0.13025
11.89 0.1319
11.9 0.133256
11.91 0.134322
11.92 0.135088
11.93 0.135551
11.94 0.135736
11.95 0.135647
11.96 0.135285
11.97 0.134649
11.98 0.133734
11.99 0.132501
12 0.130957
12.01 0.129084
12.02 0.126856
12.03 0.124241
12.04 0.121198
12.05 0.117669
12.06 0.113573
12.07 0.108899
12.08 0.103597
12.09 0.0976166
12.1 0.0909088
12.11 0.0834305
12.12 0.0750716
12.13 0.0658443
12.14 0.0557563
12.15 0.0448012
12.16 0.0329848
12.17 0.0203262
