# xPDFsuite Configuration #
[PDF]
wavelength = 0.1
dataformat = QA
inputfile = BiMsol6_insitu_700 C-00600.xy
backgroundfile = Quartz2mm-dist500-00000.xy
mode = xray
bgscale = 0.0042
composition = Bi2Fe4O9
outputtype = gr
qmaxinst = 24.998449118
qmin = 0.1
qmax = 21.4986662415
rmax = 80.0
rmin = 0.0
rstep = 0.01
rpoly = 0.9

[Misc]
inputdir = C:/Data/Seafile/CPH/Beamtime/Desy Oct 20/In situ data/Processed/BiMsol6/PDF
savedir = C:/Data/Seafile/CPH/Beamtime/Desy Oct 20/In situ data/PDF/BiMsol6
backgroundfilefull = C:/Data/Seafile/CPH/Beamtime/Desy Oct 20/In situ data/Processed/Standard_Empty_Cap/Quartz2mm-dist500-00000.xy

#### start data
#S 1
#L r($\AA$)  G($\AA^{-2}$)
0 0
0.01 0.00582463
0.02 0.0113166
0.03 0.0161913
0.04 0.0201935
0.05 0.023109
0.06 0.024775
0.07 0.0250135
0.08 0.0237736
0.09 0.0211879
0.1 0.0173661
0.11 0.0124774
0.12 0.00674356
0.13 0.0004286
0.14 -0.00616989
0.15 -0.0126801
0.16 -0.0187883
0.17 -0.0242003
0.18 -0.0286533
0.19 -0.0319284
0.2 -0.0338014
0.21 -0.034121
0.22 -0.0329817
0.23 -0.0304486
0.24 -0.0266592
0.25 -0.0218189
0.26 -0.0161926
0.27 -0.0100839
0.28 -0.00392203
0.29 0.00191085
0.3 0.00704399
0.31 0.0111261
0.32 0.0138428
0.33 0.0148763
0.34 0.0139177
0.35 0.0110235
0.36 0.00619899
0.37 -0.000453325
0.38 -0.00873231
0.39 -0.0183412
0.4 -0.0289335
0.41 -0.0399268
0.42 -0.0507504
0.43 -0.0608236
0.44 -0.0695469
0.45 -0.0763241
0.46 -0.0805248
0.47 -0.0813361
0.48 -0.07859
0.49 -0.0719625
0.5 -0.0612447
0.51 -0.0463566
0.52 -0.027356
0.53 -0.00418503
0.54 0.0226301
0.55 0.0524003
0.56 0.0844851
0.57 0.118137
0.58 0.152523
0.59 0.186734
0.6 0.219611
0.61 0.250252
0.62 0.277745
0.63 0.301238
0.64 0.319964
0.65 0.333265
0.66 0.340226
0.67 0.340476
0.68 0.334187
0.69 0.321367
0.7 0.302198
0.71 0.277032
0.72 0.246381
0.73 0.210439
0.74 0.170624
0.75 0.127856
0.76 0.0831075
0.77 0.0373916
0.78 -0.0082728
0.79 -0.0527849
0.8 -0.0950365
0.81 -0.134269
0.82 -0.169753
0.83 -0.200889
0.84 -0.227222
0.85 -0.248448
0.86 -0.263886
0.87 -0.274055
0.88 -0.279237
0.89 -0.279782
0.9 -0.276163
0.91 -0.268956
0.92 -0.258733
0.93 -0.246229
0.94 -0.232412
0.95 -0.218026
0.96 -0.203789
0.97 -0.190369
0.98 -0.178362
0.99 -0.168493
1 -0.161066
1.01 -0.156297
1.02 -0.154331
1.03 -0.155199
1.04 -0.158821
1.05 -0.165077
1.06 -0.173783
1.07 -0.184344
1.08 -0.19634
1.09 -0.209312
1.1 -0.222789
1.11 -0.236301
1.12 -0.249336
1.13 -0.261459
1.14 -0.27235
1.15 -0.281739
1.16 -0.28943
1.17 -0.295307
1.18 -0.299301
1.19 -0.301319
1.2 -0.301676
1.21 -0.300563
1.22 -0.29822
1.23 -0.294922
1.24 -0.290967
1.25 -0.286655
1.26 -0.282335
1.27 -0.278288
1.28 -0.27475
1.29 -0.27191
1.3 -0.269903
1.31 -0.268816
1.32 -0.268761
1.33 -0.269584
1.34 -0.271178
1.35 -0.273389
1.36 -0.276028
1.37 -0.278876
1.38 -0.281684
1.39 -0.284177
1.4 -0.286134
1.41 -0.287354
1.42 -0.287668
1.43 -0.286951
1.44 -0.285125
1.45 -0.282045
1.46 -0.277879
1.47 -0.272733
1.48 -0.26676
1.49 -0.260159
1.5 -0.253161
1.51 -0.246035
1.52 -0.2391
1.53 -0.23264
1.54 -0.22692
1.55 -0.222178
1.56 -0.218618
1.57 -0.216398
1.58 -0.215773
1.59 -0.216659
1.6 -0.218997
1.61 -0.222687
1.62 -0.227569
1.63 -0.233425
1.64 -0.240003
1.65 -0.246968
1.66 -0.253925
1.67 -0.260521
1.68 -0.266402
1.69 -0.271229
1.7 -0.274688
1.71 -0.276335
1.72 -0.27603
1.73 -0.273667
1.74 -0.269161
1.75 -0.262497
1.76 -0.253728
1.77 -0.24293
1.78 -0.230206
1.79 -0.215993
1.8 -0.200593
1.81 -0.184345
1.82 -0.16761
1.83 -0.150757
1.84 -0.1342
1.85 -0.118318
1.86 -0.10341
1.87 -0.0897404
1.88 -0.0775235
1.89 -0.0669149
1.9 -0.058033
1.91 -0.0510533
1.92 -0.0457476
1.93 -0.0420044
1.94 -0.0396597
1.95 -0.0385052
1.96 -0.0382979
1.97 -0.0387981
1.98 -0.0396753
1.99 -0.0406244
2 -0.0413889
2.01 -0.0417406
2.02 -0.0414893
2.03 -0.0404884
2.04 -0.0385513
2.05 -0.035749
2.06 -0.0321241
2.07 -0.0277771
2.08 -0.022863
2.09 -0.0175853
2.1 -0.012198
2.11 -0.0070239
2.12 -0.00236735
2.13 0.00146698
2.14 0.00418138
2.15 0.00549694
2.16 0.00516475
2.17 0.00275506
2.18 -0.0017071
2.19 -0.00829441
2.2 -0.0170317
2.21 -0.0278802
2.22 -0.0407375
2.23 -0.0555139
2.24 -0.071993
2.25 -0.0897647
2.26 -0.108512
2.27 -0.12789
2.28 -0.147538
2.29 -0.167092
2.3 -0.186117
2.31 -0.204278
2.32 -0.221287
2.33 -0.236887
2.34 -0.250871
2.35 -0.263087
2.36 -0.273374
2.37 -0.281609
2.38 -0.287988
2.39 -0.292603
2.4 -0.295602
2.41 -0.29717
2.42 -0.297531
2.43 -0.296873
2.44 -0.29555
2.45 -0.293861
2.46 -0.292068
2.47 -0.290421
2.48 -0.289142
2.49 -0.288442
2.5 -0.28854
2.51 -0.289483
2.52 -0.29133
2.53 -0.294094
2.54 -0.297747
2.55 -0.302222
2.56 -0.30746
2.57 -0.31328
2.58 -0.319494
2.59 -0.325929
2.6 -0.332405
2.61 -0.338744
2.62 -0.344771
2.63 -0.350271
2.64 -0.355152
2.65 -0.359313
2.66 -0.362682
2.67 -0.365214
2.68 -0.366899
2.69 -0.367702
2.7 -0.367691
2.71 -0.366984
2.72 -0.365673
2.73 -0.363865
2.74 -0.361676
2.75 -0.359222
2.76 -0.356617
2.77 -0.353992
2.78 -0.35144
2.79 -0.349037
2.8 -0.346839
2.81 -0.344884
2.82 -0.343202
2.83 -0.341785
2.84 -0.340588
2.85 -0.339566
2.86 -0.338661
2.87 -0.337805
2.88 -0.336923
2.89 -0.335921
2.9 -0.334727
2.91 -0.333276
2.92 -0.331508
2.93 -0.329378
2.94 -0.32685
2.95 -0.323884
2.96 -0.320459
2.97 -0.316614
2.98 -0.312362
2.99 -0.307726
3 -0.302732
3.01 -0.297405
3.02 -0.291738
3.03 -0.285768
3.04 -0.279502
3.05 -0.272924
3.06 -0.266005
3.07 -0.258693
3.08 -0.250904
3.09 -0.242507
3.1 -0.233435
3.11 -0.223566
3.12 -0.21277
3.13 -0.200908
3.14 -0.187841
3.15 -0.173311
3.16 -0.157249
3.17 -0.139595
3.18 -0.120268
3.19 -0.0992135
3.2 -0.076408
3.21 -0.0518292
3.22 -0.0254114
3.23 0.00257868
3.24 0.0320019
3.25 0.0626813
3.26 0.0944048
3.27 0.126928
3.28 0.159997
3.29 0.193258
3.3 0.226378
3.31 0.25904
3.32 0.290924
3.33 0.32172
3.34 0.351112
3.35 0.378631
3.36 0.404186
3.37 0.427568
3.38 0.448599
3.39 0.467142
3.4 0.483099
3.41 0.496245
3.42 0.506586
3.43 0.514297
3.44 0.51944
3.45 0.522109
3.46 0.522425
3.47 0.520528
3.48 0.51636
3.49 0.510342
3.5 0.502654
3.51 0.493476
3.52 0.482983
3.53 0.471345
3.54 0.458679
3.55 0.445145
3.56 0.430938
3.57 0.41618
3.58 0.400978
3.59 0.385431
3.6 0.369624
3.61 0.353625
3.62 0.33753
3.63 0.32141
3.64 0.30533
3.65 0.289358
3.66 0.273566
3.67 0.25804
3.68 0.242885
3.69 0.228167
3.7 0.213978
3.71 0.200414
3.72 0.187575
3.73 0.175564
3.74 0.16458
3.75 0.15467
3.76 0.145908
3.77 0.138381
3.78 0.132171
3.79 0.127346
3.8 0.124005
3.81 0.122283
3.82 0.122075
3.83 0.123389
3.84 0.126219
3.85 0.130543
3.86 0.136326
3.87 0.14363
3.88 0.15232
3.89 0.162276
3.9 0.17342
3.91 0.18567
3.92 0.198937
3.93 0.213149
3.94 0.228272
3.95 0.244129
3.96 0.260631
3.97 0.277692
3.98 0.295229
3.99 0.313158
4 0.331412
4.01 0.349887
4.02 0.368486
4.03 0.387119
4.04 0.405694
4.05 0.424114
4.06 0.442274
4.07 0.460013
4.08 0.477246
4.09 0.49385
4.1 0.509698
4.11 0.524662
4.12 0.538607
4.13 0.551325
4.14 0.562671
4.15 0.572588
4.16 0.580962
4.17 0.587689
4.18 0.592679
4.19 0.595858
4.2 0.596954
4.21 0.596134
4.22 0.593394
4.23 0.588745
4.24 0.582217
4.25 0.573861
4.26 0.563664
4.27 0.551696
4.28 0.538179
4.29 0.523227
4.3 0.506962
4.31 0.489509
4.32 0.470994
4.33 0.451458
4.34 0.431112
4.35 0.410078
4.36 0.388451
4.37 0.366316
4.38 0.343745
4.39 0.320781
4.4 0.29746
4.41 0.27384
4.42 0.249941
4.43 0.225772
4.44 0.20134
4.45 0.176649
4.46 0.151679
4.47 0.126456
4.48 0.101004
4.49 0.0753463
4.5 0.049521
4.51 0.0235778
4.52 -0.00241894
4.53 -0.0283775
4.54 -0.0541988
4.55 -0.0797758
4.56 -0.104991
4.57 -0.12972
4.58 -0.153832
4.59 -0.177128
4.6 -0.199494
4.61 -0.22084
4.62 -0.241058
4.63 -0.260054
4.64 -0.277751
4.65 -0.29407
4.66 -0.308857
4.67 -0.322247
4.68 -0.334257
4.69 -0.344932
4.7 -0.354334
4.71 -0.362549
4.72 -0.369613
4.73 -0.375683
4.74 -0.38094
4.75 -0.385517
4.76 -0.389549
4.77 -0.39317
4.78 -0.396502
4.79 -0.399654
4.8 -0.402751
4.81 -0.405872
4.82 -0.409075
4.83 -0.412399
4.84 -0.415864
4.85 -0.419474
4.86 -0.423204
4.87 -0.427003
4.88 -0.430816
4.89 -0.434577
4.9 -0.438212
4.91 -0.441643
4.92 -0.444754
4.93 -0.447493
4.94 -0.449793
4.95 -0.4516
4.96 -0.452866
4.97 -0.45356
4.98 -0.453636
4.99 -0.453076
5 -0.451937
5.01 -0.450244
5.02 -0.448033
5.03 -0.445348
5.04 -0.442239
5.05 -0.438726
5.06 -0.4349
5.07 -0.430814
5.08 -0.426511
5.09 -0.422025
5.1 -0.417381
5.11 -0.412586
5.12 -0.407633
5.13 -0.402521
5.14 -0.397225
5.15 -0.391711
5.16 -0.385938
5.17 -0.379861
5.18 -0.373396
5.19 -0.366512
5.2 -0.359178
5.21 -0.351362
5.22 -0.343039
5.23 -0.334203
5.24 -0.324846
5.25 -0.314965
5.26 -0.304651
5.27 -0.293967
5.28 -0.282993
5.29 -0.271821
5.3 -0.26056
5.31 -0.249339
5.32 -0.238297
5.33 -0.227559
5.34 -0.217251
5.35 -0.207492
5.36 -0.198392
5.37 -0.190057
5.38 -0.182651
5.39 -0.176149
5.4 -0.170585
5.41 -0.165969
5.42 -0.162292
5.43 -0.159518
5.44 -0.157643
5.45 -0.156568
5.46 -0.156156
5.47 -0.156298
5.48 -0.156881
5.49 -0.157785
5.5 -0.158889
5.51 -0.160072
5.52 -0.161207
5.53 -0.162196
5.54 -0.162957
5.55 -0.163423
5.56 -0.163543
5.57 -0.163264
5.58 -0.162568
5.59 -0.161485
5.6 -0.160035
5.61 -0.158249
5.62 -0.156169
5.63 -0.153839
5.64 -0.151293
5.65 -0.148601
5.66 -0.145804
5.67 -0.142935
5.68 -0.140012
5.69 -0.137043
5.7 -0.134014
5.71 -0.130893
5.72 -0.127641
5.73 -0.124197
5.74 -0.120492
5.75 -0.116443
5.76 -0.111963
5.77 -0.1069
5.78 -0.101192
5.79 -0.0947636
5.8 -0.0875399
5.81 -0.0794572
5.82 -0.0704691
5.83 -0.0605174
5.84 -0.0495515
5.85 -0.0376746
5.86 -0.0249353
5.87 -0.0114057
5.88 0.00281935
5.89 0.017625
5.9 0.0329041
5.91 0.048465
5.92 0.0641356
5.93 0.079753
5.94 0.0951546
5.95 0.110183
5.96 0.124676
5.97 0.138438
5.98 0.151408
5.99 0.1635
6 0.174649
6.01 0.184814
6.02 0.193982
6.03 0.202094
6.04 0.209225
6.05 0.215481
6.06 0.220942
6.07 0.225701
6.08 0.229864
6.09 0.233535
6.1 0.236804
6.11 0.239825
6.12 0.242691
6.13 0.245486
6.14 0.248273
6.15 0.251098
6.16 0.25399
6.17 0.256945
6.18 0.259934
6.19 0.262906
6.2 0.265794
6.21 0.26851
6.22 0.270955
6.23 0.272959
6.24 0.274436
6.25 0.275268
6.26 0.275339
6.27 0.274539
6.28 0.272773
6.29 0.269898
6.3 0.265832
6.31 0.260607
6.32 0.254206
6.33 0.24664
6.34 0.237937
6.35 0.228152
6.36 0.21726
6.37 0.205461
6.38 0.192874
6.39 0.17962
6.4 0.165826
6.41 0.151621
6.42 0.137129
6.43 0.122486
6.44 0.107827
6.45 0.0932537
6.46 0.0788549
6.47 0.0647039
6.48 0.0508567
6.49 0.0373869
6.5 0.0242904
6.51 0.0115603
6.52 -0.000817255
6.53 -0.0128687
6.54 -0.0246309
6.55 -0.0361423
6.56 -0.0474484
6.57 -0.0586208
6.58 -0.0697089
6.59 -0.0807578
6.6 -0.0918061
6.61 -0.102883
6.62 -0.114014
6.63 -0.125202
6.64 -0.136438
6.65 -0.147702
6.66 -0.158962
6.67 -0.170176
6.68 -0.181287
6.69 -0.192212
6.7 -0.202892
6.71 -0.213253
6.72 -0.223217
6.73 -0.232708
6.74 -0.241649
6.75 -0.249916
6.76 -0.257447
6.77 -0.264209
6.78 -0.270144
6.79 -0.275203
6.8 -0.279341
6.81 -0.282515
6.82 -0.284591
6.83 -0.285652
6.84 -0.285678
6.85 -0.284656
6.86 -0.282575
6.87 -0.279426
6.88 -0.275135
6.89 -0.269701
6.9 -0.263181
6.91 -0.255568
6.92 -0.246859
6.93 -0.23705
6.94 -0.22614
6.95 -0.214001
6.96 -0.20076
6.97 -0.186425
6.98 -0.171008
6.99 -0.154524
7 -0.136995
7.01 -0.1184
7.02 -0.0987662
7.03 -0.0782068
7.04 -0.0567757
7.05 -0.0345342
7.06 -0.0115517
7.07 0.0120961
7.08 0.036378
7.09 0.0611443
7.1 0.0862945
7.11 0.111733
7.12 0.137364
7.13 0.16309
7.14 0.188811
7.15 0.214416
7.16 0.239816
7.17 0.264924
7.18 0.289658
7.19 0.313939
7.2 0.337693
7.21 0.36079
7.22 0.383198
7.23 0.404869
7.24 0.425745
7.25 0.445768
7.26 0.464883
7.27 0.483004
7.28 0.500005
7.29 0.515916
7.3 0.530677
7.31 0.544227
7.32 0.556506
7.33 0.567449
7.34 0.576874
7.35 0.584773
7.36 0.591135
7.37 0.595901
7.38 0.599018
7.39 0.600435
7.4 0.600081
7.41 0.597773
7.42 0.593663
7.43 0.587743
7.44 0.580015
7.45 0.570495
7.46 0.55921
7.47 0.546088
7.48 0.531232
7.49 0.514796
7.5 0.496863
7.51 0.47753
7.52 0.4569
7.53 0.435081
7.54 0.412097
7.55 0.388204
7.56 0.363534
7.57 0.33822
7.58 0.312395
7.59 0.286193
7.6 0.25974
7.61 0.233184
7.62 0.206664
7.63 0.1803
7.64 0.154209
7.65 0.128502
7.66 0.103288
7.67 0.0787452
7.68 0.0549179
7.69 0.031895
7.7 0.00976385
7.71 -0.0113923
7.72 -0.0314954
7.73 -0.0504149
7.74 -0.0680483
7.75 -0.0844148
7.76 -0.0994617
7.77 -0.113144
7.78 -0.125426
7.79 -0.136281
7.8 -0.145549
7.81 -0.153349
7.82 -0.159716
7.83 -0.164677
7.84 -0.168269
7.85 -0.170546
7.86 -0.171529
7.87 -0.171259
7.88 -0.169927
7.89 -0.167635
7.9 -0.164493
7.91 -0.160619
7.92 -0.156131
7.93 -0.151118
7.94 -0.145744
7.95 -0.140135
7.96 -0.134399
7.97 -0.128633
7.98 -0.122921
7.99 -0.117343
8 -0.111971
8.01 -0.106832
8.02 -0.101947
8.03 -0.0973215
8.04 -0.0929471
8.05 -0.0888017
8.06 -0.0848633
8.07 -0.0810741
8.08 -0.0773755
8.09 -0.0737131
8.1 -0.0700325
8.11 -0.0662817
8.12 -0.0624121
8.13 -0.0583683
8.14 -0.0541384
8.15 -0.0497105
8.16 -0.0450863
8.17 -0.0402821
8.18 -0.0353282
8.19 -0.0302658
8.2 -0.0251638
8.21 -0.0200971
8.22 -0.0151434
8.23 -0.010385
8.24 -0.0059063
8.25 -0.00179142
8.26 0.00182494
8.27 0.00491891
8.28 0.00743554
8.29 0.00933435
8.3 0.0105913
8.31 0.0112005
8.32 0.0111408
8.33 0.0104494
8.34 0.00921977
8.35 0.00752363
8.36 0.0054471
8.37 0.00308798
8.38 0.000552479
8.39 -0.00204319
8.4 -0.00456982
8.41 -0.00692014
8.42 -0.00899572
8.43 -0.0107103
8.44 -0.0119931
8.45 -0.0127686
8.46 -0.0129904
8.47 -0.0126915
8.48 -0.0118928
8.49 -0.0106384
8.5 -0.00899467
8.51 -0.00704813
8.52 -0.0048956
8.53 -0.00268736
8.54 -0.000558801
8.55 0.00135293
8.56 0.0029099
8.57 0.00397798
8.58 0.00440614
8.59 0.00403215
8.6 0.00281712
8.61 0.000689946
8.62 -0.00239746
8.63 -0.00646857
8.64 -0.0115214
8.65 -0.0176071
8.66 -0.0246083
8.67 -0.0324157
8.68 -0.0409293
8.69 -0.0500325
8.7 -0.0595966
8.71 -0.0694887
8.72 -0.0795625
8.73 -0.0896512
8.74 -0.0996224
8.75 -0.109354
8.76 -0.118738
8.77 -0.127684
8.78 -0.136077
8.79 -0.143882
8.8 -0.151096
8.81 -0.15772
8.82 -0.163772
8.83 -0.169292
8.84 -0.174328
8.85 -0.178921
8.86 -0.1832
8.87 -0.18725
8.88 -0.191157
8.89 -0.195006
8.9 -0.198874
8.91 -0.202837
8.92 -0.206957
8.93 -0.211263
8.94 -0.215775
8.95 -0.220494
8.96 -0.225403
8.97 -0.23047
8.98 -0.23565
8.99 -0.240859
9 -0.246022
9.01 -0.251056
9.02 -0.255872
9.03 -0.260383
9.04 -0.264479
9.05 -0.268067
9.06 -0.271108
9.07 -0.273549
9.08 -0.275351
9.09 -0.276495
9.1 -0.276975
9.11 -0.276739
9.12 -0.275885
9.13 -0.274469
9.14 -0.272553
9.15 -0.270211
9.16 -0.267522
9.17 -0.264566
9.18 -0.261437
9.19 -0.258238
9.2 -0.255049
9.21 -0.251941
9.22 -0.248975
9.23 -0.246198
9.24 -0.243668
9.25 -0.241388
9.26 -0.239352
9.27 -0.237548
9.28 -0.235947
9.29 -0.234513
9.3 -0.2332
9.31 -0.231947
9.32 -0.230687
9.33 -0.22936
9.34 -0.227908
9.35 -0.226277
9.36 -0.224424
9.37 -0.222286
9.38 -0.219851
9.39 -0.217117
9.4 -0.214087
9.41 -0.210774
9.42 -0.207204
9.43 -0.203409
9.44 -0.199427
9.45 -0.195329
9.46 -0.191169
9.47 -0.187002
9.48 -0.182878
9.49 -0.178844
9.5 -0.174949
9.51 -0.171217
9.52 -0.167654
9.53 -0.164257
9.54 -0.161009
9.55 -0.157875
9.56 -0.154809
9.57 -0.151739
9.58 -0.148583
9.59 -0.145254
9.6 -0.141659
9.61 -0.137698
9.62 -0.133273
9.63 -0.128246
9.64 -0.122514
9.65 -0.116029
9.66 -0.108719
9.67 -0.100528
9.68 -0.0914164
9.69 -0.0813587
9.7 -0.0702407
9.71 -0.0581871
9.72 -0.0452334
9.73 -0.03143
9.74 -0.0168421
9.75 -0.00154734
9.76 0.0143922
9.77 0.0308723
9.78 0.0477507
9.79 0.0649234
9.8 0.0822873
9.81 0.099743
9.82 0.117197
9.83 0.134545
9.84 0.151712
9.85 0.168636
9.86 0.185263
9.87 0.201551
9.88 0.217468
9.89 0.232975
9.9 0.24804
9.91 0.262688
9.92 0.276917
9.93 0.290727
9.94 0.304119
9.95 0.317093
9.96 0.329605
9.97 0.341677
9.98 0.353305
9.99 0.364469
10 0.375144
10.01 0.3853
10.02 0.394881
10.03 0.403807
10.04 0.412084
10.05 0.419668
10.06 0.426516
10.07 0.432589
10.08 0.437852
10.09 0.442208
10.1 0.445679
10.11 0.44829
10.12 0.450049
10.13 0.450976
10.14 0.451106
10.15 0.450472
10.16 0.449087
10.17 0.447099
10.18 0.44459
10.19 0.441651
10.2 0.438378
10.21 0.43487
10.22 0.431223
10.23 0.42755
10.24 0.423948
10.25 0.420499
10.26 0.417275
10.27 0.414334
10.28 0.411727
10.29 0.409523
10.3 0.407696
10.31 0.406241
10.32 0.40514
10.33 0.404358
10.34 0.403846
10.35 0.403554
10.36 0.403398
10.37 0.403288
10.38 0.403138
10.39 0.40286
10.4 0.402367
10.41 0.401571
10.42 0.400336
10.43 0.39862
10.44 0.396355
10.45 0.393481
10.46 0.389945
10.47 0.385706
10.48 0.380694
10.49 0.374871
10.5 0.368275
10.51 0.360905
10.52 0.352766
10.53 0.34387
10.54 0.334236
10.55 0.323814
10.56 0.312698
10.57 0.300928
10.58 0.288536
10.59 0.275553
10.6 0.262015
10.61 0.247937
10.62 0.233339
10.63 0.218297
10.64 0.202848
10.65 0.187029
10.66 0.170879
10.67 0.154437
10.68 0.137729
10.69 0.120818
10.7 0.10376
10.71 0.0866018
10.72 0.0693948
10.73 0.0521906
10.74 0.0350446
10.75 0.0180226
10.76 0.00116939
10.77 -0.015467
10.78 -0.031842
10.79 -0.0479159
10.8 -0.0636545
10.81 -0.0790001
10.82 -0.0939476
10.83 -0.108502
10.84 -0.122663
10.85 -0.136439
10.86 -0.14985
10.87 -0.162915
10.88 -0.175648
10.89 -0.188123
10.9 -0.200386
10.91 -0.212486
10.92 -0.224472
10.93 -0.236392
10.94 -0.248293
10.95 -0.26022
10.96 -0.272204
10.97 -0.284268
10.98 -0.296421
10.99 -0.308664
11 -0.320983
11.01 -0.333353
11.02 -0.345724
11.03 -0.358042
11.04 -0.370241
11.05 -0.382248
11.06 -0.393979
11.07 -0.405321
11.08 -0.416167
11.09 -0.426447
11.1 -0.436072
11.11 -0.444956
11.12 -0.453024
11.13 -0.460205
11.14 -0.466335
11.15 -0.471464
11.16 -0.475572
11.17 -0.478648
11.18 -0.480694
11.19 -0.481726
11.2 -0.481732
11.21 -0.480739
11.22 -0.47887
11.23 -0.476188
11.24 -0.472762
11.25 -0.468662
11.26 -0.463961
11.27 -0.458679
11.28 -0.452933
11.29 -0.446787
11.3 -0.440288
11.31 -0.433473
11.32 -0.426367
11.33 -0.418974
11.34 -0.41128
11.35 -0.403297
11.36 -0.394999
11.37 -0.386356
11.38 -0.377329
11.39 -0.367875
11.4 -0.3579
11.41 -0.347383
11.42 -0.336294
11.43 -0.324598
11.44 -0.312267
11.45 -0.299281
11.46 -0.28562
11.47 -0.271247
11.48 -0.25625
11.49 -0.240668
11.5 -0.224555
11.51 -0.207981
11.52 -0.191024
11.53 -0.173764
11.54 -0.156328
11.55 -0.138835
11.56 -0.1214
11.57 -0.104138
11.58 -0.0871603
11.59 -0.0705832
11.6 -0.0545649
11.61 -0.0391522
11.62 -0.024423
11.63 -0.0104419
11.64 0.00274085
11.65 0.0150904
11.66 0.0265307
11.67 0.0370725
11.68 0.046774
11.69 0.0556632
11.7 0.0637798
11.71 0.0711737
11.72 0.0779013
11.73 0.0839666
11.74 0.0895122
11.75 0.0946065
11.76 0.0993163
11.77 0.103705
11.78 0.10783
11.79 0.111733
11.8 0.115461
11.81 0.119058
11.82 0.122546
11.83 0.125935
11.84 0.129229
11.85 0.132421
11.86 0.135481
11.87 0.138395
11.88 0.141136
11.89 0.143672
11.9 0.145966
11.91 0.147982
11.92 0.149667
11.93 0.150972
11.94 0.151886
11.95 0.152382
11.96 0.152433
11.97 0.152018
11.98 0.15112
11.99 0.149675
12 0.147711
12.01 0.145231
12.02 0.142231
12.03 0.138706
12.04 0.134654
12.05 0.130053
12.06 0.124869
12.07 0.119139
12.08 0.112854
12.09 0.106002
12.1 0.0985664
12.11 0.090532
12.12 0.0818252
12.13 0.0724582
12.14 0.062432
12.15 0.05173
12.16 0.0403391
12.17 0.028251
12.18 0.0154487
