# xPDFsuite Configuration #
[PDF]
wavelength = 0.1
dataformat = QA
inputfile = BiMsol6_insitu_700 C-00724.xy
backgroundfile = Quartz2mm-dist500-00000.xy
mode = xray
bgscale = 0.0042
composition = Bi2Fe4O9
outputtype = gr
qmaxinst = 24.998449118
qmin = 0.1
qmax = 21.4986662415
rmax = 80.0
rmin = 0.0
rstep = 0.01
rpoly = 0.9

[Misc]
inputdir = C:/Data/Seafile/CPH/Beamtime/Desy Oct 20/In situ data/Processed/BiMsol6/PDF
savedir = C:/Data/Seafile/CPH/Beamtime/Desy Oct 20/In situ data/PDF/BiMsol6
backgroundfilefull = C:/Data/Seafile/CPH/Beamtime/Desy Oct 20/In situ data/Processed/Standard_Empty_Cap/Quartz2mm-dist500-00000.xy

#### start data
#S 1
#L r($\AA$)  G($\AA^{-2}$)
0 0
0.01 0.00605118
0.02 0.0117558
0.03 0.0168175
0.04 0.0209704
0.05 0.0239919
0.06 0.0257127
0.07 0.0259481
0.08 0.0246462
0.09 0.0219459
0.1 0.0179625
0.11 0.0128734
0.12 0.00691051
0.13 0.000349828
0.14 -0.00649706
0.15 -0.0132433
0.16 -0.019562
0.17 -0.0251475
0.18 -0.0297265
0.19 -0.0330724
0.2 -0.0349533
0.21 -0.0352137
0.22 -0.0339545
0.23 -0.0312461
0.24 -0.0272341
0.25 -0.0221344
0.26 -0.0162251
0.27 -0.00982493
0.28 -0.00338116
0.29 0.00270824
0.3 0.00805772
0.31 0.0123027
0.32 0.0151178
0.33 0.0161748
0.34 0.0151553
0.35 0.0121225
0.36 0.00708569
0.37 0.00015522
0.38 -0.00845614
0.39 -0.0184367
0.4 -0.0294224
0.41 -0.0408074
0.42 -0.0519992
0.43 -0.0623963
0.44 -0.0713788
0.45 -0.0783325
0.46 -0.0826095
0.47 -0.0833755
0.48 -0.0804664
0.49 -0.073557
0.5 -0.0624425
0.51 -0.0470521
0.52 -0.0274583
0.53 -0.00361889
0.54 0.0239107
0.55 0.0544106
0.56 0.0872111
0.57 0.121534
0.58 0.156516
0.59 0.191219
0.6 0.224442
0.61 0.255272
0.62 0.282783
0.63 0.306112
0.64 0.324489
0.65 0.337259
0.66 0.343506
0.67 0.342883
0.68 0.335593
0.69 0.321675
0.7 0.301346
0.71 0.274992
0.72 0.243166
0.73 0.206109
0.74 0.165276
0.75 0.121618
0.76 0.0761404
0.77 0.0298777
0.78 -0.0161329
0.79 -0.0607697
0.8 -0.102919
0.81 -0.141845
0.82 -0.176832
0.83 -0.207304
0.84 -0.232833
0.85 -0.25315
0.86 -0.267607
0.87 -0.276774
0.88 -0.280975
0.89 -0.280599
0.9 -0.276156
0.91 -0.268252
0.92 -0.257495
0.93 -0.244647
0.94 -0.230672
0.95 -0.216319
0.96 -0.202296
0.97 -0.189258
0.98 -0.177779
0.99 -0.168562
1 -0.161864
1.01 -0.157858
1.02 -0.156648
1.03 -0.158224
1.04 -0.162465
1.05 -0.169208
1.06 -0.178225
1.07 -0.18891
1.08 -0.200822
1.09 -0.213498
1.1 -0.226466
1.11 -0.239268
1.12 -0.251397
1.13 -0.262459
1.14 -0.272176
1.15 -0.280322
1.16 -0.286745
1.17 -0.291379
1.18 -0.294207
1.19 -0.295195
1.2 -0.294695
1.21 -0.292932
1.22 -0.290176
1.23 -0.286723
1.24 -0.282879
1.25 -0.278965
1.26 -0.275308
1.27 -0.272156
1.28 -0.269711
1.29 -0.268122
1.3 -0.267477
1.31 -0.267811
1.32 -0.269176
1.33 -0.271356
1.34 -0.27419
1.35 -0.277477
1.36 -0.280983
1.37 -0.284456
1.38 -0.287603
1.39 -0.290133
1.4 -0.291842
1.41 -0.292538
1.42 -0.292075
1.43 -0.29036
1.44 -0.287359
1.45 -0.282966
1.46 -0.277424
1.47 -0.270901
1.48 -0.263611
1.49 -0.25581
1.5 -0.247784
1.51 -0.239864
1.52 -0.232418
1.53 -0.225741
1.54 -0.220112
1.55 -0.215773
1.56 -0.212917
1.57 -0.21168
1.58 -0.2123
1.59 -0.214621
1.6 -0.218522
1.61 -0.223841
1.62 -0.23035
1.63 -0.237762
1.64 -0.24575
1.65 -0.253897
1.66 -0.261766
1.67 -0.268957
1.68 -0.275082
1.69 -0.279779
1.7 -0.282727
1.71 -0.283457
1.72 -0.281878
1.73 -0.277935
1.74 -0.271591
1.75 -0.262894
1.76 -0.251966
1.77 -0.238962
1.78 -0.224076
1.79 -0.207826
1.8 -0.190592
1.81 -0.17278
1.82 -0.154812
1.83 -0.137105
1.84 -0.120142
1.85 -0.104308
1.86 -0.0898827
1.87 -0.0771172
1.88 -0.0661931
1.89 -0.05722
1.9 -0.0502597
1.91 -0.0454261
1.92 -0.0423823
1.93 -0.0409313
1.94 -0.0408219
1.95 -0.0417597
1.96 -0.0434207
1.97 -0.0454672
1.98 -0.0475038
1.99 -0.0491943
2 -0.0502515
2.01 -0.0504326
2.02 -0.0495499
2.03 -0.0474752
2.04 -0.0440199
2.05 -0.0393601
2.06 -0.033607
2.07 -0.0269403
2.08 -0.0196019
2.09 -0.0118866
2.1 -0.00415163
2.11 0.00317528
2.12 0.00971164
2.13 0.0150781
2.14 0.018914
2.15 0.0208917
2.16 0.0207291
2.17 0.0179248
2.18 0.012561
2.19 0.00459267
2.2 -0.00596473
2.21 -0.0190168
2.22 -0.0343925
2.23 -0.0519294
2.24 -0.0713136
2.25 -0.0920264
2.26 -0.113657
2.27 -0.135768
2.28 -0.157916
2.29 -0.179657
2.3 -0.200447
2.31 -0.219927
2.32 -0.237782
2.33 -0.253736
2.34 -0.267582
2.35 -0.279183
2.36 -0.288393
2.37 -0.295124
2.38 -0.299667
2.39 -0.302185
2.4 -0.3029
2.41 -0.302078
2.42 -0.300024
2.43 -0.297016
2.44 -0.293489
2.45 -0.289804
2.46 -0.286281
2.47 -0.28321
2.48 -0.280849
2.49 -0.279434
2.5 -0.279214
2.51 -0.280191
2.52 -0.2824
2.53 -0.285821
2.54 -0.290383
2.55 -0.295967
2.56 -0.302468
2.57 -0.309636
2.58 -0.317219
2.59 -0.324991
2.6 -0.332722
2.61 -0.340193
2.62 -0.347192
2.63 -0.353459
2.64 -0.358906
2.65 -0.363429
2.66 -0.36696
2.67 -0.369471
2.68 -0.370974
2.69 -0.371455
2.7 -0.371024
2.71 -0.369841
2.72 -0.368037
2.73 -0.365755
2.74 -0.363143
2.75 -0.36035
2.76 -0.357523
2.77 -0.354801
2.78 -0.352284
2.79 -0.350049
2.8 -0.348146
2.81 -0.346599
2.82 -0.345422
2.83 -0.34458
2.84 -0.343995
2.85 -0.343593
2.86 -0.343285
2.87 -0.342977
2.88 -0.34257
2.89 -0.341938
2.9 -0.341004
2.91 -0.339697
2.92 -0.33796
2.93 -0.335755
2.94 -0.333061
2.95 -0.329859
2.96 -0.326155
2.97 -0.322022
2.98 -0.317511
2.99 -0.312674
3 -0.30757
3.01 -0.302253
3.02 -0.296755
3.03 -0.291121
3.04 -0.285363
3.05 -0.279465
3.06 -0.273386
3.07 -0.267059
3.08 -0.260372
3.09 -0.253158
3.1 -0.245295
3.11 -0.236613
3.12 -0.226927
3.13 -0.216046
3.14 -0.203775
3.15 -0.189783
3.16 -0.173964
3.17 -0.15623
3.18 -0.136472
3.19 -0.114621
3.2 -0.0906505
3.21 -0.0645402
3.22 -0.0362252
3.23 -0.00604416
3.24 0.0258149
3.25 0.0591163
3.26 0.0935814
3.27 0.128893
3.28 0.164713
3.29 0.200602
3.3 0.236154
3.31 0.270983
3.32 0.304709
3.33 0.336969
3.34 0.367406
3.35 0.39548
3.36 0.42114
3.37 0.444183
3.38 0.464457
3.39 0.481862
3.4 0.496349
3.41 0.507744
3.42 0.516139
3.43 0.5218
3.44 0.524872
3.45 0.52553
3.46 0.523972
3.47 0.520412
3.48 0.51489
3.49 0.507852
3.5 0.499512
3.51 0.490069
3.52 0.479701
3.53 0.468565
3.54 0.456764
3.55 0.444408
3.56 0.43161
3.57 0.418418
3.58 0.404859
3.59 0.390945
3.6 0.376674
3.61 0.361997
3.62 0.346935
3.63 0.331488
3.64 0.31566
3.65 0.299469
3.66 0.282952
3.67 0.266159
3.68 0.249179
3.69 0.232141
3.7 0.215179
3.71 0.198447
3.72 0.182118
3.73 0.166379
3.74 0.151518
3.75 0.137709
3.76 0.12513
3.77 0.113976
3.78 0.104424
3.79 0.0966377
3.8 0.0908132
3.81 0.0871905
3.82 0.0856737
3.83 0.086303
3.84 0.0890857
3.85 0.093996
3.86 0.100976
3.87 0.110093
3.88 0.121118
3.89 0.133841
3.9 0.148102
3.91 0.163728
3.92 0.180538
3.93 0.198363
3.94 0.21706
3.95 0.236358
3.96 0.25609
3.97 0.276101
3.98 0.296249
3.99 0.316408
4 0.336451
4.01 0.356273
4.02 0.375799
4.03 0.394962
4.04 0.413703
4.05 0.431968
4.06 0.449706
4.07 0.466804
4.08 0.483271
4.09 0.499055
4.1 0.514096
4.11 0.528329
4.12 0.541681
4.13 0.55401
4.14 0.565217
4.15 0.575266
4.16 0.584062
4.17 0.591511
4.18 0.597519
4.19 0.601999
4.2 0.604684
4.21 0.605675
4.22 0.604929
4.23 0.602411
4.24 0.598103
4.25 0.592008
4.26 0.584059
4.27 0.574273
4.28 0.562827
4.29 0.5498
4.3 0.535278
4.31 0.519362
4.32 0.502156
4.33 0.483663
4.34 0.464109
4.35 0.443619
4.36 0.422295
4.37 0.400231
4.38 0.377511
4.39 0.354189
4.4 0.330312
4.41 0.305971
4.42 0.281202
4.43 0.256032
4.44 0.230481
4.45 0.204564
4.46 0.178266
4.47 0.151626
4.48 0.124676
4.49 0.0974462
4.5 0.0699774
4.51 0.0423237
4.52 0.014553
4.53 -0.0132395
4.54 -0.0409408
4.55 -0.0684325
4.56 -0.0955834
4.57 -0.122252
4.58 -0.148288
4.59 -0.173463
4.6 -0.197639
4.61 -0.220698
4.62 -0.242503
4.63 -0.262932
4.64 -0.281883
4.65 -0.299246
4.66 -0.314826
4.67 -0.328758
4.68 -0.341053
4.69 -0.351747
4.7 -0.360906
4.71 -0.368622
4.72 -0.374933
4.73 -0.380026
4.74 -0.384123
4.75 -0.387395
4.76 -0.390016
4.77 -0.392163
4.78 -0.394005
4.79 -0.395705
4.8 -0.397434
4.81 -0.399313
4.82 -0.401439
4.83 -0.403884
4.84 -0.406693
4.85 -0.409905
4.86 -0.413506
4.87 -0.417431
4.88 -0.421617
4.89 -0.425982
4.9 -0.430428
4.91 -0.434847
4.92 -0.439099
4.93 -0.443072
4.94 -0.446658
4.95 -0.449756
4.96 -0.452278
4.97 -0.454153
4.98 -0.455291
4.99 -0.455637
5 -0.455232
5.01 -0.454086
5.02 -0.452225
5.03 -0.449694
5.04 -0.446549
5.05 -0.442809
5.06 -0.438602
5.07 -0.434013
5.08 -0.429114
5.09 -0.423973
5.1 -0.41865
5.11 -0.413186
5.12 -0.407615
5.13 -0.40196
5.14 -0.396222
5.15 -0.390384
5.16 -0.384417
5.17 -0.378283
5.18 -0.371908
5.19 -0.365244
5.2 -0.358241
5.21 -0.350849
5.22 -0.343022
5.23 -0.334726
5.24 -0.325929
5.25 -0.316595
5.26 -0.306793
5.27 -0.296563
5.28 -0.285969
5.29 -0.275095
5.3 -0.264042
5.31 -0.252935
5.32 -0.241929
5.33 -0.231168
5.34 -0.220801
5.35 -0.210973
5.36 -0.201828
5.37 -0.193507
5.38 -0.186222
5.39 -0.179978
5.4 -0.174839
5.41 -0.170847
5.42 -0.168013
5.43 -0.16632
5.44 -0.165788
5.45 -0.166314
5.46 -0.167734
5.47 -0.169923
5.48 -0.172736
5.49 -0.176016
5.5 -0.179598
5.51 -0.18331
5.52 -0.186958
5.53 -0.190387
5.54 -0.193457
5.55 -0.196046
5.56 -0.19805
5.57 -0.199352
5.58 -0.199887
5.59 -0.199676
5.6 -0.198719
5.61 -0.197042
5.62 -0.194689
5.63 -0.19172
5.64 -0.188158
5.65 -0.184149
5.66 -0.179781
5.67 -0.175136
5.68 -0.17029
5.69 -0.165306
5.7 -0.160232
5.71 -0.155098
5.72 -0.149919
5.73 -0.14468
5.74 -0.139348
5.75 -0.133868
5.76 -0.128172
5.77 -0.122134
5.78 -0.115673
5.79 -0.108692
5.8 -0.101088
5.81 -0.0927658
5.82 -0.0836362
5.83 -0.0735953
5.84 -0.062536
5.85 -0.0505073
5.86 -0.0375089
5.87 -0.0235678
5.88 -0.00873931
5.89 0.00689398
5.9 0.0232709
5.91 0.0401995
5.92 0.0574999
5.93 0.074998
5.94 0.0925098
5.95 0.109846
5.96 0.126806
5.97 0.143145
5.98 0.158735
5.99 0.173428
6 0.1871
6.01 0.199651
6.02 0.211011
6.03 0.221048
6.04 0.229798
6.05 0.237341
6.06 0.243738
6.07 0.249069
6.08 0.253441
6.09 0.256966
6.1 0.259728
6.11 0.261955
6.12 0.263784
6.13 0.265349
6.14 0.26677
6.15 0.26815
6.16 0.269581
6.17 0.271126
6.18 0.272805
6.19 0.274618
6.2 0.276532
6.21 0.278491
6.22 0.280412
6.23 0.28216
6.24 0.283616
6.25 0.284643
6.26 0.285097
6.27 0.284832
6.28 0.283706
6.29 0.281531
6.3 0.278161
6.31 0.273569
6.32 0.267687
6.33 0.260474
6.34 0.251917
6.35 0.242032
6.36 0.230737
6.37 0.218239
6.38 0.204657
6.39 0.190118
6.4 0.174769
6.41 0.158767
6.42 0.142266
6.43 0.125452
6.44 0.108525
6.45 0.0916446
6.46 0.0749584
6.47 0.0585962
6.48 0.0426686
6.49 0.0273192
6.5 0.0125768
6.51 -0.00153844
6.52 -0.0150196
6.53 -0.027883
6.54 -0.0401668
6.55 -0.0519143
6.56 -0.0631846
6.57 -0.0741088
6.58 -0.0847804
6.59 -0.0952945
6.6 -0.105744
6.61 -0.116217
6.62 -0.126802
6.63 -0.137563
6.64 -0.148537
6.65 -0.159748
6.66 -0.171196
6.67 -0.182862
6.68 -0.194709
6.69 -0.206675
6.7 -0.21866
6.71 -0.230566
6.72 -0.24228
6.73 -0.253682
6.74 -0.264643
6.75 -0.274983
6.76 -0.284568
6.77 -0.293302
6.78 -0.301068
6.79 -0.30776
6.8 -0.313286
6.81 -0.317555
6.82 -0.320368
6.83 -0.321819
6.84 -0.321884
6.85 -0.320551
6.86 -0.317826
6.87 -0.313725
6.88 -0.308198
6.89 -0.301298
6.9 -0.293145
6.91 -0.283792
6.92 -0.273291
6.93 -0.261695
6.94 -0.249055
6.95 -0.235309
6.96 -0.220615
6.97 -0.205011
6.98 -0.188525
6.99 -0.171181
7 -0.152997
7.01 -0.133944
7.02 -0.114018
7.03 -0.0932805
7.04 -0.0717373
7.05 -0.0493953
7.06 -0.0262647
7.07 -0.00236034
7.08 0.0223706
7.09 0.0478264
7.1 0.0739549
7.11 0.100703
7.12 0.128008
7.13 0.155793
7.14 0.183983
7.15 0.212475
7.16 0.241127
7.17 0.269818
7.18 0.298418
7.19 0.326792
7.2 0.354798
7.21 0.382233
7.22 0.408969
7.23 0.434877
7.24 0.459817
7.25 0.483656
7.26 0.506266
7.27 0.527489
7.28 0.547115
7.29 0.565171
7.3 0.581576
7.31 0.596261
7.32 0.609168
7.33 0.620255
7.34 0.629338
7.35 0.636482
7.36 0.641748
7.37 0.645144
7.38 0.646683
7.39 0.646389
7.4 0.644264
7.41 0.640203
7.42 0.634429
7.43 0.626987
7.44 0.617928
7.45 0.607304
7.46 0.595167
7.47 0.581472
7.48 0.566317
7.49 0.549825
7.5 0.532052
7.51 0.513054
7.52 0.492892
7.53 0.471619
7.54 0.449199
7.55 0.425819
7.56 0.401555
7.57 0.376483
7.58 0.350689
7.59 0.324263
7.6 0.297279
7.61 0.269863
7.62 0.242159
7.63 0.214292
7.64 0.186392
7.65 0.158596
7.66 0.131048
7.67 0.103955
7.68 0.0774386
7.69 0.0516479
7.7 0.026731
7.71 0.0028325
7.72 -0.0199094
7.73 -0.0412974
7.74 -0.061167
7.75 -0.0795071
7.76 -0.0962323
7.77 -0.111275
7.78 -0.124586
7.79 -0.136137
7.8 -0.145746
7.81 -0.153581
7.82 -0.159714
7.83 -0.164206
7.84 -0.167139
7.85 -0.168613
7.86 -0.168697
7.87 -0.167486
7.88 -0.165225
7.89 -0.16206
7.9 -0.158139
7.91 -0.153609
7.92 -0.148614
7.93 -0.143273
7.94 -0.137746
7.95 -0.13215
7.96 -0.12658
7.97 -0.121113
7.98 -0.115809
7.99 -0.110715
8 -0.105868
8.01 -0.101251
8.02 -0.0968485
8.03 -0.0926317
8.04 -0.0885609
8.05 -0.0845875
8.06 -0.0806563
8.07 -0.0767012
8.08 -0.072666
8.09 -0.0685002
8.1 -0.0641609
8.11 -0.0596152
8.12 -0.0548385
8.13 -0.0498036
8.14 -0.0445456
8.15 -0.0390905
8.16 -0.0334791
8.17 -0.0277653
8.18 -0.0220152
8.19 -0.0163128
8.2 -0.0107533
8.21 -0.00542173
8.22 -0.000405593
8.23 0.00421074
8.24 0.00834942
8.25 0.0119401
8.26 0.0148558
8.27 0.0171234
8.28 0.0187236
8.29 0.0196555
8.3 0.0199367
8.31 0.0196033
8.32 0.0186817
8.33 0.0172525
8.34 0.0154359
8.35 0.0133286
8.36 0.0110339
8.37 0.00865808
8.38 0.00630631
8.39 0.00410277
8.4 0.00213338
8.41 0.000472382
8.42 -0.000821263
8.43 -0.00170741
8.44 -0.0021666
8.45 -0.00218317
8.46 -0.00177816
8.47 -0.00103435
8.48 -2.42612e-05
8.49 0.00116167
8.5 0.00241794
8.51 0.00362739
8.52 0.00463532
8.53 0.00531256
8.54 0.00553624
8.55 0.0051866
8.56 0.00415473
8.57 0.00234641
8.58 -0.00034568
8.59 -0.00402532
8.6 -0.00864631
8.61 -0.0142096
8.62 -0.0206914
8.63 -0.0280439
8.64 -0.0361966
8.65 -0.0451111
8.66 -0.0546225
8.67 -0.0645852
8.68 -0.0748657
8.69 -0.0853267
8.7 -0.0958315
8.71 -0.106243
8.72 -0.116409
8.73 -0.126236
8.74 -0.135634
8.75 -0.144537
8.76 -0.152898
8.77 -0.160693
8.78 -0.167879
8.79 -0.174503
8.8 -0.180635
8.81 -0.186336
8.82 -0.191684
8.83 -0.196764
8.84 -0.201668
8.85 -0.206494
8.86 -0.211348
8.87 -0.216311
8.88 -0.221452
8.89 -0.226825
8.9 -0.232466
8.91 -0.238409
8.92 -0.244642
8.93 -0.251116
8.94 -0.257779
8.95 -0.264557
8.96 -0.271363
8.97 -0.278093
8.98 -0.284598
8.99 -0.290771
9 -0.296492
9.01 -0.301644
9.02 -0.306121
9.03 -0.309826
9.04 -0.312633
9.05 -0.314466
9.06 -0.315347
9.07 -0.315268
9.08 -0.314244
9.09 -0.312313
9.1 -0.309536
9.11 -0.305924
9.12 -0.301662
9.13 -0.296874
9.14 -0.291686
9.15 -0.286229
9.16 -0.280634
9.17 -0.275033
9.18 -0.269565
9.19 -0.264332
9.2 -0.259424
9.21 -0.254907
9.22 -0.250833
9.23 -0.247227
9.24 -0.244139
9.25 -0.241514
9.26 -0.239301
9.27 -0.237444
9.28 -0.235872
9.29 -0.234506
9.3 -0.23326
9.31 -0.232032
9.32 -0.230728
9.33 -0.229268
9.34 -0.22758
9.35 -0.225607
9.36 -0.223306
9.37 -0.220622
9.38 -0.217568
9.39 -0.214169
9.4 -0.210459
9.41 -0.206485
9.42 -0.202308
9.43 -0.197999
9.44 -0.193643
9.45 -0.189331
9.46 -0.185144
9.47 -0.181155
9.48 -0.177429
9.49 -0.174016
9.5 -0.170979
9.51 -0.168322
9.52 -0.16602
9.53 -0.164044
9.54 -0.16234
9.55 -0.160837
9.56 -0.159443
9.57 -0.158039
9.58 -0.156489
9.59 -0.154665
9.6 -0.152428
9.61 -0.149645
9.62 -0.146184
9.63 -0.141865
9.64 -0.136571
9.65 -0.130258
9.66 -0.122859
9.67 -0.114327
9.68 -0.104641
9.69 -0.0938038
9.7 -0.0817188
9.71 -0.068574
9.72 -0.0544493
9.73 -0.0394411
9.74 -0.0236613
9.75 -0.00723357
9.76 0.00972989
9.77 0.0270789
9.78 0.044647
9.79 0.0623058
9.8 0.079936
9.81 0.0974301
9.82 0.114695
9.83 0.131617
9.84 0.148163
9.85 0.1643
9.86 0.180011
9.87 0.195294
9.88 0.210161
9.89 0.224625
9.9 0.23871
9.91 0.25249
9.92 0.266007
9.93 0.279303
9.94 0.292415
9.95 0.305372
9.96 0.318183
9.97 0.330862
9.98 0.343401
9.99 0.355776
10 0.367948
10.01 0.379862
10.02 0.391443
10.03 0.402578
10.04 0.413213
10.05 0.423257
10.06 0.432621
10.07 0.441218
10.08 0.448967
10.09 0.455715
10.1 0.461442
10.11 0.466142
10.12 0.469793
10.13 0.472394
10.14 0.473962
10.15 0.47452
10.16 0.47406
10.17 0.472759
10.18 0.470716
10.19 0.468038
10.2 0.464846
10.21 0.461266
10.22 0.457417
10.23 0.453451
10.24 0.449501
10.25 0.445678
10.26 0.442081
10.27 0.438796
10.28 0.435891
10.29 0.433462
10.3 0.431489
10.31 0.429972
10.32 0.428894
10.33 0.428217
10.34 0.427886
10.35 0.427843
10.36 0.427988
10.37 0.428211
10.38 0.428411
10.39 0.428482
10.4 0.428321
10.41 0.427826
10.42 0.42684
10.43 0.425315
10.44 0.423178
10.45 0.420363
10.46 0.416819
10.47 0.412505
10.48 0.407355
10.49 0.401339
10.5 0.394511
10.51 0.386879
10.52 0.378462
10.53 0.369284
10.54 0.359374
10.55 0.348697
10.56 0.337351
10.57 0.325383
10.58 0.312826
10.59 0.29971
10.6 0.286067
10.61 0.271903
10.62 0.257229
10.63 0.242103
10.64 0.226548
10.65 0.210583
10.66 0.194229
10.67 0.177509
10.68 0.160421
10.69 0.143019
10.7 0.125348
10.71 0.107447
10.72 0.089363
10.73 0.0711466
10.74 0.052854
10.75 0.0345536
10.76 0.0163167
10.77 -0.00178992
10.78 -0.0196987
10.79 -0.0373436
10.8 -0.0546617
10.81 -0.0715597
10.82 -0.0879972
10.83 -0.103948
10.84 -0.119382
10.85 -0.13428
10.86 -0.148634
10.87 -0.16244
10.88 -0.175674
10.89 -0.188422
10.9 -0.200726
10.91 -0.212636
10.92 -0.22421
10.93 -0.235511
10.94 -0.246594
10.95 -0.257538
10.96 -0.268415
10.97 -0.279282
10.98 -0.290186
10.99 -0.301167
11 -0.312252
11.01 -0.323468
11.02 -0.334796
11.03 -0.346219
11.04 -0.357701
11.05 -0.369194
11.06 -0.380638
11.07 -0.391946
11.08 -0.403024
11.09 -0.413786
11.1 -0.424138
11.11 -0.433983
11.12 -0.443226
11.13 -0.451776
11.14 -0.459453
11.15 -0.466257
11.16 -0.47213
11.17 -0.477024
11.18 -0.480903
11.19 -0.483747
11.2 -0.485501
11.21 -0.48615
11.22 -0.485793
11.23 -0.484465
11.24 -0.482211
11.25 -0.479085
11.26 -0.475145
11.27 -0.470385
11.28 -0.464937
11.29 -0.458873
11.3 -0.452251
11.31 -0.445121
11.32 -0.437527
11.33 -0.42949
11.34 -0.42102
11.35 -0.412165
11.36 -0.40293
11.37 -0.393313
11.38 -0.383303
11.39 -0.372884
11.4 -0.361996
11.41 -0.350639
11.42 -0.338806
11.43 -0.326476
11.44 -0.313636
11.45 -0.300277
11.46 -0.28639
11.47 -0.27195
11.48 -0.257032
11.49 -0.241671
11.5 -0.225913
11.51 -0.209818
11.52 -0.193453
11.53 -0.17689
11.54 -0.160234
11.55 -0.143586
11.56 -0.127043
11.57 -0.110704
11.58 -0.0946641
11.59 -0.0790246
11.6 -0.063927
11.61 -0.0494062
11.62 -0.0355301
11.63 -0.0223552
11.64 -0.00992539
11.65 0.00172851
11.66 0.0125364
11.67 0.022508
11.68 0.0316961
11.69 0.0401248
11.7 0.0478284
11.71 0.0548503
11.72 0.0612395
11.73 0.0669938
11.74 0.0722437
11.75 0.0770492
11.76 0.0814692
11.77 0.0855594
11.78 0.0893711
11.79 0.0929394
11.8 0.0963062
11.81 0.0995145
11.82 0.102585
11.83 0.10553
11.84 0.108356
11.85 0.111058
11.86 0.113612
11.87 0.116015
11.88 0.118246
11.89 0.120282
11.9 0.122097
11.91 0.123664
11.92 0.124944
11.93 0.1259
11.94 0.126527
11.95 0.126805
11.96 0.126715
11.97 0.126243
11.98 0.125374
11.99 0.124058
12 0.122315
12.01 0.120147
12.02 0.117543
12.03 0.114497
12.04 0.110999
12.05 0.107021
12.06 0.102523
12.07 0.0975264
12.08 0.0920107
12.09 0.0859529
12.1 0.0793278
12.11 0.072108
12.12 0.0642095
12.13 0.055635
12.14 0.046378
12.15 0.0364158
12.16 0.0257302
