# xPDFsuite Configuration #
[PDF]
wavelength = 0.1
dataformat = QA
inputfile = BiMsol6_insitu_700 C-00514.xy
backgroundfile = Quartz2mm-dist500-00000.xy
mode = xray
bgscale = 0.0042
composition = Bi2Fe4O9
outputtype = gr
qmaxinst = 24.998449118
qmin = 0.1
qmax = 21.4986662415
rmax = 80.0
rmin = 0.0
rstep = 0.01
rpoly = 0.9

[Misc]
inputdir = C:/Data/Seafile/CPH/Beamtime/Desy Oct 20/In situ data/Processed/BiMsol6/PDF
savedir = C:/Data/Seafile/CPH/Beamtime/Desy Oct 20/In situ data/PDF/BiMsol6
backgroundfilefull = C:/Data/Seafile/CPH/Beamtime/Desy Oct 20/In situ data/Processed/Standard_Empty_Cap/Quartz2mm-dist500-00000.xy

#### start data
#S 1
#L r($\AA$)  G($\AA^{-2}$)
0 0
0.01 0.00650726
0.02 0.0126491
0.03 0.0181125
0.04 0.0226168
0.05 0.0259258
0.06 0.0278592
0.07 0.0282194
0.08 0.0269475
0.09 0.0241869
0.1 0.0200547
0.11 0.0147337
0.12 0.00846411
0.13 0.00153321
0.14 -0.00573743
0.15 -0.0129387
0.16 -0.0197258
0.17 -0.0257749
0.18 -0.0307948
0.19 -0.0345414
0.2 -0.0367634
0.21 -0.0372868
0.22 -0.0362056
0.23 -0.0335818
0.24 -0.0295559
0.25 -0.0243423
0.26 -0.0182212
0.27 -0.0115093
0.28 -0.00467146
0.29 0.00187875
0.3 0.0077396
0.31 0.0125281
0.32 0.0158985
0.33 0.0175006
0.34 0.0169898
0.35 0.0144099
0.36 0.0097504
0.37 0.00310469
0.38 -0.00532903
0.39 -0.0152503
0.4 -0.0263132
0.41 -0.0379083
0.42 -0.0494367
0.43 -0.0602897
0.44 -0.0698364
0.45 -0.0774471
0.46 -0.082456
0.47 -0.0840071
0.48 -0.0819044
0.49 -0.0757955
0.5 -0.0654482
0.51 -0.0507643
0.52 -0.0317897
0.53 -0.00844809
0.54 0.0187262
0.55 0.0490253
0.56 0.0817922
0.57 0.116257
0.58 0.151559
0.59 0.186758
0.6 0.220661
0.61 0.252321
0.62 0.280794
0.63 0.305193
0.64 0.324719
0.65 0.33869
0.66 0.346156
0.67 0.346731
0.68 0.340587
0.69 0.32773
0.7 0.308349
0.71 0.282808
0.72 0.251634
0.73 0.215033
0.74 0.174467
0.75 0.130885
0.76 0.0852929
0.77 0.0387327
0.78 -0.00774545
0.79 -0.0530084
0.8 -0.0959187
0.81 -0.135703
0.82 -0.171617
0.83 -0.203052
0.84 -0.22955
0.85 -0.250812
0.86 -0.266149
0.87 -0.276108
0.88 -0.280991
0.89 -0.281167
0.9 -0.277133
0.91 -0.269488
0.92 -0.258826
0.93 -0.245911
0.94 -0.231726
0.95 -0.217033
0.96 -0.20256
0.97 -0.188983
0.98 -0.176898
0.99 -0.167036
1 -0.159687
1.01 -0.155052
1.02 -0.153261
1.03 -0.154328
1.04 -0.158154
1.05 -0.164598
1.06 -0.173452
1.07 -0.18411
1.08 -0.196135
1.09 -0.209061
1.1 -0.222411
1.11 -0.235716
1.12 -0.248462
1.13 -0.260232
1.14 -0.270724
1.15 -0.279688
1.16 -0.286951
1.17 -0.292424
1.18 -0.296066
1.19 -0.29782
1.2 -0.298021
1.21 -0.296881
1.22 -0.294658
1.23 -0.291638
1.24 -0.288127
1.25 -0.284436
1.26 -0.280897
1.27 -0.27777
1.28 -0.275265
1.29 -0.273542
1.3 -0.272702
1.31 -0.272792
1.32 -0.273874
1.33 -0.275749
1.34 -0.278269
1.35 -0.281241
1.36 -0.28444
1.37 -0.28762
1.38 -0.290491
1.39 -0.292767
1.4 -0.29424
1.41 -0.294717
1.42 -0.294048
1.43 -0.292137
1.44 -0.288944
1.45 -0.28436
1.46 -0.278625
1.47 -0.271904
1.48 -0.264412
1.49 -0.256405
1.5 -0.248177
1.51 -0.240064
1.52 -0.232445
1.53 -0.225626
1.54 -0.219898
1.55 -0.215516
1.56 -0.212688
1.57 -0.211562
1.58 -0.212403
1.59 -0.215056
1.6 -0.219407
1.61 -0.225298
1.62 -0.232501
1.63 -0.240728
1.64 -0.249647
1.65 -0.258829
1.66 -0.26781
1.67 -0.276168
1.68 -0.28349
1.69 -0.289384
1.7 -0.293499
1.71 -0.295323
1.72 -0.294736
1.73 -0.29165
1.74 -0.286004
1.75 -0.277819
1.76 -0.267199
1.77 -0.254278
1.78 -0.239227
1.79 -0.222588
1.8 -0.204747
1.81 -0.18613
1.82 -0.167178
1.83 -0.14834
1.84 -0.13013
1.85 -0.112982
1.86 -0.097227
1.87 -0.083161
1.88 -0.0710133
1.89 -0.0609386
1.9 -0.0530447
1.91 -0.0475051
1.92 -0.0439956
1.93 -0.042342
1.94 -0.042307
1.95 -0.0436015
1.96 -0.0458967
1.97 -0.0488566
1.98 -0.052052
1.99 -0.055099
2 -0.0576671
2.01 -0.0594644
2.02 -0.0602492
2.03 -0.0598351
2.04 -0.0579607
2.05 -0.0547462
2.06 -0.0502479
2.07 -0.0445956
2.08 -0.0379874
2.09 -0.0306832
2.1 -0.0229933
2.11 -0.0153276
2.12 -0.00808799
2.13 -0.00166317
2.14 0.00356599
2.15 0.00724116
2.16 0.00904039
2.17 0.00843191
2.18 0.00541472
2.19 -0.000118084
2.2 -0.00821346
2.21 -0.0188397
2.22 -0.0318867
2.23 -0.0472584
2.24 -0.0647042
2.25 -0.0837353
2.26 -0.103973
2.27 -0.125005
2.28 -0.146396
2.29 -0.167706
2.3 -0.188411
2.31 -0.208102
2.32 -0.226426
2.33 -0.243071
2.34 -0.257783
2.35 -0.270375
2.36 -0.280653
2.37 -0.288469
2.38 -0.294058
2.39 -0.297539
2.4 -0.299093
2.41 -0.298952
2.42 -0.297396
2.43 -0.29467
2.44 -0.291213
2.45 -0.287397
2.46 -0.283558
2.47 -0.28001
2.48 -0.277038
2.49 -0.274915
2.5 -0.273933
2.51 -0.274146
2.52 -0.275632
2.53 -0.278415
2.54 -0.282462
2.55 -0.28769
2.56 -0.294036
2.57 -0.301265
2.58 -0.309127
2.59 -0.317394
2.6 -0.32583
2.61 -0.334195
2.62 -0.34225
2.63 -0.349711
2.64 -0.356431
2.65 -0.362258
2.66 -0.367076
2.67 -0.37081
2.68 -0.37342
2.69 -0.374839
2.7 -0.375129
2.71 -0.37443
2.72 -0.372849
2.73 -0.370513
2.74 -0.367565
2.75 -0.364156
2.76 -0.36042
2.77 -0.356551
2.78 -0.352683
2.79 -0.348929
2.8 -0.345383
2.81 -0.342114
2.82 -0.339184
2.83 -0.336613
2.84 -0.334366
2.85 -0.332409
2.86 -0.330684
2.87 -0.329122
2.88 -0.32764
2.89 -0.326141
2.9 -0.324525
2.91 -0.322707
2.92 -0.320609
2.93 -0.318164
2.94 -0.315317
2.95 -0.31201
2.96 -0.308203
2.97 -0.303927
2.98 -0.299188
2.99 -0.294008
3 -0.288412
3.01 -0.282434
3.02 -0.276072
3.03 -0.269383
3.04 -0.26239
3.05 -0.255097
3.06 -0.247493
3.07 -0.239548
3.08 -0.231197
3.09 -0.222338
3.1 -0.21291
3.11 -0.202807
3.12 -0.191906
3.13 -0.180076
3.14 -0.167182
3.15 -0.152977
3.16 -0.13738
3.17 -0.12032
3.18 -0.101708
3.19 -0.0814774
3.2 -0.0595946
3.21 -0.0360262
3.22 -0.0106989
3.23 0.0161394
3.24 0.0443587
3.25 0.0737897
3.26 0.104226
3.27 0.135426
3.28 0.167135
3.29 0.198999
3.3 0.230685
3.31 0.261871
3.32 0.292233
3.33 0.321457
3.34 0.349224
3.35 0.375058
3.36 0.398876
3.37 0.420473
3.38 0.439679
3.39 0.456371
3.4 0.470465
3.41 0.48176
3.42 0.490292
3.43 0.496263
3.44 0.49977
3.45 0.500941
3.46 0.499933
3.47 0.496925
3.48 0.491927
3.49 0.48537
3.5 0.477465
3.51 0.468419
3.52 0.458428
3.53 0.447678
3.54 0.436313
3.55 0.424497
3.56 0.412391
3.57 0.400097
3.58 0.387697
3.59 0.375254
3.6 0.362813
3.61 0.350411
3.62 0.338065
3.63 0.325787
3.64 0.313583
3.65 0.301462
3.66 0.289436
3.67 0.27753
3.68 0.265782
3.69 0.254225
3.7 0.242913
3.71 0.231913
3.72 0.221304
3.73 0.211175
3.74 0.201692
3.75 0.192934
3.76 0.184997
3.77 0.177996
3.78 0.172041
3.79 0.167237
3.8 0.163719
3.81 0.16166
3.82 0.161017
3.83 0.16184
3.84 0.164161
3.85 0.167994
3.86 0.173334
3.87 0.180274
3.88 0.188689
3.89 0.198464
3.9 0.209516
3.91 0.22175
3.92 0.235056
3.93 0.249333
3.94 0.264504
3.95 0.280346
3.96 0.296723
3.97 0.313499
3.98 0.33054
3.99 0.347709
4 0.364868
4.01 0.38187
4.02 0.398596
4.03 0.414928
4.04 0.430755
4.05 0.445968
4.06 0.46046
4.07 0.47404
4.08 0.486697
4.09 0.498346
4.1 0.508907
4.11 0.518305
4.12 0.526475
4.13 0.533272
4.14 0.538643
4.15 0.542618
4.16 0.545166
4.17 0.546263
4.18 0.545898
4.19 0.544071
4.2 0.540632
4.21 0.535766
4.22 0.529516
4.23 0.52193
4.24 0.513064
4.25 0.502983
4.26 0.491708
4.27 0.479306
4.28 0.465933
4.29 0.451669
4.3 0.436591
4.31 0.420772
4.32 0.404278
4.33 0.387111
4.34 0.369378
4.35 0.351125
4.36 0.332377
4.37 0.313152
4.38 0.293456
4.39 0.273268
4.4 0.252558
4.41 0.231349
4.42 0.209625
4.43 0.187372
4.44 0.164578
4.45 0.141241
4.46 0.117319
4.47 0.0928698
4.48 0.0679443
4.49 0.0425957
4.5 0.0168946
4.51 -0.00907124
4.52 -0.0351973
4.53 -0.0613466
4.54 -0.0873676
4.55 -0.11311
4.56 -0.138417
4.57 -0.163126
4.58 -0.187075
4.59 -0.21002
4.6 -0.231835
4.61 -0.25242
4.62 -0.271662
4.63 -0.289466
4.64 -0.305763
4.65 -0.320484
4.66 -0.33348
4.67 -0.34493
4.68 -0.354882
4.69 -0.363408
4.7 -0.370608
4.71 -0.376601
4.72 -0.38146
4.73 -0.385382
4.74 -0.388579
4.75 -0.391213
4.76 -0.393446
4.77 -0.395432
4.78 -0.397316
4.79 -0.399241
4.8 -0.401319
4.81 -0.403632
4.82 -0.406238
4.83 -0.409172
4.84 -0.412444
4.85 -0.416056
4.86 -0.419966
4.87 -0.424094
4.88 -0.428367
4.89 -0.432697
4.9 -0.436992
4.91 -0.441151
4.92 -0.445042
4.93 -0.448586
4.94 -0.4517
4.95 -0.454312
4.96 -0.456362
4.97 -0.457804
4.98 -0.45858
4.99 -0.458662
5 -0.458102
5.01 -0.456921
5.02 -0.45515
5.03 -0.452833
5.04 -0.450017
5.05 -0.446718
5.06 -0.443029
5.07 -0.43901
5.08 -0.434704
5.09 -0.430148
5.1 -0.425369
5.11 -0.420375
5.12 -0.41516
5.13 -0.40973
5.14 -0.404063
5.15 -0.398128
5.16 -0.391888
5.17 -0.385299
5.18 -0.378278
5.19 -0.370797
5.2 -0.362829
5.21 -0.354343
5.22 -0.345316
5.23 -0.33574
5.24 -0.325606
5.25 -0.314905
5.26 -0.303729
5.27 -0.292134
5.28 -0.280194
5.29 -0.267995
5.3 -0.255634
5.31 -0.243223
5.32 -0.230891
5.33 -0.218755
5.34 -0.206926
5.35 -0.195511
5.36 -0.184606
5.37 -0.174305
5.38 -0.164745
5.39 -0.15591
5.4 -0.14783
5.41 -0.140514
5.42 -0.133953
5.43 -0.12812
5.44 -0.123013
5.45 -0.118551
5.46 -0.114628
5.47 -0.111164
5.48 -0.108075
5.49 -0.105275
5.5 -0.102683
5.51 -0.10023
5.52 -0.0978291
5.53 -0.0954291
5.54 -0.0929914
5.55 -0.0904924
5.56 -0.0879234
5.57 -0.0852875
5.58 -0.0826081
5.59 -0.0799223
5.6 -0.0772711
5.61 -0.0747007
5.62 -0.0722591
5.63 -0.0699924
5.64 -0.0679686
5.65 -0.0661996
5.66 -0.0647005
5.67 -0.0634733
5.68 -0.0625036
5.69 -0.0617589
5.7 -0.0611938
5.71 -0.0607312
5.72 -0.0602712
5.73 -0.0597125
5.74 -0.058944
5.75 -0.0578479
5.76 -0.0563042
5.77 -0.0541285
5.78 -0.0512422
5.79 -0.0475603
5.8 -0.0430025
5.81 -0.0375089
5.82 -0.0310426
5.83 -0.0235605
5.84 -0.0150354
5.85 -0.00560115
5.86 0.00466391
5.87 0.0156565
5.88 0.0272505
5.89 0.0393009
5.9 0.051658
5.91 0.0641129
5.92 0.0764817
5.93 0.0885915
5.94 0.100277
5.95 0.111386
5.96 0.121765
5.97 0.131232
5.98 0.139776
5.99 0.147349
6 0.153931
6.01 0.159533
6.02 0.164194
6.03 0.167927
6.04 0.170869
6.05 0.173178
6.06 0.174986
6.07 0.176441
6.08 0.177691
6.09 0.178885
6.1 0.180189
6.11 0.181729
6.12 0.183611
6.13 0.185917
6.14 0.188704
6.15 0.191999
6.16 0.195831
6.17 0.200153
6.18 0.204868
6.19 0.209882
6.2 0.215075
6.21 0.22031
6.22 0.225434
6.23 0.230232
6.24 0.234554
6.25 0.238236
6.26 0.241121
6.27 0.243069
6.28 0.243953
6.29 0.243605
6.3 0.241924
6.31 0.238945
6.32 0.234652
6.33 0.229059
6.34 0.22221
6.35 0.21417
6.36 0.204927
6.37 0.194711
6.38 0.183663
6.39 0.171926
6.4 0.159645
6.41 0.146967
6.42 0.134034
6.43 0.120997
6.44 0.107994
6.45 0.0951332
6.46 0.0825047
6.47 0.0701795
6.48 0.0582096
6.49 0.0466657
6.5 0.0355318
6.51 0.0247916
6.52 0.0144231
6.53 0.00439242
6.54 -0.00534285
6.55 -0.014825
6.56 -0.0241007
6.57 -0.0332396
6.58 -0.0422864
6.59 -0.0512789
6.6 -0.0602462
6.61 -0.0692066
6.62 -0.0781668
6.63 -0.0871191
6.64 -0.0960439
6.65 -0.104911
6.66 -0.113679
6.67 -0.122302
6.68 -0.130721
6.69 -0.13885
6.7 -0.146651
6.71 -0.154066
6.72 -0.161041
6.73 -0.167526
6.74 -0.173478
6.75 -0.178818
6.76 -0.183531
6.77 -0.187625
6.78 -0.191091
6.79 -0.193924
6.8 -0.196128
6.81 -0.197703
6.82 -0.198599
6.83 -0.198892
6.84 -0.198591
6.85 -0.197699
6.86 -0.196217
6.87 -0.194137
6.88 -0.191408
6.89 -0.188007
6.9 -0.183938
6.91 -0.179164
6.92 -0.173641
6.93 -0.167321
6.94 -0.160155
6.95 -0.151982
6.96 -0.14285
6.97 -0.132717
6.98 -0.121545
6.99 -0.109309
7 -0.0959927
7.01 -0.0815392
7.02 -0.0659479
7.03 -0.0493238
7.04 -0.0317159
7.05 -0.0131892
7.06 0.0061759
7.07 0.026285
7.08 0.0470844
7.09 0.0683857
7.1 0.0900533
7.11 0.111956
7.12 0.13396
7.13 0.155934
7.14 0.177739
7.15 0.199226
7.16 0.2203
7.17 0.240862
7.18 0.260826
7.19 0.280119
7.2 0.29868
7.21 0.31639
7.22 0.333265
7.23 0.349305
7.24 0.3645
7.25 0.378847
7.26 0.392349
7.27 0.404985
7.28 0.416712
7.29 0.427605
7.3 0.437663
7.31 0.446875
7.32 0.455227
7.33 0.462692
7.34 0.469158
7.35 0.474617
7.36 0.479046
7.37 0.482387
7.38 0.484572
7.39 0.485531
7.4 0.485171
7.41 0.4833
7.42 0.479984
7.43 0.475168
7.44 0.468803
7.45 0.460855
7.46 0.451303
7.47 0.440031
7.48 0.427092
7.49 0.412598
7.5 0.396602
7.51 0.379177
7.52 0.36041
7.53 0.340402
7.54 0.319171
7.55 0.296987
7.56 0.273996
7.57 0.250352
7.58 0.226211
7.59 0.201735
7.6 0.177083
7.61 0.152437
7.62 0.127956
7.63 0.103786
7.64 0.080061
7.65 0.0569079
7.66 0.0344417
7.67 0.0128648
7.68 -0.00780815
7.69 -0.0275041
7.7 -0.0461573
7.71 -0.0637128
7.72 -0.0801261
7.73 -0.0953049
7.74 -0.109195
7.75 -0.121864
7.76 -0.133304
7.77 -0.143515
7.78 -0.152504
7.79 -0.160281
7.8 -0.16675
7.81 -0.17204
7.82 -0.1762
7.83 -0.17927
7.84 -0.181293
7.85 -0.182318
7.86 -0.182369
7.87 -0.181475
7.88 -0.179779
7.89 -0.177351
7.9 -0.174267
7.91 -0.170605
7.92 -0.166444
7.93 -0.161834
7.94 -0.156893
7.95 -0.151708
7.96 -0.146355
7.97 -0.140904
7.98 -0.13542
7.99 -0.129961
8 -0.124589
8.01 -0.119339
8.02 -0.114241
8.03 -0.109317
8.04 -0.104578
8.05 -0.100029
8.06 -0.0956812
8.07 -0.091514
8.08 -0.0875044
8.09 -0.0836331
8.1 -0.0798789
8.11 -0.0762204
8.12 -0.0726385
8.13 -0.0691194
8.14 -0.0656438
8.15 -0.0622054
8.16 -0.0588038
8.17 -0.0554448
8.18 -0.0521409
8.19 -0.0489171
8.2 -0.0458
8.21 -0.0428149
8.22 -0.0399934
8.23 -0.0373683
8.24 -0.0349715
8.25 -0.0328334
8.26 -0.0310125
8.27 -0.0294963
8.28 -0.0282937
8.29 -0.0274049
8.3 -0.02682
8.31 -0.0265185
8.32 -0.0264814
8.33 -0.0266606
8.34 -0.0269885
8.35 -0.027405
8.36 -0.0278442
8.37 -0.0282366
8.38 -0.0285115
8.39 -0.0285719
8.4 -0.0283658
8.41 -0.0278381
8.42 -0.0269419
8.43 -0.0256419
8.44 -0.0239166
8.45 -0.0217402
8.46 -0.0191146
8.47 -0.0161007
8.48 -0.0127442
8.49 -0.00910558
8.5 -0.00525847
8.51 -0.00128776
8.52 0.00270591
8.53 0.00660884
8.54 0.0103182
8.55 0.0137331
8.56 0.0167572
8.57 0.019302
8.58 0.0212684
8.59 0.022555
8.6 0.0231646
8.61 0.0230703
8.62 0.0222633
8.63 0.0207531
8.64 0.018567
8.65 0.0156995
8.66 0.0122557
8.67 0.00832925
8.68 0.00400456
8.69 -0.000628032
8.7 -0.00547535
8.71 -0.0104453
8.72 -0.015441
8.73 -0.0203733
8.74 -0.0251742
8.75 -0.0297883
8.76 -0.0341755
8.77 -0.0383113
8.78 -0.042169
8.79 -0.0457705
8.8 -0.0491552
8.81 -0.0523658
8.82 -0.0554565
8.83 -0.0584909
8.84 -0.0615401
8.85 -0.0646943
8.86 -0.0680232
8.87 -0.0715946
8.88 -0.0754694
8.89 -0.0796981
8.9 -0.0843189
8.91 -0.0893834
8.92 -0.0948931
8.93 -0.100814
8.94 -0.107116
8.95 -0.113758
8.96 -0.12068
8.97 -0.127814
8.98 -0.135085
8.99 -0.142384
9 -0.149622
9.01 -0.15671
9.02 -0.163562
9.03 -0.170101
9.04 -0.176234
9.05 -0.181895
9.06 -0.18707
9.07 -0.191735
9.08 -0.195884
9.09 -0.199525
9.1 -0.202684
9.11 -0.205355
9.12 -0.20764
9.13 -0.209604
9.14 -0.211317
9.15 -0.212848
9.16 -0.214269
9.17 -0.21565
9.18 -0.217061
9.19 -0.218554
9.2 -0.220168
9.21 -0.221929
9.22 -0.223848
9.23 -0.22592
9.24 -0.228136
9.25 -0.230447
9.26 -0.232801
9.27 -0.235137
9.28 -0.237388
9.29 -0.23948
9.3 -0.241328
9.31 -0.24283
9.32 -0.243937
9.33 -0.244587
9.34 -0.244726
9.35 -0.244315
9.36 -0.243324
9.37 -0.241692
9.38 -0.239453
9.39 -0.236649
9.4 -0.233313
9.41 -0.229492
9.42 -0.225243
9.43 -0.220625
9.44 -0.215694
9.45 -0.210557
9.46 -0.205282
9.47 -0.199935
9.48 -0.194573
9.49 -0.189242
9.5 -0.183984
9.51 -0.178817
9.52 -0.173739
9.53 -0.168735
9.54 -0.163775
9.55 -0.158814
9.56 -0.153795
9.57 -0.148627
9.58 -0.143239
9.59 -0.137548
9.6 -0.131469
9.61 -0.124918
9.62 -0.117816
9.63 -0.110048
9.64 -0.101551
9.65 -0.092314
9.66 -0.0823072
9.67 -0.0715162
9.68 -0.0599437
9.69 -0.0476087
9.7 -0.0344686
9.71 -0.0206642
9.72 -0.00626384
9.73 0.00865436
9.74 0.0240041
9.75 0.0396934
9.76 0.0556347
9.77 0.071721
9.78 0.0878461
9.79 0.103924
9.8 0.119877
9.81 0.135637
9.82 0.151144
9.83 0.166317
9.84 0.181145
9.85 0.19561
9.86 0.2097
9.87 0.223411
9.88 0.236744
9.89 0.249695
9.9 0.26226
9.91 0.274481
9.92 0.286364
9.93 0.297916
9.94 0.309135
9.95 0.320016
9.96 0.330506
9.97 0.340605
9.98 0.350287
9.99 0.359513
10 0.368234
10.01 0.376402
10.02 0.38394
10.03 0.390749
10.04 0.39683
10.05 0.402134
10.06 0.406619
10.07 0.410253
10.08 0.413012
10.09 0.414816
10.1 0.415712
10.11 0.415752
10.12 0.414973
10.13 0.413426
10.14 0.411174
10.15 0.408281
10.16 0.404802
10.17 0.400893
10.18 0.396652
10.19 0.392181
10.2 0.387582
10.21 0.38295
10.22 0.378387
10.23 0.373985
10.24 0.369808
10.25 0.365912
10.26 0.362339
10.27 0.359116
10.28 0.356257
10.29 0.353796
10.3 0.351672
10.31 0.349851
10.32 0.348292
10.33 0.346941
10.34 0.345738
10.35 0.344621
10.36 0.343511
10.37 0.342337
10.38 0.341033
10.39 0.339537
10.4 0.337793
10.41 0.335749
10.42 0.333317
10.43 0.330495
10.44 0.327256
10.45 0.323578
10.46 0.319443
10.47 0.314841
10.48 0.309738
10.49 0.30412
10.5 0.298015
10.51 0.291419
10.52 0.284327
10.53 0.276733
10.54 0.268627
10.55 0.259944
10.56 0.250715
10.57 0.240932
10.58 0.230581
10.59 0.219644
10.6 0.20811
10.61 0.195944
10.62 0.183115
10.63 0.169672
10.64 0.155626
10.65 0.140995
10.66 0.125807
10.67 0.1101
10.68 0.0938874
10.69 0.0772665
10.7 0.0603215
10.71 0.0431324
10.72 0.0257857
10.73 0.00837309
10.74 -0.00900761
10.75 -0.0262416
10.76 -0.0432416
10.77 -0.0599221
10.78 -0.0762053
10.79 -0.0920241
10.8 -0.107323
10.81 -0.122016
10.82 -0.136099
10.83 -0.149589
10.84 -0.162498
10.85 -0.174852
10.86 -0.186693
10.87 -0.198071
10.88 -0.209027
10.89 -0.219682
10.9 -0.230118
10.91 -0.240416
10.92 -0.250659
10.93 -0.260923
10.94 -0.271287
10.95 -0.281812
10.96 -0.292535
10.97 -0.303482
10.98 -0.31466
10.99 -0.326059
11 -0.337653
11.01 -0.349406
11.02 -0.36123
11.03 -0.373046
11.04 -0.384762
11.05 -0.396278
11.06 -0.407485
11.07 -0.418245
11.08 -0.428429
11.09 -0.437959
11.1 -0.44674
11.11 -0.454686
11.12 -0.461723
11.13 -0.467793
11.14 -0.47274
11.15 -0.476643
11.16 -0.479507
11.17 -0.481344
11.18 -0.482182
11.19 -0.482063
11.2 -0.481
11.21 -0.479045
11.22 -0.476332
11.23 -0.472931
11.24 -0.468914
11.25 -0.464349
11.26 -0.459299
11.27 -0.453779
11.28 -0.447872
11.29 -0.441616
11.3 -0.435028
11.31 -0.428113
11.32 -0.420865
11.33 -0.413251
11.34 -0.405223
11.35 -0.396771
11.36 -0.387854
11.37 -0.378425
11.38 -0.368442
11.39 -0.357861
11.4 -0.346587
11.41 -0.334627
11.42 -0.321983
11.43 -0.30865
11.44 -0.294637
11.45 -0.279965
11.46 -0.264658
11.47 -0.248734
11.48 -0.232316
11.49 -0.215481
11.5 -0.198313
11.51 -0.180907
11.52 -0.16336
11.53 -0.145776
11.54 -0.12827
11.55 -0.110936
11.56 -0.0938654
11.57 -0.0771375
11.58 -0.0608238
11.59 -0.044991
11.6 -0.0297386
11.61 -0.0150474
11.62 -0.000936067
11.63 0.0125891
11.64 0.0255328
11.65 0.0379099
11.66 0.0497097
11.67 0.0609757
11.68 0.0717706
11.69 0.0821316
11.7 0.092096
11.71 0.101699
11.72 0.110971
11.73 0.119908
11.74 0.128565
11.75 0.136952
11.76 0.145072
11.77 0.152922
11.78 0.16049
11.79 0.167739
11.8 0.174638
11.81 0.181176
11.82 0.187321
11.83 0.193039
11.84 0.198296
11.85 0.20306
11.86 0.207243
11.87 0.210869
11.88 0.213925
11.89 0.216396
11.9 0.218278
11.91 0.219567
11.92 0.220243
11.93 0.220302
11.94 0.219801
11.95 0.218758
11.96 0.217191
11.97 0.215121
11.98 0.212565
11.99 0.209498
12 0.205967
12.01 0.201991
12.02 0.197571
12.03 0.192703
12.04 0.187378
12.05 0.181565
12.06 0.175214
12.07 0.16834
12.08 0.160913
12.09 0.152903
12.1 0.144279
12.11 0.135011
12.12 0.125012
12.13 0.114294
12.14 0.102864
12.15 0.0907164
12.16 0.0778527
12.17 0.0642858
