# xPDFsuite Configuration #
[PDF]
wavelength = 0.1
dataformat = QA
inputfile = BiMsol6_insitu_700 C-00695.xy
backgroundfile = Quartz2mm-dist500-00000.xy
mode = xray
bgscale = 0.0042
composition = Bi2Fe4O9
outputtype = gr
qmaxinst = 24.998449118
qmin = 0.1
qmax = 21.4986662415
rmax = 80.0
rmin = 0.0
rstep = 0.01
rpoly = 0.9

[Misc]
inputdir = C:/Data/Seafile/CPH/Beamtime/Desy Oct 20/In situ data/Processed/BiMsol6/PDF
savedir = C:/Data/Seafile/CPH/Beamtime/Desy Oct 20/In situ data/PDF/BiMsol6
backgroundfilefull = C:/Data/Seafile/CPH/Beamtime/Desy Oct 20/In situ data/Processed/Standard_Empty_Cap/Quartz2mm-dist500-00000.xy

#### start data
#S 1
#L r($\AA$)  G($\AA^{-2}$)
0 0
0.01 0.00639272
0.02 0.012422
0.03 0.0177767
0.04 0.0221781
0.05 0.0253923
0.06 0.0272411
0.07 0.0275302
0.08 0.0262039
0.09 0.0234073
0.1 0.0192598
0.11 0.0139464
0.12 0.00770916
0.13 0.000836323
0.14 -0.00634738
0.15 -0.013436
0.16 -0.0200871
0.17 -0.0259796
0.18 -0.0308266
0.19 -0.0343891
0.2 -0.0364223
0.21 -0.0367608
0.22 -0.0355069
0.23 -0.0327308
0.24 -0.0285816
0.25 -0.0232816
0.26 -0.0171183
0.27 -0.0104196
0.28 -0.00365171
0.29 0.00277115
0.3 0.00844735
0.31 0.0129966
0.32 0.0160785
0.33 0.0173497
0.34 0.0164764
0.35 0.013519
0.36 0.00848248
0.37 0.00147692
0.38 -0.00728182
0.39 -0.0174753
0.4 -0.0287328
0.41 -0.0404304
0.42 -0.0519578
0.43 -0.0626952
0.44 -0.0720042
0.45 -0.0792516
0.46 -0.0837699
0.47 -0.084701
0.48 -0.0818725
0.49 -0.0749487
0.5 -0.0637182
0.51 -0.0481079
0.52 -0.0281921
0.53 -0.00392907
0.54 0.0241099
0.55 0.0551845
0.56 0.0886054
0.57 0.123572
0.58 0.159196
0.59 0.194513
0.6 0.228287
0.61 0.259584
0.62 0.287456
0.63 0.311019
0.64 0.329487
0.65 0.342193
0.66 0.348207
0.67 0.34718
0.68 0.339331
0.69 0.324712
0.7 0.303556
0.71 0.276272
0.72 0.243439
0.73 0.205325
0.74 0.163426
0.75 0.118728
0.76 0.0722663
0.77 0.0251089
0.78 -0.0216786
0.79 -0.0669406
0.8 -0.109538
0.81 -0.148729
0.82 -0.183793
0.83 -0.21415
0.84 -0.239377
0.85 -0.259218
0.86 -0.273027
0.87 -0.281415
0.88 -0.284735
0.89 -0.28341
0.9 -0.277982
0.91 -0.269094
0.92 -0.25739
0.93 -0.243674
0.94 -0.228938
0.95 -0.213955
0.96 -0.199457
0.97 -0.186113
0.98 -0.174506
0.99 -0.16536
1 -0.158914
1.01 -0.155325
1.02 -0.154679
1.03 -0.156943
1.04 -0.161969
1.05 -0.169565
1.06 -0.179466
1.07 -0.191027
1.08 -0.203774
1.09 -0.217211
1.1 -0.230839
1.11 -0.244172
1.12 -0.256672
1.13 -0.267935
1.14 -0.277684
1.15 -0.285688
1.16 -0.291805
1.17 -0.295979
1.18 -0.298207
1.19 -0.298475
1.2 -0.297173
1.21 -0.294558
1.22 -0.290931
1.23 -0.286619
1.24 -0.281963
1.25 -0.277319
1.26 -0.273042
1.27 -0.269399
1.28 -0.266608
1.29 -0.264829
1.3 -0.264156
1.31 -0.264624
1.32 -0.266293
1.33 -0.268915
1.34 -0.27231
1.35 -0.276253
1.36 -0.280485
1.37 -0.284724
1.38 -0.288644
1.39 -0.291922
1.4 -0.29432
1.41 -0.295622
1.42 -0.295659
1.43 -0.294316
1.44 -0.291544
1.45 -0.28721
1.46 -0.281571
1.47 -0.274799
1.48 -0.267115
1.49 -0.258788
1.5 -0.250125
1.51 -0.241472
1.52 -0.233228
1.53 -0.22572
1.54 -0.219255
1.55 -0.214103
1.56 -0.210484
1.57 -0.208558
1.58 -0.208598
1.59 -0.210457
1.6 -0.214027
1.61 -0.219152
1.62 -0.225607
1.63 -0.233104
1.64 -0.241314
1.65 -0.249812
1.66 -0.258134
1.67 -0.265863
1.68 -0.272591
1.69 -0.277933
1.7 -0.281548
1.71 -0.282941
1.72 -0.282
1.73 -0.27865
1.74 -0.272842
1.75 -0.26461
1.76 -0.25407
1.77 -0.241369
1.78 -0.226694
1.79 -0.210576
1.8 -0.193402
1.81 -0.175587
1.82 -0.157564
1.83 -0.139765
1.84 -0.122685
1.85 -0.106725
1.86 -0.09218
1.87 -0.0793117
1.88 -0.0683112
1.89 -0.0592947
1.9 -0.0523283
1.91 -0.0475294
1.92 -0.0445538
1.93 -0.0431978
1.94 -0.0432008
1.95 -0.0442568
1.96 -0.0460283
1.97 -0.04816
1.98 -0.0502397
1.99 -0.0519177
2 -0.0528933
2.01 -0.0529124
2.02 -0.0517787
2.03 -0.0493578
2.04 -0.0454494
2.05 -0.0402436
2.06 -0.0338595
2.07 -0.0264884
2.08 -0.0183877
2.09 -0.00987184
2.1 -0.00132042
2.11 0.00681015
2.12 0.0141104
2.13 0.0201747
2.14 0.0246165
2.15 0.027084
2.16 0.0272737
2.17 0.0246474
2.18 0.0192891
2.19 0.0111474
2.2 0.000236127
2.21 -0.0133464
2.22 -0.0294195
2.23 -0.0478106
2.24 -0.0681847
2.25 -0.089985
2.26 -0.112769
2.27 -0.136068
2.28 -0.159399
2.29 -0.182283
2.3 -0.20413
2.31 -0.224547
2.32 -0.243189
2.33 -0.259756
2.34 -0.274017
2.35 -0.285819
2.36 -0.295003
2.37 -0.301465
2.38 -0.305523
2.39 -0.307356
2.4 -0.307204
2.41 -0.305362
2.42 -0.302166
2.43 -0.297929
2.44 -0.293133
2.45 -0.288186
2.46 -0.283448
2.47 -0.279252
2.48 -0.275893
2.49 -0.273646
2.5 -0.272808
2.51 -0.273386
2.52 -0.275429
2.53 -0.278924
2.54 -0.283801
2.55 -0.289932
2.56 -0.29721
2.57 -0.30535
2.58 -0.314062
2.59 -0.32308
2.6 -0.332137
2.61 -0.340969
2.62 -0.349319
2.63 -0.356872
2.64 -0.363501
2.65 -0.369062
2.66 -0.373454
2.67 -0.37662
2.68 -0.378549
2.69 -0.379199
2.7 -0.378674
2.71 -0.377151
2.72 -0.374772
2.73 -0.3717
2.74 -0.368109
2.75 -0.364177
2.76 -0.360081
2.77 -0.356018
2.78 -0.352131
2.79 -0.34854
2.8 -0.345338
2.81 -0.34259
2.82 -0.340355
2.83 -0.338637
2.84 -0.337373
2.85 -0.336505
2.86 -0.335957
2.87 -0.335636
2.88 -0.335437
2.89 -0.335244
2.9 -0.334936
2.91 -0.334414
2.92 -0.333587
2.93 -0.332382
2.94 -0.330741
2.95 -0.3286
2.96 -0.325923
2.97 -0.322745
2.98 -0.319078
2.99 -0.314949
3 -0.31039
3.01 -0.305435
3.02 -0.300086
3.03 -0.294397
3.04 -0.288389
3.05 -0.282055
3.06 -0.275372
3.07 -0.268295
3.08 -0.260737
3.09 -0.252564
3.1 -0.243699
3.11 -0.234007
3.12 -0.22334
3.13 -0.211541
3.14 -0.198452
3.15 -0.183781
3.16 -0.167443
3.17 -0.149365
3.18 -0.129451
3.19 -0.107638
3.2 -0.0838999
3.21 -0.0582137
3.22 -0.0305136
3.23 -0.00110197
3.24 0.0298565
3.25 0.0621528
3.26 0.0955374
3.27 0.129724
3.28 0.164408
3.29 0.199184
3.3 0.233677
3.31 0.267525
3.32 0.300372
3.33 0.331874
3.34 0.36169
3.35 0.389303
3.36 0.414652
3.37 0.437533
3.38 0.457787
3.39 0.475304
3.4 0.490025
3.41 0.501763
3.42 0.51059
3.43 0.516748
3.44 0.520362
3.45 0.521589
3.46 0.520609
3.47 0.517621
3.48 0.51265
3.49 0.506131
3.5 0.498272
3.51 0.489268
3.52 0.479295
3.53 0.468512
3.54 0.457024
3.55 0.444947
3.56 0.432402
3.57 0.419444
3.58 0.406109
3.59 0.392413
3.6 0.378361
3.61 0.363908
3.62 0.349078
3.63 0.333869
3.64 0.318282
3.65 0.302333
3.66 0.286051
3.67 0.269477
3.68 0.25269
3.69 0.23581
3.7 0.218961
3.71 0.20229
3.72 0.185961
3.73 0.170155
3.74 0.155154
3.75 0.141132
3.76 0.128275
3.77 0.116783
3.78 0.106844
3.79 0.0986325
3.8 0.0923606
3.81 0.0882877
3.82 0.0863384
3.83 0.0865727
3.84 0.0890174
3.85 0.0936651
3.86 0.100475
3.87 0.109537
3.88 0.12063
3.89 0.133545
3.9 0.148123
3.91 0.164187
3.92 0.181547
3.93 0.200023
3.94 0.219456
3.95 0.239544
3.96 0.260092
3.97 0.280917
3.98 0.301845
3.99 0.32272
4 0.343377
4.01 0.363681
4.02 0.383538
4.03 0.402861
4.04 0.421575
4.05 0.439619
4.06 0.456936
4.07 0.473398
4.08 0.489048
4.09 0.503852
4.1 0.517774
4.11 0.530776
4.12 0.542819
4.13 0.553794
4.14 0.563647
4.15 0.57238
4.16 0.579935
4.17 0.586248
4.18 0.591257
4.19 0.594898
4.2 0.596943
4.21 0.597485
4.22 0.596484
4.23 0.593899
4.24 0.589703
4.25 0.583878
4.26 0.576342
4.27 0.567078
4.28 0.556224
4.29 0.543821
4.3 0.529923
4.31 0.514594
4.32 0.497909
4.33 0.479829
4.34 0.460563
4.35 0.440225
4.36 0.418906
4.37 0.396702
4.38 0.373703
4.39 0.349972
4.4 0.325578
4.41 0.30065
4.42 0.275259
4.43 0.249468
4.44 0.223336
4.45 0.196918
4.46 0.17025
4.47 0.143402
4.48 0.116431
4.49 0.0893896
4.5 0.0623331
4.51 0.0353214
4.52 0.00842503
4.53 -0.0182626
4.54 -0.0446728
4.55 -0.0707197
4.56 -0.0963121
4.57 -0.121354
4.58 -0.145748
4.59 -0.169325
4.6 -0.192007
4.61 -0.213727
4.62 -0.234399
4.63 -0.253944
4.64 -0.272294
4.65 -0.289374
4.66 -0.305032
4.67 -0.319378
4.68 -0.33241
4.69 -0.344146
4.7 -0.354619
4.71 -0.363882
4.72 -0.371927
4.73 -0.378874
4.74 -0.384871
4.75 -0.390021
4.76 -0.394435
4.77 -0.398223
4.78 -0.401494
4.79 -0.404325
4.8 -0.406871
4.81 -0.409222
4.82 -0.411459
4.83 -0.413647
4.84 -0.41584
4.85 -0.418082
4.86 -0.420399
4.87 -0.422795
4.88 -0.425265
4.89 -0.427789
4.9 -0.430343
4.91 -0.43289
4.92 -0.435379
4.93 -0.437765
4.94 -0.440001
4.95 -0.442041
4.96 -0.443839
4.97 -0.445355
4.98 -0.446535
4.99 -0.447337
5 -0.447757
5.01 -0.447778
5.02 -0.447384
5.03 -0.446567
5.04 -0.44532
5.05 -0.443596
5.06 -0.441428
5.07 -0.438822
5.08 -0.435776
5.09 -0.432284
5.1 -0.42834
5.11 -0.423921
5.12 -0.41899
5.13 -0.413574
5.14 -0.407659
5.15 -0.401231
5.16 -0.39428
5.17 -0.386796
5.18 -0.378729
5.19 -0.370115
5.2 -0.360983
5.21 -0.351357
5.22 -0.341269
5.23 -0.330765
5.24 -0.319895
5.25 -0.308721
5.26 -0.297357
5.27 -0.285899
5.28 -0.274447
5.29 -0.263112
5.3 -0.252006
5.31 -0.241278
5.32 -0.231044
5.33 -0.221394
5.34 -0.212426
5.35 -0.204228
5.36 -0.196871
5.37 -0.190423
5.38 -0.185011
5.39 -0.180553
5.4 -0.177043
5.41 -0.174454
5.42 -0.172741
5.43 -0.17184
5.44 -0.171715
5.45 -0.172246
5.46 -0.173289
5.47 -0.174734
5.48 -0.176466
5.49 -0.178369
5.5 -0.180332
5.51 -0.182235
5.52 -0.183982
5.53 -0.185495
5.54 -0.186709
5.55 -0.187574
5.56 -0.188058
5.57 -0.188119
5.58 -0.187753
5.59 -0.186998
5.6 -0.185877
5.61 -0.18442
5.62 -0.182664
5.63 -0.180645
5.64 -0.178379
5.65 -0.175923
5.66 -0.173301
5.67 -0.170525
5.68 -0.167597
5.69 -0.164505
5.7 -0.161211
5.71 -0.157662
5.72 -0.153818
5.73 -0.149612
5.74 -0.144969
5.75 -0.13981
5.76 -0.134051
5.77 -0.127537
5.78 -0.120235
5.79 -0.112095
5.8 -0.103062
5.81 -0.0930999
5.82 -0.0821886
5.83 -0.0702996
5.84 -0.0574159
5.85 -0.0436693
5.86 -0.0291348
5.87 -0.0139082
5.88 0.00189531
5.89 0.018144
5.9 0.0347048
5.91 0.0513861
5.92 0.0680185
5.93 0.0844419
5.94 0.100501
5.95 0.116049
5.96 0.130938
5.97 0.144982
5.98 0.158157
5.99 0.170395
6 0.181656
6.01 0.191921
6.02 0.2012
6.03 0.209455
6.04 0.216782
6.05 0.223298
6.06 0.229092
6.07 0.234265
6.08 0.238925
6.09 0.243175
6.1 0.247105
6.11 0.250848
6.12 0.254487
6.13 0.258086
6.14 0.261692
6.15 0.265328
6.16 0.268999
6.17 0.272677
6.18 0.276312
6.19 0.279835
6.2 0.283158
6.21 0.28618
6.22 0.288786
6.23 0.290778
6.24 0.292083
6.25 0.29258
6.26 0.292154
6.27 0.2907
6.28 0.288132
6.29 0.284312
6.3 0.279174
6.31 0.272774
6.32 0.265117
6.33 0.25623
6.34 0.246167
6.35 0.235
6.36 0.222728
6.37 0.209572
6.38 0.195671
6.39 0.181159
6.4 0.166179
6.41 0.150871
6.42 0.135371
6.43 0.119824
6.44 0.104359
6.45 0.0890782
6.46 0.0740653
6.47 0.0593869
6.48 0.04509
6.49 0.0312416
6.5 0.0178182
6.51 0.00479652
6.52 -0.00785292
6.53 -0.0201726
6.54 -0.0322151
6.55 -0.0440356
6.56 -0.0556978
6.57 -0.0672832
6.58 -0.0788516
6.59 -0.0904561
6.6 -0.102141
6.61 -0.113938
6.62 -0.125878
6.63 -0.137957
6.64 -0.150156
6.65 -0.162445
6.66 -0.17478
6.67 -0.187104
6.68 -0.199343
6.69 -0.211394
6.7 -0.223177
6.71 -0.234598
6.72 -0.245562
6.73 -0.255972
6.74 -0.265735
6.75 -0.274703
6.76 -0.282804
6.77 -0.29
6.78 -0.296228
6.79 -0.301438
6.8 -0.305587
6.81 -0.308635
6.82 -0.310447
6.83 -0.311133
6.84 -0.31069
6.85 -0.309123
6.86 -0.30644
6.87 -0.302652
6.88 -0.297709
6.89 -0.291632
6.9 -0.284497
6.91 -0.276313
6.92 -0.26709
6.93 -0.256835
6.94 -0.245548
6.95 -0.233113
6.96 -0.21964
6.97 -0.205129
6.98 -0.189573
6.99 -0.172969
7 -0.155314
7.01 -0.136559
7.02 -0.116693
7.03 -0.0958017
7.04 -0.0739074
7.05 -0.0510413
7.06 -0.0272443
7.07 -0.00256759
7.08 0.0230042
7.09 0.0493162
7.1 0.076272
7.11 0.103777
7.12 0.131728
7.13 0.160014
7.14 0.188522
7.15 0.217114
7.16 0.24565
7.17 0.274001
7.18 0.30204
7.19 0.329641
7.2 0.356681
7.21 0.382967
7.22 0.408419
7.23 0.432949
7.24 0.456458
7.25 0.478856
7.26 0.50006
7.27 0.519957
7.28 0.538391
7.29 0.555419
7.3 0.570989
7.31 0.585059
7.32 0.597591
7.33 0.608552
7.34 0.617784
7.35 0.625333
7.36 0.631237
7.37 0.635482
7.38 0.638054
7.39 0.638944
7.4 0.638115
7.41 0.635421
7.42 0.631032
7.43 0.624947
7.44 0.617174
7.45 0.607723
7.46 0.596607
7.47 0.583735
7.48 0.569175
7.49 0.553041
7.5 0.535376
7.51 0.516234
7.52 0.495674
7.53 0.473762
7.54 0.450456
7.55 0.425999
7.56 0.400496
7.57 0.374062
7.58 0.346824
7.59 0.318915
7.6 0.290458
7.61 0.261629
7.62 0.232618
7.63 0.203588
7.64 0.174707
7.65 0.146144
7.66 0.118068
7.67 0.0907369
7.68 0.0642564
7.69 0.038776
7.7 0.014439
7.71 -0.00862308
7.72 -0.0302919
7.73 -0.0503885
7.74 -0.068783
7.75 -0.0855176
7.76 -0.100549
7.77 -0.113855
7.78 -0.125434
7.79 -0.135302
7.8 -0.143337
7.81 -0.149744
7.82 -0.154632
7.83 -0.158093
7.84 -0.160236
7.85 -0.16118
7.86 -0.161016
7.87 -0.159854
7.88 -0.157913
7.89 -0.155325
7.9 -0.15222
7.91 -0.148717
7.92 -0.14493
7.93 -0.140949
7.94 -0.136879
7.95 -0.132792
7.96 -0.128739
7.97 -0.124754
7.98 -0.120855
7.99 -0.117046
8 -0.113319
8.01 -0.109638
8.02 -0.105965
8.03 -0.102258
8.04 -0.0984677
8.05 -0.0945433
8.06 -0.090418
8.07 -0.0860491
8.08 -0.0814078
8.09 -0.0764676
8.1 -0.0712134
8.11 -0.0656435
8.12 -0.0597658
8.13 -0.0535875
8.14 -0.0471841
8.15 -0.0406136
8.16 -0.0339457
8.17 -0.0272602
8.18 -0.0206445
8.19 -0.0142089
8.2 -0.00805863
8.21 -0.00227779
8.22 0.00304606
8.23 0.00783338
8.24 0.0120155
8.25 0.0155346
8.26 0.018271
8.27 0.0202828
8.28 0.0215704
8.29 0.0221526
8.3 0.0220662
8.31 0.0213647
8.32 0.0200916
8.33 0.0183417
8.34 0.0162426
8.35 0.0138959
8.36 0.0114062
8.37 0.00887779
8.38 0.00641073
8.39 0.00412357
8.4 0.00208808
8.41 0.000366833
8.42 -0.000993021
8.43 -0.00196275
8.44 -0.0025331
8.45 -0.00269864
8.46 -0.00248764
8.47 -0.00198198
8.48 -0.00125238
8.49 -0.000383834
8.5 0.000527263
8.51 0.00137625
8.52 0.00202582
8.53 0.00236713
8.54 0.00229732
8.55 0.00171728
8.56 0.000538451
8.57 -0.00131435
8.58 -0.00392709
8.59 -0.00738215
8.6 -0.0116352
8.61 -0.0166836
8.62 -0.0225058
8.63 -0.0290613
8.64 -0.036293
8.65 -0.0441739
8.66 -0.0525729
8.67 -0.0613764
8.68 -0.0704834
8.69 -0.0797913
8.7 -0.0891986
8.71 -0.0986062
8.72 -0.107908
8.73 -0.11703
8.74 -0.125908
8.75 -0.134494
8.76 -0.142752
8.77 -0.150664
8.78 -0.1582
8.79 -0.165384
8.8 -0.172256
8.81 -0.178852
8.82 -0.185213
8.83 -0.191387
8.84 -0.197422
8.85 -0.203364
8.86 -0.20927
8.87 -0.215177
8.88 -0.221114
8.89 -0.227099
8.9 -0.233137
8.91 -0.239225
8.92 -0.245337
8.93 -0.251439
8.94 -0.257483
8.95 -0.263415
8.96 -0.269173
8.97 -0.27469
8.98 -0.279849
8.99 -0.284611
9 -0.288908
9.01 -0.292679
9.02 -0.295871
9.03 -0.298439
9.04 -0.300317
9.05 -0.301478
9.06 -0.301964
9.07 -0.301787
9.08 -0.300974
9.09 -0.299565
9.1 -0.29761
9.11 -0.295125
9.12 -0.292232
9.13 -0.289012
9.14 -0.285539
9.15 -0.281889
9.16 -0.278135
9.17 -0.274346
9.18 -0.270591
9.19 -0.266921
9.2 -0.263374
9.21 -0.259978
9.22 -0.25675
9.23 -0.253694
9.24 -0.25082
9.25 -0.248098
9.26 -0.245499
9.27 -0.242992
9.28 -0.240544
9.29 -0.238117
9.3 -0.235675
9.31 -0.233177
9.32 -0.230596
9.33 -0.22791
9.34 -0.225104
9.35 -0.222171
9.36 -0.219111
9.37 -0.215927
9.38 -0.212645
9.39 -0.209295
9.4 -0.205909
9.41 -0.202523
9.42 -0.199174
9.43 -0.195902
9.44 -0.192755
9.45 -0.189754
9.46 -0.186922
9.47 -0.184275
9.48 -0.181817
9.49 -0.179542
9.5 -0.177444
9.51 -0.175482
9.52 -0.173604
9.53 -0.171757
9.54 -0.169876
9.55 -0.167889
9.56 -0.165714
9.57 -0.163232
9.58 -0.160379
9.59 -0.157071
9.6 -0.153227
9.61 -0.148772
9.62 -0.143638
9.63 -0.137717
9.64 -0.130964
9.65 -0.123386
9.66 -0.114967
9.67 -0.105699
9.68 -0.0955932
9.69 -0.0846682
9.7 -0.0728714
9.71 -0.060341
9.72 -0.0471325
9.73 -0.0333066
9.74 -0.0189291
9.75 -0.00406875
9.76 0.011222
9.77 0.0268684
9.78 0.0427781
9.79 0.0588887
9.8 0.0751429
9.81 0.0914889
9.82 0.107881
9.83 0.124277
9.84 0.140639
9.85 0.156941
9.86 0.173159
9.87 0.189275
9.88 0.205269
9.89 0.221119
9.9 0.2368
9.91 0.252302
9.92 0.267602
9.93 0.282676
9.94 0.29749
9.95 0.31201
9.96 0.32616
9.97 0.339912
9.98 0.353222
9.99 0.366038
10 0.378302
10.01 0.38996
10.02 0.400934
10.03 0.41112
10.04 0.42053
10.05 0.429121
10.06 0.436856
10.07 0.443708
10.08 0.44966
10.09 0.454629
10.1 0.458665
10.11 0.461818
10.12 0.464117
10.13 0.465602
10.14 0.466324
10.15 0.466331
10.16 0.465647
10.17 0.464418
10.18 0.462722
10.19 0.460642
10.2 0.45826
10.21 0.455658
10.22 0.45291
10.23 0.450105
10.24 0.447315
10.25 0.444599
10.26 0.442007
10.27 0.439579
10.28 0.437348
10.29 0.435357
10.3 0.43359
10.31 0.432043
10.32 0.430703
10.33 0.429545
10.34 0.428539
10.35 0.427648
10.36 0.426816
10.37 0.425985
10.38 0.425096
10.39 0.424088
10.4 0.422898
10.41 0.421461
10.42 0.419672
10.43 0.417495
10.44 0.41487
10.45 0.411741
10.46 0.408054
10.47 0.403759
10.48 0.398779
10.49 0.393057
10.5 0.386607
10.51 0.379406
10.52 0.371435
10.53 0.362686
10.54 0.353156
10.55 0.342771
10.56 0.331613
10.57 0.319717
10.58 0.307109
10.59 0.293826
10.6 0.279908
10.61 0.265381
10.62 0.250285
10.63 0.234722
10.64 0.218751
10.65 0.202436
10.66 0.185841
10.67 0.169028
10.68 0.152053
10.69 0.134992
10.7 0.117906
10.71 0.100847
10.72 0.0838619
10.73 0.0669915
10.74 0.0502754
10.75 0.0337551
10.76 0.0174353
10.77 0.0013277
10.78 -0.0145628
10.79 -0.0302377
10.8 -0.0457039
10.81 -0.0609589
10.82 -0.0760294
10.83 -0.0909419
10.84 -0.105717
10.85 -0.120375
10.86 -0.134935
10.87 -0.149415
10.88 -0.163825
10.89 -0.17818
10.9 -0.192485
10.91 -0.206739
10.92 -0.220935
10.93 -0.235058
10.94 -0.249082
10.95 -0.26298
10.96 -0.276727
10.97 -0.290286
10.98 -0.30362
10.99 -0.31669
11 -0.329452
11.01 -0.341822
11.02 -0.353796
11.03 -0.365334
11.04 -0.376403
11.05 -0.38697
11.06 -0.397006
11.07 -0.406456
11.08 -0.415298
11.09 -0.42355
11.1 -0.431204
11.11 -0.438253
11.12 -0.444697
11.13 -0.450533
11.14 -0.455699
11.15 -0.460258
11.16 -0.464219
11.17 -0.467582
11.18 -0.470348
11.19 -0.472516
11.2 -0.474054
11.21 -0.474939
11.22 -0.475206
11.23 -0.474843
11.24 -0.473836
11.25 -0.472173
11.26 -0.469837
11.27 -0.466745
11.28 -0.462938
11.29 -0.458417
11.3 -0.453174
11.31 -0.447205
11.32 -0.44051
11.33 -0.43307
11.34 -0.424862
11.35 -0.415965
11.36 -0.406399
11.37 -0.396194
11.38 -0.385381
11.39 -0.373997
11.4 -0.36204
11.41 -0.349588
11.42 -0.336702
11.43 -0.323426
11.44 -0.309804
11.45 -0.29588
11.46 -0.281688
11.47 -0.267257
11.48 -0.252643
11.49 -0.237878
11.5 -0.22299
11.51 -0.208004
11.52 -0.192941
11.53 -0.17782
11.54 -0.162665
11.55 -0.147498
11.56 -0.132341
11.57 -0.117216
11.58 -0.102152
11.59 -0.0871793
11.6 -0.0723511
11.61 -0.0576992
11.62 -0.0432712
11.63 -0.0291196
11.64 -0.0153021
11.65 -0.00187986
11.66 0.0110478
11.67 0.0234123
11.68 0.0351719
11.69 0.0462634
11.7 0.0566279
11.71 0.0662122
11.72 0.0749698
11.73 0.0827652
11.74 0.0896739
11.75 0.0956883
11.76 0.100815
11.77 0.105074
11.78 0.108501
11.79 0.111105
11.8 0.112955
11.81 0.114176
11.82 0.114854
11.83 0.115083
11.84 0.11496
11.85 0.114586
11.86 0.114054
11.87 0.113482
11.88 0.112955
11.89 0.11255
11.9 0.112326
11.91 0.11233
11.92 0.112604
11.93 0.113164
11.94 0.113979
11.95 0.115016
11.96 0.116224
11.97 0.117538
11.98 0.118874
11.99 0.12012
12 0.121161
12.01 0.121885
12.02 0.122175
12.03 0.121912
12.04 0.120982
12.05 0.119249
12.06 0.11656
12.07 0.112899
12.08 0.1082
12.09 0.102414
12.1 0.0955123
12.11 0.0874816
12.12 0.078236
12.13 0.0678694
12.14 0.0564654
12.15 0.0440883
12.16 0.0308166
12.17 0.0167405
12.18 0.00194661
12.19 -0.0134879
