# xPDFsuite Configuration #
[PDF]
wavelength = 0.1
dataformat = QA
inputfile = BiMsol6_insitu_700 C-00468.xy
backgroundfile = Quartz2mm-dist500-00000.xy
mode = xray
bgscale = 0.0042
composition = Bi2Fe4O9
outputtype = gr
qmaxinst = 24.998449118
qmin = 0.1
qmax = 21.4986662415
rmax = 80.0
rmin = 0.0
rstep = 0.01
rpoly = 0.9

[Misc]
inputdir = C:/Data/Seafile/CPH/Beamtime/Desy Oct 20/In situ data/Processed/BiMsol6/PDF
savedir = C:/Data/Seafile/CPH/Beamtime/Desy Oct 20/In situ data/PDF/BiMsol6
backgroundfilefull = C:/Data/Seafile/CPH/Beamtime/Desy Oct 20/In situ data/Processed/Standard_Empty_Cap/Quartz2mm-dist500-00000.xy

#### start data
#S 1
#L r($\AA$)  G($\AA^{-2}$)
0 0
0.01 0.00636709
0.02 0.0123731
0.03 0.0177089
0.04 0.0220975
0.05 0.0253061
0.06 0.0271575
0.07 0.0274581
0.08 0.0261518
0.09 0.0233821
0.1 0.0192671
0.11 0.0139899
0.12 0.00779041
0.13 0.000954576
0.14 -0.00619565
0.15 -0.0132564
0.16 -0.0198867
0.17 -0.0257669
0.18 -0.0306108
0.19 -0.0341796
0.2 -0.0362284
0.21 -0.0365906
0.22 -0.0353663
0.23 -0.0326238
0.24 -0.0285097
0.25 -0.023244
0.26 -0.017112
0.27 -0.0104392
0.28 -0.00369045
0.29 0.00272028
0.3 0.0083913
0.31 0.0129413
0.32 0.0160281
0.33 0.0173056
0.34 0.0164362
0.35 0.0134762
0.36 0.00842688
0.37 0.00139426
0.38 -0.00740916
0.39 -0.0176676
0.4 -0.0290136
0.41 -0.040822
0.42 -0.0524795
0.43 -0.0633623
0.44 -0.0728257
0.45 -0.0802281
0.46 -0.0848914
0.47 -0.0859417
0.48 -0.0831939
0.49 -0.0762976
0.5 -0.0650261
0.51 -0.0492915
0.52 -0.0291542
0.53 -0.00455175
0.54 0.0239519
0.55 0.0556172
0.56 0.0897561
0.57 0.125565
0.58 0.162148
0.59 0.198529
0.6 0.233458
0.61 0.265969
0.62 0.295083
0.63 0.319884
0.64 0.339551
0.65 0.353381
0.66 0.360395
0.67 0.360203
0.68 0.352997
0.69 0.338795
0.7 0.317805
0.71 0.290417
0.72 0.257195
0.73 0.218372
0.74 0.175479
0.75 0.129518
0.76 0.0815512
0.77 0.032677
0.78 -0.0159977
0.79 -0.0632733
0.8 -0.10795
0.81 -0.14922
0.82 -0.186302
0.83 -0.218556
0.84 -0.245503
0.85 -0.26683
0.86 -0.281811
0.87 -0.29104
0.88 -0.294845
0.89 -0.293632
0.9 -0.287937
0.91 -0.278411
0.92 -0.265703
0.93 -0.250644
0.94 -0.234298
0.95 -0.217491
0.96 -0.201021
0.97 -0.185625
0.98 -0.171959
0.99 -0.160834
1 -0.152566
1.01 -0.14738
1.02 -0.145423
1.03 -0.146716
1.04 -0.151152
1.05 -0.158582
1.06 -0.168786
1.07 -0.181079
1.08 -0.194973
1.09 -0.209944
1.1 -0.225449
1.11 -0.240953
1.12 -0.255863
1.13 -0.269689
1.14 -0.282065
1.15 -0.292687
1.16 -0.301332
1.17 -0.307872
1.18 -0.312233
1.19 -0.314311
1.2 -0.314475
1.21 -0.31295
1.22 -0.31002
1.23 -0.306006
1.24 -0.301258
1.25 -0.296135
1.26 -0.291043
1.27 -0.286316
1.28 -0.282231
1.29 -0.279014
1.3 -0.27683
1.31 -0.275784
1.32 -0.276021
1.33 -0.277356
1.34 -0.279666
1.35 -0.282773
1.36 -0.286455
1.37 -0.290452
1.38 -0.294471
1.39 -0.298181
1.4 -0.301308
1.41 -0.303602
1.42 -0.304852
1.43 -0.304893
1.44 -0.303616
1.45 -0.300824
1.46 -0.296696
1.47 -0.291341
1.48 -0.284919
1.49 -0.277649
1.5 -0.269791
1.51 -0.261644
1.52 -0.253575
1.53 -0.245927
1.54 -0.239014
1.55 -0.233126
1.56 -0.228517
1.57 -0.225389
1.58 -0.22406
1.59 -0.224461
1.6 -0.226553
1.61 -0.230246
1.62 -0.235381
1.63 -0.241732
1.64 -0.249032
1.65 -0.256922
1.66 -0.264952
1.67 -0.272724
1.68 -0.279837
1.69 -0.285902
1.7 -0.290557
1.71 -0.293299
1.72 -0.293948
1.73 -0.292368
1.74 -0.288449
1.75 -0.28216
1.76 -0.273551
1.77 -0.262701
1.78 -0.249719
1.79 -0.235091
1.8 -0.21916
1.81 -0.202311
1.82 -0.184954
1.83 -0.167514
1.84 -0.150471
1.85 -0.134261
1.86 -0.119225
1.87 -0.10567
1.88 -0.0938388
1.89 -0.0839076
1.9 -0.0760059
1.91 -0.0703261
1.92 -0.0665853
1.93 -0.0646347
1.94 -0.0642601
1.95 -0.0651918
1.96 -0.0671163
1.97 -0.069708
1.98 -0.0725424
1.99 -0.0752328
2 -0.0774418
2.01 -0.0788655
2.02 -0.0792466
2.03 -0.0783805
2.04 -0.0759763
2.05 -0.0721403
2.06 -0.0669108
2.07 -0.0604018
2.08 -0.0528004
2.09 -0.0443594
2.1 -0.0353804
2.11 -0.0262801
2.12 -0.0174826
2.13 -0.00939653
2.14 -0.00242885
2.15 0.00303094
2.16 0.00662546
2.17 0.00777693
2.18 0.00644295
2.19 0.00247693
2.2 -0.00420606
2.21 -0.0136087
2.22 -0.0256503
2.23 -0.0402694
2.24 -0.0572387
2.25 -0.0760562
2.26 -0.096339
2.27 -0.11766
2.28 -0.139563
2.29 -0.161576
2.3 -0.183147
2.31 -0.203803
2.32 -0.223139
2.33 -0.24079
2.34 -0.256449
2.35 -0.269876
2.36 -0.280822
2.37 -0.289081
2.38 -0.294868
2.39 -0.298277
2.4 -0.299473
2.41 -0.298687
2.42 -0.296203
2.43 -0.292265
2.44 -0.287362
2.45 -0.281915
2.46 -0.276309
2.47 -0.270914
2.48 -0.266078
2.49 -0.262137
2.5 -0.259464
2.51 -0.258169
2.52 -0.258385
2.53 -0.260185
2.54 -0.263577
2.55 -0.268508
2.56 -0.274964
2.57 -0.282702
2.58 -0.291448
2.59 -0.300953
2.6 -0.310945
2.61 -0.321142
2.62 -0.331255
2.63 -0.340945
2.64 -0.349974
2.65 -0.358122
2.66 -0.365204
2.67 -0.371072
2.68 -0.375626
2.69 -0.378718
2.7 -0.38036
2.71 -0.380665
2.72 -0.379713
2.73 -0.377617
2.74 -0.374516
2.75 -0.370567
2.76 -0.365887
2.77 -0.360745
2.78 -0.355314
2.79 -0.349755
2.8 -0.344213
2.81 -0.338812
2.82 -0.333668
2.83 -0.328863
2.84 -0.324416
2.85 -0.320336
2.86 -0.316605
2.87 -0.313182
2.88 -0.310008
2.89 -0.307014
2.9 -0.304088
2.91 -0.301135
2.92 -0.298059
2.93 -0.294772
2.94 -0.291193
2.95 -0.287232
2.96 -0.282814
2.97 -0.277928
2.98 -0.272551
2.99 -0.266673
3 -0.260298
3.01 -0.253439
3.02 -0.246076
3.03 -0.238269
3.04 -0.230052
3.05 -0.221445
3.06 -0.212459
3.07 -0.203093
3.08 -0.193322
3.09 -0.183089
3.1 -0.172381
3.11 -0.161136
3.12 -0.149277
3.13 -0.136719
3.14 -0.123366
3.15 -0.109037
3.16 -0.0936682
3.17 -0.077201
3.18 -0.0595588
3.19 -0.0406829
3.2 -0.0205371
3.21 0.000914271
3.22 0.023738
3.23 0.0477474
3.24 0.0728438
3.25 0.0988935
3.26 0.125729
3.27 0.15315
3.28 0.180936
3.29 0.208786
3.3 0.236411
3.31 0.263528
3.32 0.289848
3.33 0.315087
3.34 0.338957
3.35 0.361018
3.36 0.381199
3.37 0.39931
3.38 0.415198
3.39 0.42875
3.4 0.439899
3.41 0.448467
3.42 0.454504
3.43 0.458215
3.44 0.459714
3.45 0.459147
3.46 0.456691
3.47 0.452549
3.48 0.446797
3.49 0.439857
3.5 0.431968
3.51 0.423362
3.52 0.414261
3.53 0.404873
3.54 0.395391
3.55 0.386001
3.56 0.376839
3.57 0.368007
3.58 0.359581
3.59 0.351608
3.6 0.344112
3.61 0.337138
3.62 0.330618
3.63 0.324507
3.64 0.318757
3.65 0.313313
3.66 0.308121
3.67 0.303137
3.68 0.298317
3.69 0.293618
3.7 0.289024
3.71 0.284537
3.72 0.280174
3.73 0.275969
3.74 0.271997
3.75 0.268319
3.76 0.265009
3.77 0.262155
3.78 0.259851
3.79 0.25819
3.8 0.257291
3.81 0.257297
3.82 0.258216
3.83 0.26011
3.84 0.263021
3.85 0.266975
3.86 0.271978
3.87 0.278099
3.88 0.285245
3.89 0.293319
3.9 0.302243
3.91 0.311921
3.92 0.322243
3.93 0.333098
3.94 0.344368
3.95 0.355871
3.96 0.36747
3.97 0.379029
3.98 0.39042
3.99 0.401518
4 0.412172
4.01 0.422278
4.02 0.431765
4.03 0.440557
4.04 0.448592
4.05 0.455818
4.06 0.462187
4.07 0.467579
4.08 0.472067
4.09 0.475641
4.1 0.478294
4.11 0.480023
4.12 0.480827
4.13 0.480651
4.14 0.479499
4.15 0.477421
4.16 0.474415
4.17 0.470475
4.18 0.465596
4.19 0.459768
4.2 0.452875
4.21 0.44501
4.22 0.436171
4.23 0.426353
4.24 0.415555
4.25 0.403781
4.26 0.390991
4.27 0.377188
4.28 0.36246
4.29 0.346838
4.3 0.33036
4.31 0.313072
4.32 0.295026
4.33 0.276214
4.34 0.256768
4.35 0.236765
4.36 0.216276
4.37 0.195372
4.38 0.174126
4.39 0.152601
4.4 0.130866
4.41 0.109009
4.42 0.0870912
4.43 0.0651702
4.44 0.0432998
4.45 0.0215293
4.46 -7.91469e-05
4.47 -0.0214894
4.48 -0.0426683
4.49 -0.0635816
4.5 -0.0841969
4.51 -0.104483
4.52 -0.124399
4.53 -0.143887
4.54 -0.162948
4.55 -0.181552
4.56 -0.199665
4.57 -0.217256
4.58 -0.234291
4.59 -0.250686
4.6 -0.26643
4.61 -0.281512
4.62 -0.295902
4.63 -0.309575
4.64 -0.322507
4.65 -0.334666
4.66 -0.345973
4.67 -0.356499
4.68 -0.366245
4.69 -0.375217
4.7 -0.383429
4.71 -0.390902
4.72 -0.397617
4.73 -0.403624
4.74 -0.408998
4.75 -0.413781
4.76 -0.418017
4.77 -0.421754
4.78 -0.425037
4.79 -0.427877
4.8 -0.430369
4.81 -0.432555
4.82 -0.434477
4.83 -0.436169
4.84 -0.437664
4.85 -0.438982
4.86 -0.440147
4.87 -0.441189
4.88 -0.442119
4.89 -0.442949
4.9 -0.443684
4.91 -0.44433
4.92 -0.444878
4.93 -0.445339
4.94 -0.445711
4.95 -0.445993
4.96 -0.446183
4.97 -0.446279
4.98 -0.446272
4.99 -0.446155
5 -0.445929
5.01 -0.445587
5.02 -0.445119
5.03 -0.444512
5.04 -0.44375
5.05 -0.442793
5.06 -0.441625
5.07 -0.440219
5.08 -0.438539
5.09 -0.436544
5.1 -0.434188
5.11 -0.431406
5.12 -0.428116
5.13 -0.4243
5.14 -0.419901
5.15 -0.414868
5.16 -0.40915
5.17 -0.402702
5.18 -0.395414
5.19 -0.3873
5.2 -0.378363
5.21 -0.368597
5.22 -0.358005
5.23 -0.346605
5.24 -0.334412
5.25 -0.321424
5.26 -0.307774
5.27 -0.293532
5.28 -0.278779
5.29 -0.263603
5.3 -0.248101
5.31 -0.232361
5.32 -0.216509
5.33 -0.200653
5.34 -0.184889
5.35 -0.16931
5.36 -0.153998
5.37 -0.139035
5.38 -0.124527
5.39 -0.110485
5.4 -0.0969458
5.41 -0.0839334
5.42 -0.0714596
5.43 -0.0595251
5.44 -0.048155
5.45 -0.0373197
5.46 -0.0269672
5.47 -0.0170683
5.48 -0.00759215
5.49 0.00149173
5.5 0.0102107
5.51 0.0185526
5.52 0.026575
5.53 0.0342866
5.54 0.0416886
5.55 0.0487736
5.56 0.055526
5.57 0.0619015
5.58 0.0678626
5.59 0.0733955
5.6 0.0784615
5.61 0.083021
5.62 0.0870359
5.63 0.0904713
5.64 0.0932302
5.65 0.0953513
5.66 0.0968312
5.67 0.0976728
5.68 0.0978907
5.69 0.097513
5.7 0.0965581
5.71 0.0950742
5.72 0.0931685
5.73 0.0909176
5.74 0.0884057
5.75 0.0857218
5.76 0.0829576
5.77 0.0802143
5.78 0.0775882
5.79 0.0751592
5.8 0.0729985
5.81 0.071166
5.82 0.0697084
5.83 0.068672
5.84 0.0680954
5.85 0.0679406
5.86 0.0681894
5.87 0.0688092
5.88 0.069755
5.89 0.0709711
5.9 0.0724055
5.91 0.0739686
5.92 0.0755829
5.93 0.0771787
5.94 0.078691
5.95 0.0800626
5.96 0.0812413
5.97 0.0821734
5.98 0.0828611
5.99 0.0833035
6 0.0835157
6.01 0.0835284
6.02 0.0833871
6.03 0.0831489
6.04 0.0828984
6.05 0.0827198
6.06 0.0826986
6.07 0.0829219
6.08 0.0834748
6.09 0.0844425
6.1 0.085949
6.11 0.0880047
6.12 0.0906495
6.13 0.0939058
6.14 0.0977769
6.15 0.102246
6.16 0.107308
6.17 0.112887
6.18 0.118873
6.19 0.125167
6.2 0.131658
6.21 0.138222
6.22 0.144727
6.23 0.150998
6.24 0.15691
6.25 0.16233
6.26 0.167135
6.27 0.171212
6.28 0.174462
6.29 0.176752
6.3 0.178002
6.31 0.178235
6.32 0.177436
6.33 0.17561
6.34 0.172785
6.35 0.169005
6.36 0.16425
6.37 0.158692
6.38 0.152436
6.39 0.145586
6.4 0.13825
6.41 0.130539
6.42 0.12256
6.43 0.114428
6.44 0.106263
6.45 0.0981529
6.46 0.090179
6.47 0.0824084
6.48 0.0748959
6.49 0.067714
6.5 0.0608704
6.51 0.0543707
6.52 0.0482161
6.53 0.0423982
6.54 0.0369002
6.55 0.0317071
6.56 0.0268021
6.57 0.0221295
6.58 0.0176585
6.59 0.0133596
6.6 0.00920635
6.61 0.00517638
6.62 0.00125998
6.63 -0.00256053
6.64 -0.00629302
6.65 -0.00993609
6.66 -0.0134829
6.67 -0.0169219
6.68 -0.0202343
6.69 -0.0233876
6.7 -0.0263725
6.71 -0.0291667
6.72 -0.0317482
6.73 -0.034096
6.74 -0.0361907
6.75 -0.0379951
6.76 -0.0395014
6.77 -0.0407118
6.78 -0.0416198
6.79 -0.0422215
6.8 -0.0425158
6.81 -0.042501
6.82 -0.0421493
6.83 -0.0414972
6.84 -0.0405477
6.85 -0.039303
6.86 -0.0377641
6.87 -0.03593
6.88 -0.0337789
6.89 -0.0313057
6.9 -0.0285185
6.91 -0.0254066
6.92 -0.0219577
6.93 -0.0181583
6.94 -0.0139944
6.95 -0.00940771
6.96 -0.00442724
6.97 0.000955532
6.98 0.00674693
6.99 0.0129492
7 0.0195601
7.01 0.0265913
7.02 0.034033
7.03 0.0418378
7.04 0.0499792
7.05 0.0584253
7.06 0.067139
7.07 0.076079
7.08 0.0852141
7.09 0.0944749
7.1 0.10381
7.11 0.113169
7.12 0.122503
7.13 0.131765
7.14 0.140904
7.15 0.149866
7.16 0.158626
7.17 0.167151
7.18 0.175414
7.19 0.183391
7.2 0.191064
7.21 0.198385
7.22 0.205362
7.23 0.211994
7.24 0.21827
7.25 0.224181
7.26 0.229717
7.27 0.234855
7.28 0.239552
7.29 0.243825
7.3 0.247649
7.31 0.250998
7.32 0.253839
7.33 0.256139
7.34 0.257805
7.35 0.258817
7.36 0.259152
7.37 0.258762
7.38 0.257604
7.39 0.255634
7.4 0.252795
7.41 0.248973
7.42 0.244224
7.43 0.238525
7.44 0.231861
7.45 0.224225
7.46 0.215619
7.47 0.205989
7.48 0.195382
7.49 0.183878
7.5 0.171518
7.51 0.158354
7.52 0.144443
7.53 0.129849
7.54 0.114588
7.55 0.0988136
7.56 0.0826084
7.57 0.0660576
7.58 0.049249
7.59 0.0322712
7.6 0.0152142
7.61 -0.00181943
7.62 -0.0187384
7.63 -0.0354567
7.64 -0.0518903
7.65 -0.0679577
7.66 -0.0835795
7.67 -0.0986128
7.68 -0.113033
7.69 -0.126775
7.7 -0.139772
7.71 -0.151962
7.72 -0.16329
7.73 -0.173657
7.74 -0.182989
7.75 -0.191312
7.76 -0.198596
7.77 -0.204817
7.78 -0.209961
7.79 -0.214021
7.8 -0.216897
7.81 -0.218698
7.82 -0.21947
7.83 -0.219255
7.84 -0.218102
7.85 -0.216074
7.86 -0.213215
7.87 -0.209586
7.88 -0.205341
7.89 -0.200574
7.9 -0.195384
7.91 -0.189874
7.92 -0.184144
7.93 -0.178292
7.94 -0.172432
7.95 -0.166652
7.96 -0.161032
7.97 -0.15564
7.98 -0.150533
7.99 -0.145766
8 -0.141396
8.01 -0.137408
8.02 -0.133802
8.03 -0.130569
8.04 -0.127688
8.05 -0.125126
8.06 -0.122864
8.07 -0.120837
8.08 -0.118986
8.09 -0.11726
8.1 -0.11561
8.11 -0.11399
8.12 -0.112359
8.13 -0.110676
8.14 -0.10892
8.15 -0.107078
8.16 -0.105147
8.17 -0.103132
8.18 -0.101049
8.19 -0.0989223
8.2 -0.0967874
8.21 -0.0946836
8.22 -0.0926506
8.23 -0.0907279
8.24 -0.0889535
8.25 -0.0873612
8.26 -0.0860029
8.27 -0.0848725
8.28 -0.0839746
8.29 -0.0833014
8.3 -0.0828327
8.31 -0.0825349
8.32 -0.0823652
8.33 -0.0822546
8.34 -0.0821242
8.35 -0.0818939
8.36 -0.0814774
8.37 -0.0807853
8.38 -0.0797276
8.39 -0.0781583
8.4 -0.0760351
8.41 -0.0732915
8.42 -0.0698695
8.43 -0.0657254
8.44 -0.0608322
8.45 -0.0551467
8.46 -0.0486624
8.47 -0.0414673
8.48 -0.0336127
8.49 -0.0251674
8.5 -0.016215
8.51 -0.00685203
8.52 0.00283298
8.53 0.0126885
8.54 0.022591
8.55 0.0324234
8.56 0.0420726
8.57 0.0514331
8.58 0.0603933
8.59 0.0688392
8.6 0.0767412
8.61 0.0840538
8.62 0.0907492
8.63 0.0968174
8.64 0.102266
8.65 0.107069
8.66 0.111306
8.67 0.115047
8.68 0.118354
8.69 0.121293
8.7 0.123934
8.71 0.126341
8.72 0.128573
8.73 0.130705
8.74 0.132782
8.75 0.134834
8.76 0.136878
8.77 0.138916
8.78 0.140931
8.79 0.142889
8.8 0.144744
8.81 0.146437
8.82 0.147899
8.83 0.149053
8.84 0.149812
8.85 0.150039
8.86 0.149695
8.87 0.148705
8.88 0.147001
8.89 0.144527
8.9 0.141238
8.91 0.137048
8.92 0.131956
8.93 0.12601
8.94 0.119233
8.95 0.111662
8.96 0.103346
8.97 0.0943465
8.98 0.0846743
8.99 0.0744865
9 0.0638662
9.01 0.052897
9.02 0.0416607
9.03 0.0302342
9.04 0.0186851
9.05 0.00708244
9.06 -0.0045183
9.07 -0.0160794
9.08 -0.0275746
9.09 -0.0389881
9.1 -0.0503144
9.11 -0.0615485
9.12 -0.0727104
9.13 -0.0838162
9.14 -0.0948829
9.15 -0.105927
9.16 -0.11696
9.17 -0.127989
9.18 -0.139013
9.19 -0.150017
9.2 -0.160978
9.21 -0.171859
9.22 -0.182612
9.23 -0.193177
9.24 -0.203451
9.25 -0.213364
9.26 -0.222832
9.27 -0.231765
9.28 -0.24007
9.29 -0.247655
9.3 -0.254407
9.31 -0.260191
9.32 -0.265012
9.33 -0.268819
9.34 -0.271578
9.35 -0.273271
9.36 -0.273895
9.37 -0.273384
9.38 -0.271831
9.39 -0.269327
9.4 -0.265939
9.41 -0.261745
9.42 -0.256834
9.43 -0.251287
9.44 -0.245172
9.45 -0.238637
9.46 -0.231769
9.47 -0.224644
9.48 -0.217327
9.49 -0.209869
9.5 -0.202298
9.51 -0.194635
9.52 -0.186879
9.53 -0.17901
9.54 -0.170991
9.55 -0.162772
9.56 -0.154288
9.57 -0.145428
9.58 -0.136145
9.59 -0.126364
9.6 -0.116011
9.61 -0.105023
9.62 -0.0933428
9.63 -0.0808827
9.64 -0.0676222
9.65 -0.0535998
9.66 -0.038834
9.67 -0.0233634
9.68 -0.00724664
9.69 0.00943829
9.7 0.0266381
9.71 0.0441758
9.72 0.0619257
9.73 0.0797554
9.74 0.0975288
9.75 0.11511
9.76 0.132343
9.77 0.149081
9.78 0.165237
9.79 0.180718
9.8 0.195448
9.81 0.20937
9.82 0.222448
9.83 0.234576
9.84 0.245841
9.85 0.256282
9.86 0.265942
9.87 0.274878
9.88 0.283157
9.89 0.290833
9.9 0.297975
9.91 0.304703
9.92 0.311084
9.93 0.317182
9.94 0.323043
9.95 0.328704
9.96 0.334167
9.97 0.339444
9.98 0.344521
9.99 0.349361
10 0.353914
10.01 0.358117
10.02 0.36188
10.03 0.365082
10.04 0.367676
10.05 0.36958
10.06 0.370715
10.07 0.371013
10.08 0.370415
10.09 0.368803
10.1 0.366196
10.11 0.36263
10.12 0.358128
10.13 0.352736
10.14 0.346517
10.15 0.339547
10.16 0.331891
10.17 0.323742
10.18 0.315232
10.19 0.306497
10.2 0.297679
10.21 0.288917
10.22 0.280365
10.23 0.27216
10.24 0.264395
10.25 0.25716
10.26 0.250522
10.27 0.244528
10.28 0.239208
10.29 0.234628
10.3 0.230687
10.31 0.227337
10.32 0.224512
10.33 0.222129
10.34 0.220095
10.35 0.218312
10.36 0.216653
10.37 0.214995
10.38 0.213231
10.39 0.211259
10.4 0.208989
10.41 0.206342
10.42 0.203198
10.43 0.199555
10.44 0.195385
10.45 0.190677
10.46 0.185434
10.47 0.179674
10.48 0.173403
10.49 0.16666
10.5 0.159523
10.51 0.152044
10.52 0.144273
10.53 0.136257
10.54 0.128041
10.55 0.119644
10.56 0.111108
10.57 0.102447
10.58 0.0936627
10.59 0.0847435
10.6 0.0756676
10.61 0.0663949
10.62 0.0568697
10.63 0.0470609
10.64 0.0369195
10.65 0.0263965
10.66 0.0154464
10.67 0.00402941
10.68 -0.00793237
10.69 -0.0204267
10.7 -0.033443
10.71 -0.0469692
10.72 -0.0609771
10.73 -0.0754229
10.74 -0.0902553
10.75 -0.105408
10.76 -0.12076
10.77 -0.136212
10.78 -0.151659
10.79 -0.166992
10.8 -0.182104
10.81 -0.196855
10.82 -0.211152
10.83 -0.224924
10.84 -0.238101
10.85 -0.25063
10.86 -0.262479
10.87 -0.27362
10.88 -0.284003
10.89 -0.29373
10.9 -0.302849
10.91 -0.311424
10.92 -0.319535
10.93 -0.327269
10.94 -0.334712
10.95 -0.341982
10.96 -0.34919
10.97 -0.356427
10.98 -0.363775
10.99 -0.371302
11 -0.379061
11.01 -0.387112
11.02 -0.395435
11.03 -0.404012
11.04 -0.412803
11.05 -0.421746
11.06 -0.430759
11.07 -0.439733
11.08 -0.448531
11.09 -0.457026
11.1 -0.46508
11.11 -0.472554
11.12 -0.479309
11.13 -0.485213
11.14 -0.490026
11.15 -0.493732
11.16 -0.496255
11.17 -0.49753
11.18 -0.497518
11.19 -0.4962
11.2 -0.493528
11.21 -0.489509
11.22 -0.484297
11.23 -0.47797
11.24 -0.470627
11.25 -0.462378
11.26 -0.453343
11.27 -0.443596
11.28 -0.433332
11.29 -0.422686
11.3 -0.411773
11.31 -0.400695
11.32 -0.389542
11.33 -0.378386
11.34 -0.367286
11.35 -0.356267
11.36 -0.345333
11.37 -0.33447
11.38 -0.323642
11.39 -0.3128
11.4 -0.301863
11.41 -0.29075
11.42 -0.279379
11.43 -0.267661
11.44 -0.25551
11.45 -0.242846
11.46 -0.22958
11.47 -0.215603
11.48 -0.200929
11.49 -0.185536
11.5 -0.169421
11.51 -0.152601
11.52 -0.135114
11.53 -0.116975
11.54 -0.0982961
11.55 -0.0791968
11.56 -0.0597859
11.57 -0.0401824
11.58 -0.0205118
11.59 -0.000905303
11.6 0.0184765
11.61 0.0375208
11.62 0.0561143
11.63 0.0741553
11.64 0.091556
11.65 0.108245
11.66 0.124115
11.67 0.13914
11.68 0.153348
11.69 0.166743
11.7 0.17935
11.71 0.191205
11.72 0.202357
11.73 0.2128
11.74 0.222684
11.75 0.232078
11.76 0.241055
11.77 0.249682
11.78 0.25802
11.79 0.266113
11.8 0.274007
11.81 0.281741
11.82 0.289327
11.83 0.296763
11.84 0.304031
11.85 0.311099
11.86 0.317892
11.87 0.324368
11.88 0.330463
11.89 0.3361
11.9 0.3412
11.91 0.345681
11.92 0.349429
11.93 0.352332
11.94 0.354372
11.95 0.355487
11.96 0.355626
11.97 0.354745
11.98 0.352817
11.99 0.34972
12 0.345532
12.01 0.340286
12.02 0.334003
12.03 0.326713
12.04 0.318454
12.05 0.309243
12.06 0.299093
12.07 0.288133
12.08 0.276417
12.09 0.263997
12.1 0.250925
12.11 0.237246
12.12 0.222958
12.13 0.208133
12.14 0.192821
12.15 0.177048
12.16 0.160838
12.17 0.144211
