# xPDFsuite Configuration #
[PDF]
wavelength = 0.1
dataformat = QA
inputfile = BiMsol6_insitu_700 C-00534.xy
backgroundfile = Quartz2mm-dist500-00000.xy
mode = xray
bgscale = 0.0042
composition = Bi2Fe4O9
outputtype = gr
qmaxinst = 24.998449118
qmin = 0.1
qmax = 21.4986662415
rmax = 80.0
rmin = 0.0
rstep = 0.01
rpoly = 0.9

[Misc]
inputdir = C:/Data/Seafile/CPH/Beamtime/Desy Oct 20/In situ data/Processed/BiMsol6/PDF
savedir = C:/Data/Seafile/CPH/Beamtime/Desy Oct 20/In situ data/PDF/BiMsol6
backgroundfilefull = C:/Data/Seafile/CPH/Beamtime/Desy Oct 20/In situ data/Processed/Standard_Empty_Cap/Quartz2mm-dist500-00000.xy

#### start data
#S 1
#L r($\AA$)  G($\AA^{-2}$)
0 0
0.01 0.0059569
0.02 0.0115745
0.03 0.0165626
0.04 0.0206606
0.05 0.0236501
0.06 0.0253648
0.07 0.0256227
0.08 0.0243715
0.09 0.0217462
0.1 0.0178579
0.11 0.0128789
0.12 0.00703476
0.13 0.000594448
0.14 -0.00613925
0.15 -0.0127869
0.16 -0.0190284
0.17 -0.0245634
0.18 -0.0291233
0.19 -0.0324841
0.2 -0.034416
0.21 -0.0347635
0.22 -0.0336213
0.23 -0.0310542
0.24 -0.027201
0.25 -0.0222693
0.26 -0.016528
0.27 -0.0102844
0.28 -0.00397582
0.29 0.00200838
0.3 0.00729023
0.31 0.0115111
0.32 0.0143495
0.33 0.0154801
0.34 0.0145859
0.35 0.0117212
0.36 0.00688829
0.37 0.000188182
0.38 -0.00817774
0.39 -0.0179107
0.4 -0.0286629
0.41 -0.039844
0.42 -0.0508749
0.43 -0.0611664
0.44 -0.0701095
0.45 -0.077098
0.46 -0.0814907
0.47 -0.0824604
0.48 -0.079832
0.49 -0.0732726
0.5 -0.0625661
0.51 -0.0476267
0.52 -0.0285085
0.53 -0.00514706
0.54 0.0219284
0.55 0.0520221
0.56 0.0844877
0.57 0.11857
0.58 0.153425
0.59 0.188132
0.6 0.22152
0.61 0.252667
0.62 0.280649
0.63 0.304597
0.64 0.32373
0.65 0.337378
0.66 0.344606
0.67 0.345034
0.68 0.338829
0.69 0.325994
0.7 0.30671
0.71 0.281328
0.72 0.250364
0.73 0.214008
0.74 0.173698
0.75 0.130366
0.76 0.0849987
0.77 0.0386235
0.78 -0.00772429
0.79 -0.0529264
0.8 -0.0958547
0.81 -0.135734
0.82 -0.17182
0.83 -0.203498
0.84 -0.2303
0.85 -0.251914
0.86 -0.26764
0.87 -0.278001
0.88 -0.283278
0.89 -0.283822
0.9 -0.280111
0.91 -0.272726
0.92 -0.262245
0.93 -0.249414
0.94 -0.235217
0.95 -0.220413
0.96 -0.205733
0.97 -0.191859
0.98 -0.179401
0.99 -0.1691
1 -0.161271
1.01 -0.156139
1.02 -0.153859
1.03 -0.154466
1.04 -0.157886
1.05 -0.164001
1.06 -0.172631
1.07 -0.183174
1.08 -0.195204
1.09 -0.208258
1.1 -0.221856
1.11 -0.235524
1.12 -0.24874
1.13 -0.261059
1.14 -0.272154
1.15 -0.281745
1.16 -0.289632
1.17 -0.295693
1.18 -0.299854
1.19 -0.302018
1.2 -0.302502
1.21 -0.301497
1.22 -0.299244
1.23 -0.296023
1.24 -0.292135
1.25 -0.287888
1.26 -0.283634
1.27 -0.279664
1.28 -0.276217
1.29 -0.273489
1.3 -0.271619
1.31 -0.270699
1.32 -0.270849
1.33 -0.271909
1.34 -0.273774
1.35 -0.276288
1.36 -0.27926
1.37 -0.282465
1.38 -0.28565
1.39 -0.288531
1.4 -0.290879
1.41 -0.292483
1.42 -0.293166
1.43 -0.292793
1.44 -0.29128
1.45 -0.288465
1.46 -0.284512
1.47 -0.279523
1.48 -0.273645
1.49 -0.267071
1.5 -0.260032
1.51 -0.25279
1.52 -0.245665
1.53 -0.238947
1.54 -0.232904
1.55 -0.227778
1.56 -0.22378
1.57 -0.221074
1.58 -0.21992
1.59 -0.220245
1.6 -0.221999
1.61 -0.225091
1.62 -0.229371
1.63 -0.234629
1.64 -0.240624
1.65 -0.247028
1.66 -0.253457
1.67 -0.259563
1.68 -0.265
1.69 -0.269437
1.7 -0.272564
1.71 -0.273952
1.72 -0.27346
1.73 -0.270988
1.74 -0.266452
1.75 -0.259842
1.76 -0.251212
1.77 -0.240644
1.78 -0.228246
1.79 -0.214446
1.8 -0.199545
1.81 -0.183878
1.82 -0.167801
1.83 -0.151677
1.84 -0.135915
1.85 -0.120882
1.86 -0.106861
1.87 -0.0941051
1.88 -0.0828126
1.89 -0.0731233
1.9 -0.0651382
1.91 -0.0590092
1.92 -0.0544927
1.93 -0.0514594
1.94 -0.0497279
1.95 -0.0490737
1.96 -0.049239
1.97 -0.0499613
1.98 -0.0509012
1.99 -0.051754
2 -0.05226
2.01 -0.0521912
2.02 -0.0513613
2.03 -0.0496309
2.04 -0.0468116
2.05 -0.0430073
2.06 -0.0382801
2.07 -0.032753
2.08 -0.0266056
2.09 -0.0200683
2.1 -0.0134248
2.11 -0.00703073
2.12 -0.0012181
2.13 0.00368174
2.14 0.00734641
2.15 0.00947505
2.16 0.00980022
2.17 0.00785789
2.18 0.00368036
2.19 -0.00280754
2.2 -0.0116293
2.21 -0.0227396
2.22 -0.0360244
2.23 -0.0513837
2.24 -0.0685798
2.25 -0.0871667
2.26 -0.106799
2.27 -0.1271
2.28 -0.14768
2.29 -0.16814
2.3 -0.188005
2.31 -0.206913
2.32 -0.22455
2.33 -0.240635
2.34 -0.254942
2.35 -0.267304
2.36 -0.277546
2.37 -0.285532
2.38 -0.291476
2.39 -0.295483
2.4 -0.297711
2.41 -0.298369
2.42 -0.297702
2.43 -0.295921
2.44 -0.293421
2.45 -0.290535
2.46 -0.28756
2.47 -0.284777
2.48 -0.282441
2.49 -0.280795
2.5 -0.280099
2.51 -0.280411
2.52 -0.281805
2.53 -0.284308
2.54 -0.287899
2.55 -0.292512
2.56 -0.298099
2.57 -0.304461
2.58 -0.311387
2.59 -0.318683
2.6 -0.326148
2.61 -0.333578
2.62 -0.340769
2.63 -0.347479
2.64 -0.35358
2.65 -0.358939
2.66 -0.363458
2.67 -0.367067
2.68 -0.369733
2.69 -0.371392
2.7 -0.372096
2.71 -0.371957
2.72 -0.371061
2.73 -0.369512
2.74 -0.367425
2.75 -0.364923
2.76 -0.362108
2.77 -0.359143
2.78 -0.356131
2.79 -0.353165
2.8 -0.350316
2.81 -0.347638
2.82 -0.345175
2.83 -0.342938
2.84 -0.3409
2.85 -0.33903
2.86 -0.33728
2.87 -0.335594
2.88 -0.333907
2.89 -0.332133
2.9 -0.330204
2.91 -0.328057
2.92 -0.325636
2.93 -0.322894
2.94 -0.319796
2.95 -0.316303
2.96 -0.312393
2.97 -0.3081
2.98 -0.303436
2.99 -0.298422
3 -0.293082
3.01 -0.287441
3.02 -0.281495
3.03 -0.275277
3.04 -0.268794
3.05 -0.262032
3.06 -0.254959
3.07 -0.247527
3.08 -0.239651
3.09 -0.231203
3.1 -0.222113
3.11 -0.212259
3.12 -0.201509
3.13 -0.189724
3.14 -0.176763
3.15 -0.16237
3.16 -0.146473
3.17 -0.129011
3.18 -0.109901
3.19 -0.0890889
3.2 -0.0665536
3.21 -0.0422745
3.22 -0.016192
3.23 0.0114258
3.24 0.0404345
3.25 0.0706509
3.26 0.101856
3.27 0.133798
3.28 0.166209
3.29 0.19873
3.3 0.231023
3.31 0.262766
3.32 0.293636
3.33 0.323319
3.34 0.351501
3.35 0.377705
3.36 0.401863
3.37 0.423773
3.38 0.443274
3.39 0.460247
3.4 0.474617
3.41 0.486185
3.42 0.494993
3.43 0.501243
3.44 0.505032
3.45 0.506486
3.46 0.505758
3.47 0.503022
3.48 0.498277
3.49 0.491946
3.5 0.484231
3.51 0.475326
3.52 0.465417
3.53 0.454677
3.54 0.443236
3.55 0.431244
3.56 0.418859
3.57 0.406174
3.58 0.393266
3.59 0.380195
3.6 0.367005
3.61 0.353722
3.62 0.34038
3.63 0.326997
3.64 0.313592
3.65 0.300184
3.66 0.2868
3.67 0.273481
3.68 0.260283
3.69 0.247263
3.7 0.234497
3.71 0.222071
3.72 0.210086
3.73 0.198651
3.74 0.187959
3.75 0.178104
3.76 0.169197
3.77 0.161364
3.78 0.154727
3.79 0.149397
3.8 0.145521
3.81 0.143282
3.82 0.14262
3.83 0.143582
3.84 0.146192
3.85 0.150453
3.86 0.156347
3.87 0.163961
3.88 0.173148
3.89 0.183768
3.9 0.195723
3.91 0.2089
3.92 0.223172
3.93 0.238421
3.94 0.254555
3.95 0.271337
3.96 0.288623
3.97 0.306269
3.98 0.324136
3.99 0.342089
4 0.359985
4.01 0.377687
4.02 0.395083
4.03 0.412066
4.04 0.428534
4.05 0.444394
4.06 0.45955
4.07 0.47383
4.08 0.487233
4.09 0.499687
4.1 0.51112
4.11 0.521467
4.12 0.530663
4.13 0.538575
4.14 0.545143
4.15 0.550389
4.16 0.55427
4.17 0.556752
4.18 0.557805
4.19 0.557412
4.2 0.555397
4.21 0.551921
4.22 0.547004
4.23 0.540669
4.24 0.532949
4.25 0.523887
4.26 0.513475
4.27 0.50176
4.28 0.488894
4.29 0.474949
4.3 0.459998
4.31 0.444116
4.32 0.427373
4.33 0.409767
4.34 0.391435
4.35 0.372447
4.36 0.352853
4.37 0.332695
4.38 0.312006
4.39 0.290797
4.4 0.269069
4.41 0.246876
4.42 0.224229
4.43 0.201135
4.44 0.177604
4.45 0.15365
4.46 0.129253
4.47 0.10447
4.48 0.0793474
4.49 0.0539325
4.5 0.0282854
4.51 0.00247866
4.52 -0.0234009
4.53 -0.0492384
4.54 -0.0749156
4.55 -0.10031
4.56 -0.125291
4.57 -0.149724
4.58 -0.173474
4.59 -0.19633
4.6 -0.218182
4.61 -0.238943
4.62 -0.25851
4.63 -0.276793
4.64 -0.293724
4.65 -0.30923
4.66 -0.323162
4.67 -0.335667
4.68 -0.346772
4.69 -0.356526
4.7 -0.365
4.71 -0.372285
4.72 -0.37842
4.73 -0.383569
4.74 -0.387914
4.75 -0.391592
4.76 -0.394741
4.77 -0.397494
4.78 -0.399977
4.79 -0.402304
4.8 -0.4046
4.81 -0.406946
4.82 -0.409405
4.83 -0.41202
4.84 -0.414816
4.85 -0.417805
4.86 -0.420968
4.87 -0.424258
4.88 -0.427626
4.89 -0.431012
4.9 -0.434346
4.91 -0.437556
4.92 -0.440538
4.93 -0.443234
4.94 -0.445579
4.95 -0.447515
4.96 -0.448996
4.97 -0.449985
4.98 -0.450435
4.99 -0.450324
5 -0.449693
5.01 -0.44856
5.02 -0.44695
5.03 -0.444898
5.04 -0.442443
5.05 -0.439596
5.06 -0.436432
5.07 -0.432997
5.08 -0.429323
5.09 -0.425436
5.1 -0.421353
5.11 -0.417072
5.12 -0.412577
5.13 -0.407865
5.14 -0.402908
5.15 -0.397667
5.16 -0.392098
5.17 -0.386152
5.18 -0.379736
5.19 -0.372821
5.2 -0.365373
5.21 -0.357357
5.22 -0.348745
5.23 -0.339526
5.24 -0.329686
5.25 -0.319208
5.26 -0.308188
5.27 -0.296684
5.28 -0.284772
5.29 -0.272542
5.3 -0.260097
5.31 -0.247556
5.32 -0.235064
5.33 -0.222753
5.34 -0.210752
5.35 -0.199188
5.36 -0.188178
5.37 -0.17784
5.38 -0.168344
5.39 -0.159692
5.4 -0.151936
5.41 -0.145105
5.42 -0.139208
5.43 -0.134235
5.44 -0.130205
5.45 -0.127043
5.46 -0.124629
5.47 -0.122876
5.48 -0.121686
5.49 -0.120954
5.5 -0.120571
5.51 -0.120446
5.52 -0.120436
5.53 -0.120449
5.54 -0.120398
5.55 -0.120213
5.56 -0.119837
5.57 -0.119212
5.58 -0.118308
5.59 -0.117131
5.6 -0.115687
5.61 -0.113991
5.62 -0.11207
5.63 -0.109956
5.64 -0.107671
5.65 -0.105269
5.66 -0.102786
5.67 -0.100246
5.68 -0.0976685
5.69 -0.0950603
5.7 -0.0924145
5.71 -0.0897083
5.72 -0.0869106
5.73 -0.0839761
5.74 -0.0808484
5.75 -0.0774624
5.76 -0.0737466
5.77 -0.0695792
5.78 -0.0649081
5.79 -0.0596708
5.8 -0.0538038
5.81 -0.0472544
5.82 -0.0399833
5.83 -0.0319425
5.84 -0.0230905
5.85 -0.01351
5.86 -0.00324076
5.87 0.00765745
5.88 0.0191062
5.89 0.0310101
5.9 0.0432779
5.91 0.0557521
5.92 0.068291
5.93 0.0807602
5.94 0.0930262
5.95 0.104961
5.96 0.116432
5.97 0.12728
5.98 0.137464
5.99 0.146919
6 0.155598
6.01 0.163479
6.02 0.170561
6.03 0.17681
6.04 0.182303
6.05 0.187137
6.06 0.191392
6.07 0.19516
6.08 0.198538
6.09 0.201626
6.1 0.204518
6.11 0.207337
6.12 0.210164
6.13 0.213067
6.14 0.216099
6.15 0.21929
6.16 0.222663
6.17 0.2262
6.18 0.229852
6.19 0.23356
6.2 0.237246
6.21 0.240817
6.22 0.244163
6.23 0.247115
6.24 0.249576
6.25 0.251425
6.26 0.252541
6.27 0.252814
6.28 0.252146
6.29 0.250396
6.3 0.247481
6.31 0.24343
6.32 0.238228
6.33 0.231884
6.34 0.224429
6.35 0.215916
6.36 0.206324
6.37 0.19585
6.38 0.184614
6.39 0.172736
6.4 0.160342
6.41 0.147562
6.42 0.13452
6.43 0.121349
6.44 0.108182
6.45 0.0951173
6.46 0.0822419
6.47 0.0696252
6.48 0.0573196
6.49 0.0453939
6.5 0.033839
6.51 0.0226425
6.52 0.0117853
6.53 0.00123569
6.54 -0.00904849
6.55 -0.0191119
6.56 -0.0290071
6.57 -0.038807
6.58 -0.0485642
6.59 -0.058326
6.6 -0.0681318
6.61 -0.0780115
6.62 -0.087991
6.63 -0.0980697
6.64 -0.108232
6.65 -0.118454
6.66 -0.128696
6.67 -0.13891
6.68 -0.149031
6.69 -0.158969
6.7 -0.168656
6.71 -0.178013
6.72 -0.186956
6.73 -0.195407
6.74 -0.203285
6.75 -0.210468
6.76 -0.216897
6.77 -0.222547
6.78 -0.227371
6.79 -0.23133
6.8 -0.234396
6.81 -0.236544
6.82 -0.237669
6.83 -0.23787
6.84 -0.237152
6.85 -0.235524
6.86 -0.232997
6.87 -0.229587
6.88 -0.225254
6.89 -0.220016
6.9 -0.213932
6.91 -0.207008
6.92 -0.199247
6.93 -0.190646
6.94 -0.181201
6.95 -0.170806
6.96 -0.159543
6.97 -0.147403
6.98 -0.134376
6.99 -0.120452
7 -0.105626
7.01 -0.0898532
7.02 -0.073127
7.03 -0.0555245
7.04 -0.0370721
7.05 -0.0178062
7.06 0.00222575
7.07 0.0229656
7.08 0.0444018
7.09 0.0663875
7.1 0.0888227
7.11 0.111608
7.12 0.134638
7.13 0.157802
7.14 0.180982
7.15 0.204043
7.16 0.226872
7.17 0.24936
7.18 0.2714
7.19 0.292894
7.2 0.31375
7.21 0.333814
7.22 0.353053
7.23 0.371425
7.24 0.388879
7.25 0.405373
7.26 0.420874
7.27 0.435328
7.28 0.448649
7.29 0.460918
7.3 0.472123
7.31 0.482257
7.32 0.491314
7.33 0.499284
7.34 0.506066
7.35 0.511694
7.36 0.516188
7.37 0.519524
7.38 0.521674
7.39 0.522604
7.4 0.522255
7.41 0.520476
7.42 0.517349
7.43 0.512833
7.44 0.506887
7.45 0.499474
7.46 0.490562
7.47 0.480018
7.48 0.467861
7.49 0.45416
7.5 0.438928
7.51 0.422188
7.52 0.403983
7.53 0.384361
7.54 0.363267
7.55 0.340949
7.56 0.317521
7.57 0.293108
7.58 0.267854
7.59 0.241913
7.6 0.215431
7.61 0.188614
7.62 0.161675
7.63 0.134803
7.64 0.108187
7.65 0.0820147
7.66 0.0564705
7.67 0.0318393
7.68 0.00821618
7.69 -0.0142529
7.7 -0.0354328
7.71 -0.055206
7.72 -0.0734738
7.73 -0.0900795
7.74 -0.104926
7.75 -0.118096
7.76 -0.129584
7.77 -0.139404
7.78 -0.147594
7.79 -0.154212
7.8 -0.15919
7.81 -0.162761
7.82 -0.165059
7.83 -0.166203
7.84 -0.166323
7.85 -0.165553
7.86 -0.164007
7.87 -0.161813
7.88 -0.15916
7.89 -0.156171
7.9 -0.152959
7.91 -0.149628
7.92 -0.146263
7.93 -0.142947
7.94 -0.139738
7.95 -0.136668
7.96 -0.133754
7.97 -0.130999
7.98 -0.128388
7.99 -0.125895
8 -0.123478
8.01 -0.121076
8.02 -0.11863
8.03 -0.116079
8.04 -0.11336
8.05 -0.110413
8.06 -0.107156
8.07 -0.10355
8.08 -0.099572
8.09 -0.0952
8.1 -0.0904278
8.11 -0.0852637
8.12 -0.0797273
8.13 -0.0738367
8.14 -0.067688
8.15 -0.0613536
8.16 -0.0549172
8.17 -0.0484719
8.18 -0.0421169
8.19 -0.0359753
8.2 -0.0301611
8.21 -0.0247622
8.22 -0.019869
8.23 -0.0155613
8.24 -0.0119056
8.25 -0.00895448
8.26 -0.00682278
8.27 -0.00543662
8.28 -0.00478243
8.29 -0.0048261
8.3 -0.00551365
8.31 -0.00677255
8.32 -0.0085347
8.33 -0.0106806
8.34 -0.0130654
8.35 -0.015566
8.36 -0.0180571
8.37 -0.0204144
8.38 -0.0225194
8.39 -0.0242125
8.4 -0.0254274
8.41 -0.026092
8.42 -0.026151
8.43 -0.0255707
8.44 -0.0243403
8.45 -0.0224456
8.46 -0.0199157
8.47 -0.0168607
8.48 -0.0133653
8.49 -0.00953186
8.5 -0.00547692
8.51 -0.00132801
8.52 0.00276279
8.53 0.00664648
8.54 0.01019
8.55 0.0132664
8.56 0.0157595
8.57 0.0175679
8.58 0.0185788
8.59 0.018682
8.6 0.0179067
8.61 0.0162402
8.62 0.013693
8.63 0.0102978
8.64 0.00610861
8.65 0.00114326
8.66 -0.00445444
8.67 -0.0105584
8.68 -0.0170557
8.69 -0.0238289
8.7 -0.0307603
8.71 -0.0377339
8.72 -0.0446256
8.73 -0.0513401
8.74 -0.0577989
8.75 -0.0639395
8.76 -0.0697178
8.77 -0.0751082
8.78 -0.0800748
8.79 -0.0846481
8.8 -0.0888776
8.81 -0.0928114
8.82 -0.0965096
8.83 -0.100042
8.84 -0.103483
8.85 -0.10692
8.86 -0.110437
8.87 -0.114106
8.88 -0.11799
8.89 -0.122141
8.9 -0.1266
8.91 -0.131414
8.92 -0.136588
8.93 -0.142093
8.94 -0.147905
8.95 -0.153982
8.96 -0.160271
8.97 -0.166707
8.98 -0.173218
8.99 -0.179709
9 -0.186096
9.01 -0.192302
9.02 -0.198247
9.03 -0.203864
9.04 -0.209067
9.05 -0.213797
9.06 -0.218046
9.07 -0.221794
9.08 -0.225036
9.09 -0.227781
9.1 -0.23005
9.11 -0.231835
9.12 -0.233226
9.13 -0.234283
9.14 -0.235061
9.15 -0.235623
9.16 -0.236026
9.17 -0.236325
9.18 -0.236577
9.19 -0.236828
9.2 -0.237111
9.21 -0.237445
9.22 -0.237841
9.23 -0.238295
9.24 -0.238796
9.25 -0.239311
9.26 -0.239805
9.27 -0.240234
9.28 -0.240551
9.29 -0.240706
9.3 -0.240642
9.31 -0.240289
9.32 -0.239626
9.33 -0.238618
9.34 -0.23724
9.35 -0.235475
9.36 -0.23332
9.37 -0.230751
9.38 -0.22781
9.39 -0.22454
9.4 -0.220983
9.41 -0.217184
9.42 -0.213197
9.43 -0.209075
9.44 -0.204876
9.45 -0.200664
9.46 -0.196485
9.47 -0.192378
9.48 -0.188373
9.49 -0.184485
9.5 -0.180729
9.51 -0.177086
9.52 -0.173524
9.53 -0.17
9.54 -0.166461
9.55 -0.162841
9.56 -0.159062
9.57 -0.155007
9.58 -0.150608
9.59 -0.145777
9.6 -0.140427
9.61 -0.134477
9.62 -0.127853
9.63 -0.120444
9.64 -0.112199
9.65 -0.103127
9.66 -0.0932127
9.67 -0.0824567
9.68 -0.0708763
9.69 -0.0585051
9.7 -0.0453133
9.71 -0.0314563
9.72 -0.0170119
9.73 -0.00206585
9.74 0.0132904
9.75 0.0289619
9.76 0.0448592
9.77 0.0608773
9.78 0.0769157
9.79 0.0928949
9.8 0.108745
9.81 0.124405
9.82 0.139828
9.83 0.154945
9.84 0.169757
9.85 0.184256
9.86 0.19844
9.87 0.212315
9.88 0.225894
9.89 0.239183
9.9 0.252191
9.91 0.264956
9.92 0.277492
9.93 0.289805
9.94 0.301896
9.95 0.313756
9.96 0.325342
9.97 0.336639
9.98 0.347612
9.99 0.358212
10 0.368382
10.01 0.378059
10.02 0.387157
10.03 0.395559
10.04 0.403247
10.05 0.410156
10.06 0.416225
10.07 0.421405
10.08 0.425655
10.09 0.428869
10.1 0.431081
10.11 0.432332
10.12 0.432645
10.13 0.432061
10.14 0.430634
10.15 0.428424
10.16 0.42547
10.17 0.421943
10.18 0.41795
10.19 0.4136
10.2 0.409006
10.21 0.40428
10.22 0.399536
10.23 0.39489
10.24 0.390431
10.25 0.386239
10.26 0.382375
10.27 0.37889
10.28 0.375817
10.29 0.373217
10.3 0.371038
10.31 0.369257
10.32 0.367839
10.33 0.366733
10.34 0.365879
10.35 0.365212
10.36 0.364641
10.37 0.364074
10.38 0.363425
10.39 0.362611
10.4 0.361551
10.41 0.360168
10.42 0.358343
10.43 0.35605
10.44 0.353241
10.45 0.349875
10.46 0.345919
10.47 0.341351
10.48 0.336126
10.49 0.330226
10.5 0.323697
10.51 0.316548
10.52 0.308792
10.53 0.300444
10.54 0.291523
10.55 0.281994
10.56 0.271926
10.57 0.261344
10.58 0.250266
10.59 0.238705
10.6 0.226675
10.61 0.21417
10.62 0.201185
10.63 0.187765
10.64 0.173921
10.65 0.159664
10.66 0.145009
10.67 0.129973
10.68 0.114547
10.69 0.0987834
10.7 0.0827227
10.71 0.0664018
10.72 0.0498629
10.73 0.0331528
10.74 0.0163211
10.75 -0.000573706
10.76 -0.0174633
10.77 -0.034288
10.78 -0.0509885
10.79 -0.0675065
10.8 -0.0837867
10.81 -0.0997508
10.82 -0.11536
10.83 -0.130589
10.84 -0.145409
10.85 -0.159797
10.86 -0.173743
10.87 -0.187238
10.88 -0.200251
10.89 -0.212846
10.9 -0.225048
10.91 -0.236888
10.92 -0.248403
10.93 -0.259634
10.94 -0.270609
10.95 -0.281384
10.96 -0.29201
10.97 -0.302526
10.98 -0.312965
10.99 -0.323351
11 -0.333705
11.01 -0.344032
11.02 -0.354333
11.03 -0.364597
11.04 -0.374799
11.05 -0.384909
11.06 -0.394883
11.07 -0.404658
11.08 -0.414166
11.09 -0.423355
11.1 -0.432155
11.11 -0.440495
11.12 -0.448305
11.13 -0.455514
11.14 -0.461974
11.15 -0.467685
11.16 -0.472596
11.17 -0.476659
11.18 -0.479834
11.19 -0.48209
11.2 -0.483361
11.21 -0.483612
11.22 -0.482911
11.23 -0.481266
11.24 -0.478697
11.25 -0.475229
11.26 -0.470896
11.27 -0.465658
11.28 -0.459633
11.29 -0.452881
11.3 -0.445453
11.31 -0.437397
11.32 -0.428762
11.33 -0.419578
11.34 -0.409871
11.35 -0.399725
11.36 -0.389173
11.37 -0.378247
11.38 -0.366972
11.39 -0.355369
11.4 -0.343426
11.41 -0.331176
11.42 -0.318633
11.43 -0.305802
11.44 -0.292684
11.45 -0.279279
11.46 -0.265582
11.47 -0.251571
11.48 -0.237277
11.49 -0.222705
11.5 -0.207863
11.51 -0.192763
11.52 -0.177423
11.53 -0.16185
11.54 -0.146086
11.55 -0.130174
11.56 -0.114156
11.57 -0.0980767
11.58 -0.0819889
11.59 -0.06595
11.6 -0.0500375
11.61 -0.0343093
11.62 -0.0188309
11.63 -0.00366868
11.64 0.0111112
11.65 0.0254443
11.66 0.0392312
11.67 0.0524139
11.68 0.0649678
11.69 0.076848
11.7 0.0880171
11.71 0.098446
11.72 0.108112
11.73 0.116918
11.74 0.124951
11.75 0.132222
11.76 0.138752
11.77 0.144567
11.78 0.149704
11.79 0.154176
11.8 0.158035
11.81 0.161377
11.82 0.164259
11.83 0.166741
11.84 0.168882
11.85 0.17074
11.86 0.172349
11.87 0.173785
11.88 0.17509
11.89 0.176296
11.9 0.177426
11.91 0.178495
11.92 0.1795
11.93 0.18043
11.94 0.181267
11.95 0.181979
11.96 0.182525
11.97 0.182853
11.98 0.182907
11.99 0.182582
12 0.181829
12.01 0.180582
12.02 0.17877
12.03 0.176323
12.04 0.173173
12.05 0.169232
12.06 0.164395
12.07 0.158684
12.08 0.152065
12.09 0.144512
12.1 0.136013
12.11 0.126568
12.12 0.116109
12.13 0.104715
12.14 0.0924534
12.15 0.0793707
12.16 0.0655243
12.17 0.05098
12.18 0.0357986
12.19 0.0200297
