# xPDFsuite Configuration #
[PDF]
wavelength = 0.1
dataformat = QA
inputfile = BiMsol6_insitu_700 C-00301.xy
backgroundfile = Quartz2mm-dist500-00000.xy
mode = xray
bgscale = 0.0042
composition = Bi2Fe4O9
outputtype = gr
qmaxinst = 24.998449118
qmin = 0.1
qmax = 21.4986662415
rmax = 80.0
rmin = 0.0
rstep = 0.01
rpoly = 0.9

[Misc]
inputdir = C:/Data/Seafile/CPH/Beamtime/Desy Oct 20/In situ data/Processed/BiMsol6/PDF
savedir = C:/Data/Seafile/CPH/Beamtime/Desy Oct 20/In situ data/PDF/BiMsol6
backgroundfilefull = C:/Data/Seafile/CPH/Beamtime/Desy Oct 20/In situ data/Processed/Standard_Empty_Cap/Quartz2mm-dist500-00000.xy

#### start data
#S 1
#L r($\AA$)  G($\AA^{-2}$)
0 0
0.01 0.00652298
0.02 0.0126794
0.03 0.0181556
0.04 0.0226699
0.05 0.0259858
0.06 0.0279229
0.07 0.0282835
0.08 0.0270097
0.09 0.0242457
0.1 0.0201101
0.11 0.0147874
0.12 0.00851939
0.13 0.00159524
0.14 -0.00566074
0.15 -0.0128383
0.16 -0.0195913
0.17 -0.0255952
0.18 -0.0305582
0.19 -0.0342366
0.2 -0.0363795
0.21 -0.0368148
0.22 -0.0356397
0.23 -0.0329196
0.24 -0.0287988
0.25 -0.0234963
0.26 -0.017297
0.27 -0.0105247
0.28 -0.00364872
0.29 0.00291312
0.3 0.0087549
0.31 0.0134902
0.32 0.0167712
0.33 0.0182451
0.34 0.0175664
0.35 0.0147842
0.36 0.00989264
0.37 0.002991
0.38 -0.00571459
0.39 -0.015914
0.4 -0.0272488
0.41 -0.0390954
0.42 -0.0508414
0.43 -0.0618639
0.44 -0.0715173
0.45 -0.0791579
0.46 -0.0841044
0.47 -0.0854796
0.48 -0.0830866
0.49 -0.076566
0.5 -0.065681
0.51 -0.0503322
0.52 -0.0305675
0.53 -0.00630871
0.54 0.021895
0.55 0.0533163
0.56 0.0872803
0.57 0.122996
0.58 0.159579
0.59 0.196063
0.6 0.23122
0.61 0.264077
0.62 0.293659
0.63 0.31905
0.64 0.339427
0.65 0.354081
0.66 0.362031
0.67 0.362873
0.68 0.356776
0.69 0.343741
0.7 0.323956
0.71 0.297788
0.72 0.265776
0.73 0.228119
0.74 0.186325
0.75 0.141368
0.76 0.0942825
0.77 0.0461442
0.78 -0.00196379
0.79 -0.0488725
0.8 -0.0934042
0.81 -0.134751
0.82 -0.172139
0.83 -0.204931
0.84 -0.232645
0.85 -0.25496
0.86 -0.271158
0.87 -0.28179
0.88 -0.287159
0.89 -0.287639
0.9 -0.283734
0.91 -0.276055
0.92 -0.265213
0.93 -0.251988
0.94 -0.2374
0.95 -0.222236
0.96 -0.207249
0.97 -0.19314
0.98 -0.180531
0.99 -0.170175
1 -0.162382
1.01 -0.157364
1.02 -0.155261
1.03 -0.156092
1.04 -0.159756
1.05 -0.16611
1.06 -0.174942
1.07 -0.185624
1.08 -0.197707
1.09 -0.210707
1.1 -0.22413
1.11 -0.237491
1.12 -0.250256
1.13 -0.261996
1.14 -0.272399
1.15 -0.281212
1.16 -0.28826
1.17 -0.293458
1.18 -0.296774
1.19 -0.298163
1.2 -0.297984
1.21 -0.296472
1.22 -0.293912
1.23 -0.290616
1.24 -0.286919
1.25 -0.283169
1.26 -0.279725
1.27 -0.276864
1.28 -0.274813
1.29 -0.273743
1.3 -0.273761
1.31 -0.274912
1.32 -0.27727
1.33 -0.280592
1.34 -0.284703
1.35 -0.28938
1.36 -0.294355
1.37 -0.299339
1.38 -0.30399
1.39 -0.307964
1.4 -0.311004
1.41 -0.312868
1.42 -0.313363
1.43 -0.312352
1.44 -0.309763
1.45 -0.305426
1.46 -0.299601
1.47 -0.292455
1.48 -0.284211
1.49 -0.275149
1.5 -0.265592
1.51 -0.25591
1.52 -0.24654
1.53 -0.237861
1.54 -0.230231
1.55 -0.223974
1.56 -0.219365
1.57 -0.216622
1.58 -0.216101
1.59 -0.217693
1.6 -0.221328
1.61 -0.226883
1.62 -0.234158
1.63 -0.242876
1.64 -0.252718
1.65 -0.263256
1.66 -0.27396
1.67 -0.284365
1.68 -0.294
1.69 -0.302412
1.7 -0.309177
1.71 -0.313707
1.72 -0.315788
1.73 -0.315257
1.74 -0.311978
1.75 -0.305907
1.76 -0.297092
1.77 -0.285611
1.78 -0.271576
1.79 -0.255546
1.8 -0.237911
1.81 -0.219113
1.82 -0.199626
1.83 -0.179947
1.84 -0.160633
1.85 -0.142213
1.86 -0.125105
1.87 -0.109693
1.88 -0.0962937
1.89 -0.0851491
1.9 -0.0764546
1.91 -0.0704978
1.92 -0.0669881
1.93 -0.0658
1.94 -0.0667301
1.95 -0.069506
1.96 -0.0737979
1.97 -0.0792811
1.98 -0.0854715
1.99 -0.0919012
2 -0.098165
2.01 -0.103883
2.02 -0.108713
2.03 -0.112362
2.04 -0.114432
2.05 -0.114932
2.06 -0.113806
2.07 -0.111082
2.08 -0.106863
2.09 -0.101327
2.1 -0.0946773
2.11 -0.0872662
2.12 -0.0795126
2.13 -0.0717997
2.14 -0.0645228
2.15 -0.0580744
2.16 -0.0528287
2.17 -0.0493298
2.18 -0.0477355
2.19 -0.0482559
2.2 -0.0510454
2.21 -0.0561849
2.22 -0.0636786
2.23 -0.0735508
2.24 -0.0856783
2.25 -0.0996659
2.26 -0.115222
2.27 -0.132007
2.28 -0.149647
2.29 -0.167742
2.3 -0.185852
2.31 -0.203529
2.32 -0.220397
2.33 -0.236117
2.34 -0.250393
2.35 -0.262986
2.36 -0.273648
2.37 -0.282164
2.38 -0.288666
2.39 -0.293195
2.4 -0.295856
2.41 -0.29681
2.42 -0.296272
2.43 -0.294413
2.44 -0.291628
2.45 -0.28826
2.46 -0.284622
2.47 -0.281017
2.48 -0.277734
2.49 -0.275051
2.5 -0.273274
2.51 -0.272513
2.52 -0.272888
2.53 -0.274467
2.54 -0.277271
2.55 -0.281266
2.56 -0.28645
2.57 -0.292642
2.58 -0.299633
2.59 -0.307234
2.6 -0.31524
2.61 -0.323436
2.62 -0.331604
2.63 -0.339492
2.64 -0.34692
2.65 -0.353723
2.66 -0.359768
2.67 -0.364947
2.68 -0.369188
2.69 -0.372387
2.7 -0.374552
2.71 -0.375763
2.72 -0.376071
2.73 -0.375547
2.74 -0.374274
2.75 -0.372344
2.76 -0.369794
2.77 -0.366783
2.78 -0.363386
2.79 -0.359659
2.8 -0.355641
2.81 -0.351348
2.82 -0.346758
2.83 -0.341829
2.84 -0.336525
2.85 -0.330771
2.86 -0.324479
2.87 -0.317552
2.88 -0.309889
2.89 -0.30129
2.9 -0.291737
2.91 -0.281162
2.92 -0.269508
2.93 -0.256743
2.94 -0.24286
2.95 -0.227836
2.96 -0.211702
2.97 -0.194629
2.98 -0.176734
2.99 -0.158158
3 -0.139064
3.01 -0.119629
3.02 -0.100047
3.03 -0.0805426
3.04 -0.0613061
3.05 -0.0425152
3.06 -0.0243309
3.07 -0.00689236
3.08 0.00965705
3.09 0.0251775
3.1 0.0397027
3.11 0.0532255
3.12 0.0657727
3.13 0.0774027
3.14 0.0882036
3.15 0.0982398
3.16 0.107703
3.17 0.11677
3.18 0.125598
3.19 0.134351
3.2 0.143184
3.21 0.15225
3.22 0.161717
3.23 0.171662
3.24 0.182159
3.25 0.193251
3.26 0.204953
3.27 0.217249
3.28 0.230128
3.29 0.243483
3.3 0.257188
3.31 0.271116
3.32 0.285131
3.33 0.299084
3.34 0.312819
3.35 0.326134
3.36 0.338917
3.37 0.351043
3.38 0.362404
3.39 0.372918
3.4 0.382522
3.41 0.391124
3.42 0.398727
3.43 0.405408
3.44 0.411218
3.45 0.416229
3.46 0.42053
3.47 0.424225
3.48 0.427384
3.49 0.430195
3.5 0.432776
3.51 0.435238
3.52 0.437684
3.53 0.440201
3.54 0.442871
3.55 0.445751
3.56 0.448856
3.57 0.452188
3.58 0.455728
3.59 0.459438
3.6 0.463259
3.61 0.467115
3.62 0.470907
3.63 0.474539
3.64 0.477912
3.65 0.48093
3.66 0.483496
3.67 0.4855
3.68 0.486836
3.69 0.487486
3.7 0.487408
3.71 0.486575
3.72 0.48498
3.73 0.48263
3.74 0.479484
3.75 0.475637
3.76 0.47116
3.77 0.466114
3.78 0.460566
3.79 0.454587
3.8 0.448238
3.81 0.441576
3.82 0.434691
3.83 0.427633
3.84 0.420439
3.85 0.413139
3.86 0.405745
3.87 0.398254
3.88 0.390654
3.89 0.382926
3.9 0.375035
3.91 0.366942
3.92 0.358601
3.93 0.349956
3.94 0.340926
3.95 0.331495
3.96 0.321623
3.97 0.311277
3.98 0.300433
3.99 0.289076
4 0.277167
4.01 0.26473
4.02 0.251812
4.03 0.238446
4.04 0.224673
4.05 0.210546
4.06 0.196121
4.07 0.181443
4.08 0.166612
4.09 0.151693
4.1 0.136752
4.11 0.121854
4.12 0.107056
4.13 0.0924246
4.14 0.0780133
4.15 0.0638515
4.16 0.0499711
4.17 0.0363977
4.18 0.0231502
4.19 0.0102425
4.2 -0.00227593
4.21 -0.0144375
4.22 -0.0262405
4.23 -0.0376827
4.24 -0.048762
4.25 -0.0594751
4.26 -0.0697985
4.27 -0.0797169
4.28 -0.0892456
4.29 -0.0983726
4.3 -0.107084
4.31 -0.115365
4.32 -0.123199
4.33 -0.130525
4.34 -0.137367
4.35 -0.143722
4.36 -0.149587
4.37 -0.154959
4.38 -0.159846
4.39 -0.164241
4.4 -0.168149
4.41 -0.171634
4.42 -0.174732
4.43 -0.177482
4.44 -0.179931
4.45 -0.182127
4.46 -0.184109
4.47 -0.185951
4.48 -0.187709
4.49 -0.189434
4.5 -0.191169
4.51 -0.192956
4.52 -0.194829
4.53 -0.196821
4.54 -0.198937
4.55 -0.20118
4.56 -0.203542
4.57 -0.206008
4.58 -0.208553
4.59 -0.211145
4.6 -0.213737
4.61 -0.216283
4.62 -0.218735
4.63 -0.221046
4.64 -0.223169
4.65 -0.225055
4.66 -0.226638
4.67 -0.227912
4.68 -0.228853
4.69 -0.22945
4.7 -0.229696
4.71 -0.229599
4.72 -0.229153
4.73 -0.228396
4.74 -0.22738
4.75 -0.226148
4.76 -0.22475
4.77 -0.22324
4.78 -0.221676
4.79 -0.220123
4.8 -0.218644
4.81 -0.217293
4.82 -0.216121
4.83 -0.215174
4.84 -0.214491
4.85 -0.214122
4.86 -0.214095
4.87 -0.214407
4.88 -0.215063
4.89 -0.216062
4.9 -0.217396
4.91 -0.21905
4.92 -0.221033
4.93 -0.223287
4.94 -0.225779
4.95 -0.228476
4.96 -0.231346
4.97 -0.234351
4.98 -0.237459
4.99 -0.24063
5 -0.243823
5.01 -0.247003
5.02 -0.250135
5.03 -0.253185
5.04 -0.25612
5.05 -0.258889
5.06 -0.261467
5.07 -0.263821
5.08 -0.265918
5.09 -0.267721
5.1 -0.269196
5.11 -0.270291
5.12 -0.270947
5.13 -0.271158
5.14 -0.270889
5.15 -0.27011
5.16 -0.268789
5.17 -0.266901
5.18 -0.26437
5.19 -0.261216
5.2 -0.257446
5.21 -0.253059
5.22 -0.24806
5.23 -0.242461
5.24 -0.236267
5.25 -0.229472
5.26 -0.222162
5.27 -0.214374
5.28 -0.20615
5.29 -0.197535
5.3 -0.188572
5.31 -0.179287
5.32 -0.169738
5.33 -0.159975
5.34 -0.15003
5.35 -0.139931
5.36 -0.129697
5.37 -0.119342
5.38 -0.108862
5.39 -0.0982675
5.4 -0.0875521
5.41 -0.0767051
5.42 -0.0657136
5.43 -0.0545634
5.44 -0.0432302
5.45 -0.031707
5.46 -0.0200013
5.47 -0.00812015
5.48 0.00391913
5.49 0.0160873
5.5 0.0283422
5.51 0.0406228
5.52 0.0528458
5.53 0.0649236
5.54 0.0767556
5.55 0.0882306
5.56 0.0992285
5.57 0.109583
5.58 0.119139
5.59 0.127809
5.6 0.135471
5.61 0.142012
5.62 0.147333
5.63 0.15135
5.64 0.153849
5.65 0.154924
5.66 0.15458
5.67 0.152833
5.68 0.14973
5.69 0.14534
5.7 0.139713
5.71 0.132961
5.72 0.125313
5.73 0.116932
5.74 0.107992
5.75 0.0986732
5.76 0.0891595
5.77 0.0796469
5.78 0.0703268
5.79 0.0613548
5.8 0.0528686
5.81 0.0449841
5.82 0.0377925
5.83 0.0313847
5.84 0.0258382
5.85 0.021089
5.86 0.0171101
5.87 0.0138495
5.88 0.0112327
5.89 0.00916647
5.9 0.00757094
5.91 0.00628859
5.92 0.00518396
5.93 0.00413716
5.94 0.00303578
5.95 0.0017797
5.96 0.000278848
5.97 -0.00155665
5.98 -0.00373477
5.99 -0.00626135
6 -0.0091151
6.01 -0.0122479
6.02 -0.0155858
6.03 -0.0190305
6.04 -0.0224412
6.05 -0.0256763
6.06 -0.0285876
6.07 -0.0310221
6.08 -0.0328272
6.09 -0.0338467
6.1 -0.0338449
6.11 -0.0327954
6.12 -0.0306096
6.13 -0.0272257
6.14 -0.0226118
6.15 -0.0167677
6.16 -0.00965365
6.17 -0.0013625
6.18 0.00793782
6.19 0.0181148
6.2 0.0290115
6.21 0.040451
6.22 0.0522415
6.23 0.0641754
6.24 0.0760122
6.25 0.0875519
6.26 0.0986055
6.27 0.109
6.28 0.118582
6.29 0.12717
6.3 0.134643
6.31 0.141006
6.32 0.146234
6.33 0.150335
6.34 0.15335
6.35 0.155349
6.36 0.156346
6.37 0.156567
6.38 0.156166
6.39 0.155302
6.4 0.154137
6.41 0.152838
6.42 0.151575
6.43 0.150527
6.44 0.149823
6.45 0.149578
6.46 0.149885
6.47 0.150811
6.48 0.152398
6.49 0.154724
6.5 0.157722
6.51 0.161335
6.52 0.165499
6.53 0.170129
6.54 0.175129
6.55 0.180394
6.56 0.185799
6.57 0.191207
6.58 0.196504
6.59 0.201584
6.6 0.206352
6.61 0.210728
6.62 0.214607
6.63 0.217964
6.64 0.220796
6.65 0.223102
6.66 0.224901
6.67 0.226231
6.68 0.227135
6.69 0.227659
6.7 0.227919
6.71 0.227995
6.72 0.227968
6.73 0.227916
6.74 0.227912
6.75 0.228032
6.76 0.228328
6.77 0.228827
6.78 0.229544
6.79 0.230479
6.8 0.231612
6.81 0.232905
6.82 0.234309
6.83 0.235733
6.84 0.237096
6.85 0.238302
6.86 0.239254
6.87 0.239848
6.88 0.239948
6.89 0.239444
6.9 0.238272
6.91 0.236354
6.92 0.233622
6.93 0.230024
6.94 0.225524
6.95 0.219995
6.96 0.213542
6.97 0.206186
6.98 0.197961
6.99 0.188916
7 0.179112
7.01 0.168592
7.02 0.157438
7.03 0.145783
7.04 0.133717
7.05 0.121328
7.06 0.108704
7.07 0.0959272
7.08 0.0830741
7.09 0.0702256
7.1 0.0574398
7.11 0.0447642
7.12 0.0322366
7.13 0.0198853
7.14 0.00773757
7.15 -0.00418691
7.16 -0.015901
7.17 -0.027407
7.18 -0.0387109
7.19 -0.0498201
7.2 -0.0607427
7.21 -0.0714688
7.22 -0.0820141
7.23 -0.0923816
7.24 -0.102565
7.25 -0.112551
7.26 -0.122322
7.27 -0.131847
7.28 -0.141074
7.29 -0.14999
7.3 -0.158553
7.31 -0.166723
7.32 -0.174454
7.33 -0.181704
7.34 -0.188385
7.35 -0.194478
7.36 -0.199969
7.37 -0.204832
7.38 -0.209047
7.39 -0.212605
7.4 -0.215493
7.41 -0.217668
7.42 -0.219214
7.43 -0.220163
7.44 -0.220552
7.45 -0.220428
7.46 -0.219844
7.47 -0.218836
7.48 -0.217485
7.49 -0.215878
7.5 -0.214081
7.51 -0.21216
7.52 -0.21018
7.53 -0.2082
7.54 -0.206286
7.55 -0.20448
7.56 -0.202821
7.57 -0.201335
7.58 -0.20004
7.59 -0.198944
7.6 -0.198055
7.61 -0.19736
7.62 -0.196823
7.63 -0.196412
7.64 -0.196089
7.65 -0.19581
7.66 -0.195526
7.67 -0.195173
7.68 -0.194699
7.69 -0.194052
7.7 -0.193183
7.71 -0.192045
7.72 -0.1906
7.73 -0.188796
7.74 -0.186599
7.75 -0.184018
7.76 -0.181051
7.77 -0.177704
7.78 -0.173995
7.79 -0.169949
7.8 -0.16558
7.81 -0.160963
7.82 -0.156159
7.83 -0.15123
7.84 -0.14624
7.85 -0.141259
7.86 -0.136362
7.87 -0.131634
7.88 -0.127133
7.89 -0.122918
7.9 -0.119045
7.91 -0.115557
7.92 -0.112492
7.93 -0.109914
7.94 -0.107812
7.95 -0.10617
7.96 -0.104976
7.97 -0.104206
7.98 -0.103824
7.99 -0.103795
8 -0.104076
8.01 -0.104576
8.02 -0.10523
8.03 -0.105972
8.04 -0.106734
8.05 -0.107452
8.06 -0.108055
8.07 -0.108488
8.08 -0.108713
8.09 -0.108699
8.1 -0.108428
8.11 -0.10789
8.12 -0.10709
8.13 -0.106027
8.14 -0.104762
8.15 -0.103341
8.16 -0.101816
8.17 -0.100251
8.18 -0.0987109
8.19 -0.0972777
8.2 -0.0960291
8.21 -0.0950258
8.22 -0.0943276
8.23 -0.0939851
8.24 -0.0940381
8.25 -0.0945145
8.26 -0.0954726
8.27 -0.0968543
8.28 -0.0986324
8.29 -0.100763
8.3 -0.103183
8.31 -0.105818
8.32 -0.108575
8.33 -0.111335
8.34 -0.113974
8.35 -0.116373
8.36 -0.118407
8.37 -0.119955
8.38 -0.120897
8.39 -0.121034
8.4 -0.120332
8.41 -0.118716
8.42 -0.116122
8.43 -0.112504
8.44 -0.107839
8.45 -0.102077
8.46 -0.095214
8.47 -0.087371
8.48 -0.0786118
8.49 -0.0690178
8.5 -0.0586855
8.51 -0.0477232
8.52 -0.0362101
8.53 -0.0243241
8.54 -0.0121987
8.55 4.45728e-05
8.56 0.0122903
8.57 0.0244325
8.58 0.0363675
8.59 0.0479933
8.6 0.0592691
8.61 0.0701535
8.62 0.0806231
8.63 0.090672
8.64 0.100311
8.65 0.109535
8.66 0.118413
8.67 0.127006
8.68 0.135374
8.69 0.143576
8.7 0.151676
8.71 0.159732
8.72 0.167802
8.73 0.175931
8.74 0.184146
8.75 0.192462
8.76 0.200876
8.77 0.209372
8.78 0.217914
8.79 0.226441
8.8 0.234882
8.81 0.243156
8.82 0.251171
8.83 0.258827
8.84 0.266013
8.85 0.272556
8.86 0.278404
8.87 0.28346
8.88 0.287634
8.89 0.29085
8.9 0.293044
8.91 0.294097
8.92 0.29399
8.93 0.292772
8.94 0.290452
8.95 0.287057
8.96 0.282632
8.97 0.277234
8.98 0.270838
8.99 0.263639
9 0.255728
9.01 0.247198
9.02 0.238143
9.03 0.228656
9.04 0.218813
9.05 0.208703
9.06 0.198419
9.07 0.18802
9.08 0.177556
9.09 0.167064
9.1 0.156571
9.11 0.146093
9.12 0.135635
9.13 0.125193
9.14 0.114755
9.15 0.104311
9.16 0.0938436
9.17 0.0833393
9.18 0.0727855
9.19 0.0621823
9.2 0.0515349
9.21 0.0408572
9.22 0.0301737
9.23 0.019519
9.24 0.00895115
9.25 -0.00147136
9.26 -0.0116828
9.27 -0.0216082
9.28 -0.0311668
9.29 -0.040274
9.3 -0.048824
9.31 -0.0566874
9.32 -0.0638316
9.33 -0.0701831
9.34 -0.0756776
9.35 -0.0802613
9.36 -0.0838929
9.37 -0.0864602
9.38 -0.0880022
9.39 -0.0885558
9.4 -0.0881408
9.41 -0.0867905
9.42 -0.0845509
9.43 -0.081463
9.44 -0.0775445
9.45 -0.0729492
9.46 -0.067756
9.47 -0.0620454
9.48 -0.0558979
9.49 -0.0493912
9.5 -0.0425828
9.51 -0.0355565
9.52 -0.0283817
9.53 -0.0211073
9.54 -0.0137732
9.55 -0.00641027
9.56 0.000959249
9.57 0.00831919
9.58 0.0156632
9.59 0.02299
9.6 0.0303015
9.61 0.0376011
9.62 0.0448915
9.63 0.0521731
9.64 0.0594414
9.65 0.066687
9.66 0.0738932
9.67 0.081036
9.68 0.0880835
9.69 0.094996
9.7 0.101699
9.71 0.108154
9.72 0.114301
9.73 0.120075
9.74 0.125413
9.75 0.130247
9.76 0.134484
9.77 0.138048
9.78 0.140928
9.79 0.143082
9.8 0.14448
9.81 0.145105
9.82 0.144948
9.83 0.143941
9.84 0.142178
9.85 0.139707
9.86 0.136577
9.87 0.132848
9.88 0.128589
9.89 0.123861
9.9 0.118746
9.91 0.113361
9.92 0.107792
9.93 0.102121
9.94 0.096427
9.95 0.0907806
9.96 0.0852604
9.97 0.0799163
9.98 0.0747847
9.99 0.0698927
10 0.0652558
10.01 0.0608775
10.02 0.0567572
10.03 0.0528869
10.04 0.049216
10.05 0.0457085
10.06 0.0423237
10.07 0.0390176
10.08 0.035745
10.09 0.0324568
10.1 0.0291069
10.11 0.0256596
10.12 0.0220846
10.13 0.018359
10.14 0.0144675
10.15 0.0104003
10.16 0.00614651
10.17 0.00173567
10.18 -0.00281239
10.19 -0.00747113
10.2 -0.0122084
10.21 -0.0169877
10.22 -0.0217667
10.23 -0.0264986
10.24 -0.031143
10.25 -0.0356611
10.26 -0.0400171
10.27 -0.0441798
10.28 -0.0481209
10.29 -0.0517936
10.3 -0.05521
10.31 -0.0583642
10.32 -0.0612563
10.33 -0.0638925
10.34 -0.0662845
10.35 -0.0684358
10.36 -0.0703708
10.37 -0.0721255
10.38 -0.0737247
10.39 -0.0751938
10.4 -0.0765575
10.41 -0.0778395
10.42 -0.0790568
10.43 -0.0802362
10.44 -0.0813933
10.45 -0.0825403
10.46 -0.0836864
10.47 -0.0848376
10.48 -0.0859983
10.49 -0.0871701
10.5 -0.0883523
10.51 -0.0895439
10.52 -0.090744
10.53 -0.0919521
10.54 -0.0931688
10.55 -0.0943978
10.56 -0.0956428
10.57 -0.0969102
10.58 -0.0982082
10.59 -0.099547
10.6 -0.100938
10.61 -0.102396
10.62 -0.103939
10.63 -0.105573
10.64 -0.107307
10.65 -0.109149
10.66 -0.111104
10.67 -0.113171
10.68 -0.115355
10.69 -0.117639
10.7 -0.120003
10.71 -0.122426
10.72 -0.124883
10.73 -0.127344
10.74 -0.129771
10.75 -0.132118
10.76 -0.134349
10.77 -0.136426
10.78 -0.13831
10.79 -0.139964
10.8 -0.141359
10.81 -0.142443
10.82 -0.143207
10.83 -0.143652
10.84 -0.143778
10.85 -0.143592
10.86 -0.143112
10.87 -0.14236
10.88 -0.141356
10.89 -0.140173
10.9 -0.138862
10.91 -0.137478
10.92 -0.136081
10.93 -0.134731
10.94 -0.1335
10.95 -0.13245
10.96 -0.131627
10.97 -0.131074
10.98 -0.130824
10.99 -0.130903
11 -0.131323
11.01 -0.132119
11.02 -0.133236
11.03 -0.134643
11.04 -0.136298
11.05 -0.138145
11.06 -0.140121
11.07 -0.142148
11.08 -0.144133
11.09 -0.145988
11.1 -0.147625
11.11 -0.148958
11.12 -0.149903
11.13 -0.150385
11.14 -0.15027
11.15 -0.149552
11.16 -0.148194
11.17 -0.146169
11.18 -0.143465
11.19 -0.140087
11.2 -0.136025
11.21 -0.131308
11.22 -0.126034
11.23 -0.12027
11.24 -0.114094
11.25 -0.10759
11.26 -0.10085
11.27 -0.0939667
11.28 -0.0870578
11.29 -0.0802196
11.3 -0.0735406
11.31 -0.0671018
11.32 -0.0609746
11.33 -0.0552334
11.34 -0.0499482
11.35 -0.0451159
11.36 -0.0407493
11.37 -0.0368459
11.38 -0.0333888
11.39 -0.0303468
11.4 -0.0277042
11.41 -0.0253755
11.42 -0.0232842
11.43 -0.0213578
11.44 -0.0195201
11.45 -0.0176934
11.46 -0.0157973
11.47 -0.0137395
11.48 -0.0114616
11.49 -0.00890549
11.5 -0.00602268
11.51 -0.00277565
11.52 0.000861427
11.53 0.00493344
11.54 0.00942468
11.55 0.0143052
11.56 0.0195501
11.57 0.0251248
11.58 0.0309865
11.59 0.0370877
11.6 0.0433834
11.61 0.0497922
11.62 0.056256
11.63 0.0627182
11.64 0.0691257
11.65 0.0754304
11.66 0.0815786
11.67 0.0875345
11.68 0.0932822
11.69 0.0988069
11.7 0.104102
11.71 0.109171
11.72 0.114022
11.73 0.118653
11.74 0.123112
11.75 0.127426
11.76 0.131624
11.77 0.135736
11.78 0.139791
11.79 0.143812
11.8 0.147824
11.81 0.151841
11.82 0.15587
11.83 0.159907
11.84 0.163944
11.85 0.167959
11.86 0.171918
11.87 0.175783
11.88 0.17951
11.89 0.18305
11.9 0.186348
11.91 0.189346
11.92 0.191967
11.93 0.194134
11.94 0.195819
11.95 0.196972
11.96 0.19755
11.97 0.197518
11.98 0.196849
11.99 0.195461
12 0.193399
12.01 0.190684
12.02 0.187333
12.03 0.183374
12.04 0.178844
12.05 0.173773
12.06 0.168199
12.07 0.162224
12.08 0.155914
12.09 0.149334
12.1 0.142551
12.11 0.135631
12.12 0.128636
12.13 0.121636
