# xPDFsuite Configuration #
[PDF]
wavelength = 0.1
dataformat = QA
inputfile = BiMsol6_insitu_700 C-00067.xy
backgroundfile = Quartz2mm-dist500-00000.xy
mode = xray
bgscale = 0.0042
composition = Bi2Fe4O9
outputtype = gr
qmaxinst = 24.998449118
qmin = 0.1
qmax = 21.4986662415
rmax = 80.0
rmin = 0.0
rstep = 0.01
rpoly = 0.9

[Misc]
inputdir = C:/Data/Seafile/CPH/Beamtime/Desy Oct 20/In situ data/Processed/BiMsol6/PDF
savedir = C:/Data/Seafile/CPH/Beamtime/Desy Oct 20/In situ data/PDF/BiMsol6
backgroundfilefull = C:/Data/Seafile/CPH/Beamtime/Desy Oct 20/In situ data/Processed/Standard_Empty_Cap/Quartz2mm-dist500-00000.xy

#### start data
#S 1
#L r($\AA$)  G($\AA^{-2}$)
0 0
0.01 0.00709458
0.02 0.0137952
0.03 0.0197645
0.04 0.0246997
0.05 0.0283465
0.06 0.0305103
0.07 0.0309782
0.08 0.029687
0.09 0.0267909
0.1 0.0224164
0.11 0.0167606
0.12 0.0100823
0.13 0.00269095
0.14 -0.00506692
0.15 -0.0127505
0.16 -0.0199886
0.17 -0.0264323
0.18 -0.0317682
0.19 -0.0357333
0.2 -0.0380569
0.21 -0.0385518
0.22 -0.0373189
0.23 -0.0344245
0.24 -0.0300193
0.25 -0.0243331
0.26 -0.0176665
0.27 -0.0103582
0.28 -0.00290693
0.29 0.00424439
0.3 0.0106658
0.31 0.0159478
0.32 0.019721
0.33 0.0216118
0.34 0.0212536
0.35 0.0186935
0.36 0.0139215
0.37 0.0070384
0.38 -0.0017433
0.39 -0.0121024
0.4 -0.0236692
0.41 -0.0357954
0.42 -0.0478448
0.43 -0.0591722
0.44 -0.0691101
0.45 -0.0769945
0.46 -0.0821248
0.47 -0.0836034
0.48 -0.0812321
0.49 -0.0746497
0.5 -0.063624
0.51 -0.0480664
0.52 -0.0280421
0.53 -0.00349569
0.54 0.0249903
0.55 0.0566545
0.56 0.090787
0.57 0.126561
0.58 0.163056
0.59 0.199271
0.6 0.233927
0.61 0.266047
0.62 0.294642
0.63 0.318791
0.64 0.337674
0.65 0.350594
0.66 0.356582
0.67 0.355274
0.68 0.346894
0.69 0.331496
0.7 0.309323
0.71 0.280805
0.72 0.246544
0.73 0.206831
0.74 0.163223
0.75 0.116751
0.76 0.0685007
0.77 0.019589
0.78 -0.0288686
0.79 -0.0756601
0.8 -0.119593
0.81 -0.159898
0.82 -0.195823
0.83 -0.226764
0.84 -0.252283
0.85 -0.272117
0.86 -0.285594
0.87 -0.293365
0.88 -0.295808
0.89 -0.293374
0.9 -0.28664
0.91 -0.276288
0.92 -0.263002
0.93 -0.247634
0.94 -0.231229
0.95 -0.214601
0.96 -0.198521
0.97 -0.183694
0.98 -0.170731
0.99 -0.160393
1 -0.152925
1.01 -0.148484
1.02 -0.147155
1.03 -0.148897
1.04 -0.153544
1.05 -0.160886
1.06 -0.170636
1.07 -0.182107
1.08 -0.194797
1.09 -0.208177
1.1 -0.22172
1.11 -0.234916
1.12 -0.247196
1.13 -0.258144
1.14 -0.267475
1.15 -0.274959
1.16 -0.28046
1.17 -0.283933
1.18 -0.285395
1.19 -0.284856
1.2 -0.282745
1.21 -0.279353
1.22 -0.275015
1.23 -0.270097
1.24 -0.264973
1.25 -0.260046
1.26 -0.255698
1.27 -0.252207
1.28 -0.249804
1.29 -0.248654
1.3 -0.248847
1.31 -0.250405
1.32 -0.253385
1.33 -0.25748
1.34 -0.262473
1.35 -0.268092
1.36 -0.274027
1.37 -0.279941
1.38 -0.285447
1.39 -0.290159
1.4 -0.293796
1.41 -0.296096
1.42 -0.29685
1.43 -0.295918
1.44 -0.293229
1.45 -0.288605
1.46 -0.282344
1.47 -0.274637
1.48 -0.265736
1.49 -0.25595
1.5 -0.245634
1.51 -0.235191
1.52 -0.225091
1.53 -0.215739
1.54 -0.207515
1.55 -0.200758
1.56 -0.195754
1.57 -0.192724
1.58 -0.192033
1.59 -0.193552
1.6 -0.197195
1.61 -0.202822
1.62 -0.21021
1.63 -0.219058
1.64 -0.229021
1.65 -0.239643
1.66 -0.250374
1.67 -0.260728
1.68 -0.270221
1.69 -0.27839
1.7 -0.284805
1.71 -0.288869
1.72 -0.290382
1.73 -0.289192
1.74 -0.285179
1.75 -0.278317
1.76 -0.26867
1.77 -0.256336
1.78 -0.241446
1.79 -0.224577
1.8 -0.20613
1.81 -0.186551
1.82 -0.166317
1.83 -0.145918
1.84 -0.125901
1.85 -0.106768
1.86 -0.0889146
1.87 -0.0726912
1.88 -0.0583796
1.89 -0.0461835
1.9 -0.0362559
1.91 -0.0288215
1.92 -0.0235734
1.93 -0.0203552
1.94 -0.0189389
1.95 -0.0190357
1.96 -0.0203087
1.97 -0.022415
1.98 -0.0248953
1.99 -0.0273279
2 -0.0293486
2.01 -0.030629
2.02 -0.0308899
2.03 -0.029908
2.04 -0.0273746
2.05 -0.0233855
2.06 -0.0179716
2.07 -0.0112429
2.08 -0.00338461
2.09 0.00534989
2.1 0.0146591
2.11 0.0241235
2.12 0.0333144
2.13 0.0418208
2.14 0.0492346
2.15 0.0551662
2.16 0.0592592
2.17 0.0609418
2.18 0.0601722
2.19 0.0568077
2.2 0.0507675
2.21 0.0420525
2.22 0.030746
2.23 0.0169127
2.24 0.000779194
2.25 -0.0171607
2.26 -0.0365318
2.27 -0.0569181
2.28 -0.0778775
2.29 -0.0989555
2.3 -0.119625
2.31 -0.139436
2.32 -0.158006
2.33 -0.174993
2.34 -0.190113
2.35 -0.203148
2.36 -0.213871
2.37 -0.222099
2.38 -0.228041
2.39 -0.231789
2.4 -0.233503
2.41 -0.233398
2.42 -0.231737
2.43 -0.228743
2.44 -0.224855
2.45 -0.220451
2.46 -0.215866
2.47 -0.21142
2.48 -0.207408
2.49 -0.204109
2.5 -0.201825
2.51 -0.200634
2.52 -0.200634
2.53 -0.201863
2.54 -0.204308
2.55 -0.207903
2.56 -0.212601
2.57 -0.218187
2.58 -0.224426
2.59 -0.231105
2.6 -0.237998
2.61 -0.244877
2.62 -0.251515
2.63 -0.257642
2.64 -0.263112
2.65 -0.267777
2.66 -0.271526
2.67 -0.274286
2.68 -0.276022
2.69 -0.276671
2.7 -0.276297
2.71 -0.275033
2.72 -0.272985
2.73 -0.27028
2.74 -0.267057
2.75 -0.263465
2.76 -0.259645
2.77 -0.255776
2.78 -0.251984
2.79 -0.248379
2.8 -0.245047
2.81 -0.242049
2.82 -0.23944
2.83 -0.237228
2.84 -0.235366
2.85 -0.233803
2.86 -0.232474
2.87 -0.231292
2.88 -0.230164
2.89 -0.228971
2.9 -0.227606
2.91 -0.225971
2.92 -0.22398
2.93 -0.221558
2.94 -0.218648
2.95 -0.21519
2.96 -0.211146
2.97 -0.206566
2.98 -0.201475
2.99 -0.19592
3 -0.189958
3.01 -0.183662
3.02 -0.177095
3.03 -0.170367
3.04 -0.163566
3.05 -0.156767
3.06 -0.150036
3.07 -0.143427
3.08 -0.136985
3.09 -0.13074
3.1 -0.124675
3.11 -0.118771
3.12 -0.11299
3.13 -0.107277
3.14 -0.101566
3.15 -0.095765
3.16 -0.0897814
3.17 -0.0835299
3.18 -0.0769235
3.19 -0.0698803
3.2 -0.0623268
3.21 -0.0541881
3.22 -0.0453651
3.23 -0.0358862
3.24 -0.0257403
3.25 -0.0149336
3.26 -0.00348814
3.27 0.00855872
3.28 0.0211929
3.29 0.0343273
3.3 0.0478687
3.31 0.0617445
3.32 0.0758818
3.33 0.0902109
3.34 0.104669
3.35 0.119201
3.36 0.133755
3.37 0.148301
3.38 0.162823
3.39 0.177317
3.4 0.19179
3.41 0.206263
3.42 0.220767
3.43 0.235334
3.44 0.249997
3.45 0.264789
3.46 0.279735
3.47 0.294855
3.48 0.310174
3.49 0.32566
3.5 0.341286
3.51 0.357006
3.52 0.372755
3.53 0.388452
3.54 0.403983
3.55 0.419214
3.56 0.434024
3.57 0.448277
3.58 0.461829
3.59 0.474537
3.6 0.48626
3.61 0.496734
3.62 0.505929
3.63 0.513754
3.64 0.520124
3.65 0.524974
3.66 0.528261
3.67 0.529901
3.68 0.529845
3.69 0.528246
3.7 0.52516
3.71 0.520657
3.72 0.514827
3.73 0.507773
3.74 0.499514
3.75 0.490261
3.76 0.480162
3.77 0.469337
3.78 0.457904
3.79 0.445972
3.8 0.433633
3.81 0.420971
3.82 0.408096
3.83 0.395072
3.84 0.381952
3.85 0.368779
3.86 0.355587
3.87 0.342405
3.88 0.329255
3.89 0.316154
3.9 0.303116
3.91 0.290158
3.92 0.277299
3.93 0.264561
3.94 0.251986
3.95 0.239594
3.96 0.227418
3.97 0.215498
3.98 0.203874
3.99 0.192587
4 0.181705
4.01 0.171258
4.02 0.16126
4.03 0.151728
4.04 0.142675
4.05 0.1341
4.06 0.125992
4.07 0.118367
4.08 0.111131
4.09 0.104231
4.1 0.097602
4.11 0.0911719
4.12 0.0848616
4.13 0.0785864
4.14 0.0722521
4.15 0.0657806
4.16 0.0591032
4.17 0.0521621
4.18 0.0449138
4.19 0.0373312
4.2 0.0293683
4.21 0.021079
4.22 0.012502
4.23 0.0036941
4.24 -0.00526922
4.25 -0.0142963
4.26 -0.0232742
4.27 -0.0320666
4.28 -0.0405561
4.29 -0.0486211
4.3 -0.0561447
4.31 -0.0630192
4.32 -0.0691505
4.33 -0.0743728
4.34 -0.0787009
4.35 -0.082123
4.36 -0.0846411
4.37 -0.0862843
4.38 -0.087108
4.39 -0.0871694
4.4 -0.0865642
4.41 -0.0854781
4.42 -0.0840541
4.43 -0.0824449
4.44 -0.0808075
4.45 -0.0792976
4.46 -0.0781023
4.47 -0.0773538
4.48 -0.0771583
4.49 -0.0776067
4.5 -0.0787636
4.51 -0.080665
4.52 -0.083336
4.53 -0.0867897
4.54 -0.0908957
4.55 -0.0955637
4.56 -0.10068
4.57 -0.10611
4.58 -0.111705
4.59 -0.117294
4.6 -0.122692
4.61 -0.127744
4.62 -0.1323
4.63 -0.136227
4.64 -0.139414
4.65 -0.141758
4.66 -0.143118
4.67 -0.143559
4.68 -0.143088
4.69 -0.141747
4.7 -0.139603
4.71 -0.136751
4.72 -0.133279
4.73 -0.129357
4.74 -0.125166
4.75 -0.120865
4.76 -0.116613
4.77 -0.112565
4.78 -0.108865
4.79 -0.105706
4.8 -0.103149
4.81 -0.101269
4.82 -0.100118
4.83 -0.0997202
4.84 -0.10007
4.85 -0.101175
4.86 -0.102967
4.87 -0.105321
4.88 -0.108137
4.89 -0.111301
4.9 -0.114694
4.91 -0.118193
4.92 -0.121662
4.93 -0.124982
4.94 -0.128055
4.95 -0.130801
4.96 -0.133157
4.97 -0.135084
4.98 -0.136542
4.99 -0.137528
5 -0.138104
5.01 -0.138319
5.02 -0.138238
5.03 -0.137937
5.04 -0.1375
5.05 -0.137019
5.06 -0.136596
5.07 -0.136309
5.08 -0.136229
5.09 -0.136412
5.1 -0.136898
5.11 -0.137718
5.12 -0.138888
5.13 -0.140356
5.14 -0.142081
5.15 -0.144004
5.16 -0.146051
5.17 -0.148138
5.18 -0.150162
5.19 -0.152019
5.2 -0.153621
5.21 -0.154882
5.22 -0.155731
5.23 -0.156107
5.24 -0.155957
5.25 -0.155223
5.26 -0.153957
5.27 -0.152188
5.28 -0.149963
5.29 -0.147347
5.3 -0.144424
5.31 -0.141281
5.32 -0.138047
5.33 -0.134838
5.34 -0.131764
5.35 -0.128925
5.36 -0.126415
5.37 -0.124315
5.38 -0.12273
5.39 -0.121648
5.4 -0.121075
5.41 -0.120994
5.42 -0.121362
5.43 -0.122115
5.44 -0.12318
5.45 -0.124432
5.46 -0.125736
5.47 -0.126966
5.48 -0.127991
5.49 -0.128686
5.5 -0.12893
5.51 -0.128546
5.52 -0.127505
5.53 -0.125748
5.54 -0.123243
5.55 -0.119981
5.56 -0.115986
5.57 -0.111272
5.58 -0.105929
5.59 -0.100101
5.6 -0.0939154
5.61 -0.0875096
5.62 -0.0810322
5.63 -0.0746348
5.64 -0.0685073
5.65 -0.06278
5.66 -0.0575735
5.67 -0.0529903
5.68 -0.0491086
5.69 -0.045979
5.7 -0.0436559
5.71 -0.0421453
5.72 -0.0413414
5.73 -0.0411665
5.74 -0.0415169
5.75 -0.0422671
5.76 -0.0432741
5.77 -0.0443775
5.78 -0.0453906
5.79 -0.0461533
5.8 -0.0465158
5.81 -0.0463428
5.82 -0.0455187
5.83 -0.0439261
5.84 -0.041457
5.85 -0.0381527
5.86 -0.0340231
5.87 -0.0291111
5.88 -0.0234903
5.89 -0.0172628
5.9 -0.0105272
5.91 -0.00347786
5.92 0.00370693
5.93 0.0108569
5.94 0.017802
5.95 0.024379
5.96 0.0304232
5.97 0.0357418
5.98 0.0402875
5.99 0.0439906
6 0.0468138
6.01 0.0487539
6.02 0.0498422
6.03 0.0500918
6.04 0.049643
6.05 0.0486591
6.06 0.0472926
6.07 0.0457122
6.08 0.0440961
6.09 0.0426298
6.1 0.0415426
6.11 0.0409785
6.12 0.041082
6.13 0.0419734
6.14 0.0437442
6.15 0.0464533
6.16 0.0501853
6.17 0.05491
6.18 0.0605178
6.19 0.0669169
6.2 0.0739846
6.21 0.0815716
6.22 0.089507
6.23 0.0976007
6.24 0.105619
6.25 0.113366
6.26 0.12065
6.27 0.127294
6.28 0.133141
6.29 0.138001
6.3 0.141746
6.31 0.144376
6.32 0.145861
6.33 0.14621
6.34 0.145464
6.35 0.143698
6.36 0.140935
6.37 0.137409
6.38 0.133288
6.39 0.128742
6.4 0.123947
6.41 0.119082
6.42 0.114333
6.43 0.109893
6.44 0.105891
6.45 0.102447
6.46 0.099653
6.47 0.0975722
6.48 0.0962386
6.49 0.0957238
6.5 0.0959386
6.51 0.0968044
6.52 0.0982349
6.53 0.100124
6.54 0.102348
6.55 0.104776
6.56 0.107253
6.57 0.109624
6.58 0.111756
6.59 0.113528
6.6 0.114833
6.61 0.115582
6.62 0.115653
6.63 0.115032
6.64 0.11373
6.65 0.111757
6.66 0.109148
6.67 0.105961
6.68 0.102261
6.69 0.0981203
6.7 0.0936896
6.71 0.0890795
6.72 0.0844022
6.73 0.0797677
6.74 0.0752802
6.75 0.0710579
6.76 0.0671849
6.77 0.0637118
6.78 0.0606834
6.79 0.058126
6.8 0.0560475
6.81 0.0544413
6.82 0.0533198
6.83 0.0525865
6.84 0.0521836
6.85 0.052044
6.86 0.0520947
6.87 0.052259
6.88 0.0524581
6.89 0.0526074
6.9 0.0526397
6.91 0.0524972
6.92 0.052133
6.93 0.0515112
6.94 0.0506087
6.95 0.0493814
6.96 0.047866
6.97 0.0460791
6.98 0.0440464
6.99 0.0418014
7 0.0393841
7.01 0.0368341
7.02 0.0342027
7.03 0.0315429
7.04 0.0288966
7.05 0.0263014
7.06 0.0237885
7.07 0.0213825
7.08 0.0191134
7.09 0.0169781
7.1 0.014973
7.11 0.0130893
7.12 0.0113115
7.13 0.00961905
7.14 0.00798897
7.15 0.00639208
7.16 0.00479697
7.17 0.00317818
7.18 0.00151323
7.19 -0.000215986
7.2 -0.00202212
7.21 -0.00391917
7.22 -0.00589966
7.23 -0.00795199
7.24 -0.0100598
7.25 -0.0122005
7.26 -0.0143458
7.27 -0.0164613
7.28 -0.0185024
7.29 -0.0204343
7.3 -0.0222194
7.31 -0.023822
7.32 -0.0252093
7.33 -0.0263531
7.34 -0.0272079
7.35 -0.0277687
7.36 -0.0280387
7.37 -0.028019
7.38 -0.0277186
7.39 -0.0271539
7.4 -0.0263453
7.41 -0.0253097
7.42 -0.0241079
7.43 -0.0227806
7.44 -0.0213716
7.45 -0.0199261
7.46 -0.0184893
7.47 -0.0171124
7.48 -0.0158415
7.49 -0.0147112
7.5 -0.0137544
7.51 -0.0129987
7.52 -0.012466
7.53 -0.0121737
7.54 -0.0121581
7.55 -0.0123944
7.56 -0.0128791
7.57 -0.0136031
7.58 -0.014553
7.59 -0.0157112
7.6 -0.0170663
7.61 -0.0185905
7.62 -0.0202472
7.63 -0.0220094
7.64 -0.0238499
7.65 -0.0257414
7.66 -0.0276574
7.67 -0.0295697
7.68 -0.0314524
7.69 -0.0332839
7.7 -0.0350444
7.71 -0.0367165
7.72 -0.0382848
7.73 -0.0397305
7.74 -0.0410391
7.75 -0.0422116
7.76 -0.0432435
7.77 -0.0441325
7.78 -0.0448794
7.79 -0.0454872
7.8 -0.0459494
7.81 -0.0462871
7.82 -0.0465142
7.83 -0.0466446
7.84 -0.0466947
7.85 -0.0466822
7.86 -0.0466258
7.87 -0.0465476
7.88 -0.0464714
7.89 -0.0464174
7.9 -0.0464042
7.91 -0.0464489
7.92 -0.0465657
7.93 -0.0467733
7.94 -0.0470733
7.95 -0.0474637
7.96 -0.0479398
7.97 -0.0484912
7.98 -0.0491022
7.99 -0.0497514
8 -0.050409
8.01 -0.0510398
8.02 -0.0516084
8.03 -0.052077
8.04 -0.0524069
8.05 -0.0525598
8.06 -0.05248
8.07 -0.0521396
8.08 -0.0515212
8.09 -0.0506057
8.1 -0.0493826
8.11 -0.0478505
8.12 -0.0460141
8.13 -0.0438723
8.14 -0.0414887
8.15 -0.038907
8.16 -0.0361804
8.17 -0.0333705
8.18 -0.0305456
8.19 -0.0277885
8.2 -0.0251855
8.21 -0.0228094
8.22 -0.0207333
8.23 -0.019025
8.24 -0.017744
8.25 -0.0169416
8.26 -0.0167138
8.27 -0.0170236
8.28 -0.0178734
8.29 -0.0192487
8.3 -0.0211181
8.31 -0.0234339
8.32 -0.0261495
8.33 -0.0291747
8.34 -0.0323943
8.35 -0.0357068
8.36 -0.039005
8.37 -0.0421789
8.38 -0.0451195
8.39 -0.0476738
8.4 -0.0497711
8.41 -0.051331
8.42 -0.0522848
8.43 -0.0525804
8.44 -0.0521842
8.45 -0.0510508
8.46 -0.0491719
8.47 -0.0466303
8.48 -0.043477
8.49 -0.0397801
8.5 -0.0356231
8.51 -0.0311016
8.52 -0.0263062
8.53 -0.0213811
8.54 -0.0164438
8.55 -0.0116041
8.56 -0.00696579
8.57 -0.00262301
8.58 0.00132723
8.59 0.00478983
8.6 0.00775256
8.61 0.0101893
8.62 0.0120929
8.63 0.0134747
8.64 0.0143638
8.65 0.0147719
8.66 0.0147934
8.67 0.0145143
8.68 0.0140152
8.69 0.0133802
8.7 0.0126942
8.71 0.0120416
8.72 0.0115147
8.73 0.0111727
8.74 0.0110671
8.75 0.0112351
8.76 0.0116989
8.77 0.0124643
8.78 0.0135418
8.79 0.0148902
8.8 0.0164551
8.81 0.0181831
8.82 0.0200116
8.83 0.0218724
8.84 0.023693
8.85 0.025384
8.86 0.0268853
8.87 0.0281387
8.88 0.029096
8.89 0.0297211
8.9 0.0299915
8.91 0.0298768
8.92 0.0293932
8.93 0.0285866
8.94 0.0274976
8.95 0.0261793
8.96 0.0246944
8.97 0.0231134
8.98 0.0215174
8.99 0.0199918
9 0.0186095
9.01 0.0174375
9.02 0.0165338
9.03 0.0159452
9.04 0.0157246
9.05 0.0158939
9.06 0.0164284
9.07 0.0173095
9.08 0.0185033
9.09 0.0199615
9.1 0.0216234
9.11 0.0234241
9.12 0.025264
9.13 0.0270598
9.14 0.0287296
9.15 0.0301957
9.16 0.0313874
9.17 0.0322276
9.18 0.0326519
9.19 0.0326578
9.2 0.0322342
9.21 0.0313875
9.22 0.0301417
9.23 0.0285377
9.24 0.0266098
9.25 0.0244603
9.26 0.0221783
9.27 0.0198533
9.28 0.0175777
9.29 0.0154435
9.3 0.0135482
9.31 0.0119976
9.32 0.0108354
9.33 0.0101114
9.34 0.00985828
9.35 0.01009
9.36 0.010801
9.37 0.0120008
9.38 0.0136131
9.39 0.0155573
9.4 0.0177532
9.41 0.0201091
9.42 0.0225251
9.43 0.0248939
9.44 0.0270864
9.45 0.0290099
9.46 0.0305742
9.47 0.0317016
9.48 0.0323298
9.49 0.0324146
9.5 0.0318895
9.51 0.0307717
9.52 0.0291102
9.53 0.0269495
9.54 0.0243534
9.55 0.0214026
9.56 0.0181902
9.57 0.0148197
9.58 0.0114298
9.59 0.00813408
9.6 0.00504339
9.61 0.00226115
9.62 -0.000120282
9.63 -0.00198926
9.64 -0.00328343
9.65 -0.00399507
9.66 -0.00411137
9.67 -0.00364168
9.68 -0.00261707
9.69 -0.00108924
9.7 0.000911463
9.71 0.00323862
9.72 0.00578984
9.73 0.00845574
9.74 0.0111234
9.75 0.0136807
9.76 0.0160039
9.77 0.0179776
9.78 0.0195363
9.79 0.0206161
9.8 0.0211724
9.81 0.0211816
9.82 0.0206421
9.83 0.0195237
9.84 0.0179247
9.85 0.015918
9.86 0.0135867
9.87 0.0110268
9.88 0.0083444
9.89 0.00565569
9.9 0.00309371
9.91 0.000766887
9.92 -0.00122373
9.93 -0.00278888
9.94 -0.00385438
9.95 -0.00436384
9.96 -0.00422407
9.97 -0.00346341
9.98 -0.00210874
9.99 -0.000194106
10 0.00222641
10.01 0.00508067
10.02 0.008288
10.03 0.0117481
10.04 0.0153216
10.05 0.0188945
10.06 0.0223533
10.07 0.0255886
10.08 0.028499
10.09 0.0309539
10.1 0.0328906
10.11 0.0342701
10.12 0.0350576
10.13 0.0352377
10.14 0.0348152
10.15 0.0338042
10.16 0.0322107
10.17 0.0301534
10.18 0.0277074
10.19 0.0249574
10.2 0.0219953
10.21 0.018916
10.22 0.0158199
10.23 0.0128115
10.24 0.00997429
10.25 0.00738175
10.26 0.00509533
10.27 0.00316299
10.28 0.00162092
10.29 0.000529461
10.3 -0.000155591
10.31 -0.000449257
10.32 -0.000379315
10.33 1.54101e-05
10.34 0.000687093
10.35 0.00159082
10.36 0.00265766
10.37 0.00381487
10.38 0.00500323
10.39 0.00616709
10.4 0.00725622
10.41 0.00822736
10.42 0.00902523
10.43 0.00963976
10.44 0.0100574
10.45 0.010273
10.46 0.0102898
10.47 0.0101186
10.48 0.00976898
10.49 0.00926355
10.5 0.00863909
10.51 0.0079219
10.52 0.00713764
10.53 0.00630992
10.54 0.00545901
10.55 0.0046013
10.56 0.00374851
10.57 0.00290482
10.58 0.00206904
10.59 0.00123515
10.6 0.000393013
10.61 -0.000472017
10.62 -0.0013788
10.63 -0.00234092
10.64 -0.00337249
10.65 -0.00448486
10.66 -0.00568531
10.67 -0.00697597
10.68 -0.00835975
10.69 -0.00981794
10.7 -0.0113289
10.71 -0.0128666
10.72 -0.0143989
10.73 -0.0158885
10.74 -0.017291
10.75 -0.0185489
10.76 -0.0196268
10.77 -0.0204828
10.78 -0.0210791
10.79 -0.0213837
10.8 -0.021372
10.81 -0.0210017
10.82 -0.0202832
10.83 -0.0192385
10.84 -0.0178888
10.85 -0.0162671
10.86 -0.0144175
10.87 -0.0123925
10.88 -0.0102542
10.89 -0.00809011
10.9 -0.005975
10.91 -0.00398503
10.92 -0.00219503
10.93 -0.000675866
10.94 0.000481232
10.95 0.00122167
10.96 0.00152175
10.97 0.00135473
10.98 0.000708752
10.99 -0.000412327
11 -0.00199058
11.01 -0.00402973
11.02 -0.00642479
11.03 -0.00910844
11.04 -0.0120024
11.05 -0.0150198
11.06 -0.0180679
11.07 -0.0210414
11.08 -0.0238298
11.09 -0.0263469
11.1 -0.028509
11.11 -0.030242
11.12 -0.0314842
11.13 -0.0321877
11.14 -0.032256
11.15 -0.031735
11.16 -0.0306352
11.17 -0.0289802
11.18 -0.0268096
11.19 -0.0241775
11.2 -0.0211365
11.21 -0.0177692
11.22 -0.0141897
11.23 -0.0104897
11.24 -0.00676188
11.25 -0.0030978
11.26 0.000415456
11.27 0.00366743
11.28 0.00660013
11.29 0.00916126
11.3 0.0113072
11.31 0.0130082
11.32 0.0142487
11.33 0.0150114
11.34 0.0152911
11.35 0.0151534
11.36 0.0146368
11.37 0.0137888
11.38 0.0126632
11.39 0.011319
11.4 0.00980886
11.41 0.00821058
11.42 0.0065868
11.43 0.00499144
11.44 0.00347243
11.45 0.00207046
11.46 0.000822277
11.47 -0.000234533
11.48 -0.00110202
11.49 -0.00177646
11.5 -0.00226213
11.51 -0.00257044
11.52 -0.00271881
11.53 -0.00272082
11.54 -0.00261089
11.55 -0.00242194
11.56 -0.00218157
11.57 -0.00191603
11.58 -0.00164918
11.59 -0.00140195
11.6 -0.00119529
11.61 -0.00103715
11.62 -0.000932978
11.63 -0.000883517
11.64 -0.00088512
11.65 -0.000930329
11.66 -0.00100991
11.67 -0.00110849
11.68 -0.00121032
11.69 -0.00130129
11.7 -0.00136825
11.71 -0.00139988
11.72 -0.00138728
11.73 -0.00131892
11.74 -0.00119895
11.75 -0.00102993
11.76 -0.000818017
11.77 -0.00057263
11.78 -0.00030598
11.79 -3.2937e-05
11.8 0.000228247
11.81 0.000461202
11.82 0.000650579
