# xPDFsuite Configuration #
[PDF]
wavelength = 0.1
dataformat = QA
inputfile = BiMsol6_insitu_700 C-00718.xy
backgroundfile = Quartz2mm-dist500-00000.xy
mode = xray
bgscale = 0.0042
composition = Bi2Fe4O9
outputtype = gr
qmaxinst = 24.998449118
qmin = 0.1
qmax = 21.4986662415
rmax = 80.0
rmin = 0.0
rstep = 0.01
rpoly = 0.9

[Misc]
inputdir = C:/Data/Seafile/CPH/Beamtime/Desy Oct 20/In situ data/Processed/BiMsol6/PDF
savedir = C:/Data/Seafile/CPH/Beamtime/Desy Oct 20/In situ data/PDF/BiMsol6
backgroundfilefull = C:/Data/Seafile/CPH/Beamtime/Desy Oct 20/In situ data/Processed/Standard_Empty_Cap/Quartz2mm-dist500-00000.xy

#### start data
#S 1
#L r($\AA$)  G($\AA^{-2}$)
0 0
0.01 0.00594735
0.02 0.0115509
0.03 0.0165168
0.04 0.0205816
0.05 0.023525
0.06 0.0251799
0.07 0.0253649
0.08 0.0240299
0.09 0.0213148
0.1 0.0173359
0.11 0.0122714
0.12 0.00635348
0.13 -0.000142104
0.14 -0.00690277
0.15 -0.0135453
0.16 -0.0197455
0.17 -0.0252005
0.18 -0.0296411
0.19 -0.0328449
0.2 -0.0345849
0.21 -0.034712
0.22 -0.0333325
0.23 -0.0305223
0.24 -0.0264322
0.25 -0.0212832
0.26 -0.0153578
0.27 -0.00898187
0.28 -0.00260266
0.29 0.00338178
0.3 0.00858641
0.31 0.0126487
0.32 0.0152468
0.33 0.016057
0.34 0.0147678
0.35 0.0114532
0.36 0.00613222
0.37 -0.00107397
0.38 -0.00994121
0.39 -0.0201461
0.4 -0.0313083
0.41 -0.0428116
0.42 -0.054055
0.43 -0.0644283
0.44 -0.0733049
0.45 -0.0800657
0.46 -0.0840587
0.47 -0.0844435
0.48 -0.0810685
0.49 -0.0736151
0.5 -0.0618881
0.51 -0.0458291
0.52 -0.0255249
0.53 -0.000949698
0.54 0.0273193
0.55 0.0585414
0.56 0.0920266
0.57 0.126977
0.58 0.162509
0.59 0.197666
0.6 0.231217
0.61 0.262249
0.62 0.289824
0.63 0.313073
0.64 0.331222
0.65 0.343619
0.66 0.349343
0.67 0.34806
0.68 0.339992
0.69 0.325195
0.7 0.303905
0.71 0.276531
0.72 0.243646
0.73 0.205518
0.74 0.163628
0.75 0.118953
0.76 0.0725169
0.77 0.0253758
0.78 -0.0214165
0.79 -0.0667182
0.8 -0.109402
0.81 -0.148734
0.82 -0.183998
0.83 -0.214618
0.84 -0.240173
0.85 -0.260405
0.86 -0.274668
0.87 -0.283558
0.88 -0.287419
0.89 -0.286659
0.9 -0.281805
0.91 -0.273485
0.92 -0.262322
0.93 -0.249102
0.94 -0.234799
0.95 -0.220172
0.96 -0.205941
0.97 -0.192761
0.98 -0.181208
0.99 -0.17199
1 -0.16535
1.01 -0.161452
1.02 -0.160387
1.03 -0.162132
1.04 -0.166549
1.05 -0.173462
1.06 -0.18262
1.07 -0.193404
1.08 -0.205362
1.09 -0.218017
1.1 -0.230889
1.11 -0.243516
1.12 -0.255379
1.13 -0.266093
1.14 -0.275389
1.15 -0.283047
1.16 -0.28893
1.17 -0.292986
1.18 -0.295215
1.19 -0.295605
1.2 -0.294529
1.21 -0.292234
1.22 -0.289007
1.23 -0.285161
1.24 -0.28102
1.25 -0.276926
1.26 -0.273211
1.27 -0.270125
1.28 -0.26787
1.29 -0.266589
1.3 -0.266365
1.31 -0.26722
1.32 -0.269197
1.33 -0.272048
1.34 -0.275591
1.35 -0.279599
1.36 -0.283816
1.37 -0.28796
1.38 -0.291711
1.39 -0.294752
1.4 -0.29686
1.41 -0.297828
1.42 -0.297497
1.43 -0.295764
1.44 -0.29259
1.45 -0.287855
1.46 -0.281826
1.47 -0.274684
1.48 -0.266657
1.49 -0.258024
1.5 -0.249094
1.51 -0.240223
1.52 -0.231813
1.53 -0.224192
1.54 -0.217666
1.55 -0.212507
1.56 -0.208934
1.57 -0.207106
1.58 -0.207299
1.59 -0.209359
1.6 -0.213175
1.61 -0.218586
1.62 -0.225366
1.63 -0.23322
1.64 -0.241816
1.65 -0.250723
1.66 -0.25947
1.67 -0.267632
1.68 -0.274792
1.69 -0.28056
1.7 -0.284583
1.71 -0.286355
1.72 -0.285753
1.73 -0.282695
1.74 -0.27712
1.75 -0.269052
1.76 -0.258599
1.77 -0.245895
1.78 -0.231116
1.79 -0.214793
1.8 -0.197311
1.81 -0.179085
1.82 -0.16055
1.83 -0.14214
1.84 -0.124355
1.85 -0.107609
1.86 -0.0922162
1.87 -0.078454
1.88 -0.0665331
1.89 -0.0565905
1.9 -0.0487161
1.91 -0.0430572
1.92 -0.0392916
1.93 -0.0372393
1.94 -0.0366617
1.95 -0.0372733
1.96 -0.0387544
1.97 -0.0407763
1.98 -0.0429349
1.99 -0.0448772
2 -0.0463025
2.01 -0.0469515
2.02 -0.0466179
2.03 -0.0451525
2.04 -0.0423469
2.05 -0.0383487
2.06 -0.0332475
2.07 -0.0272027
2.08 -0.0204377
2.09 -0.0132316
2.1 -0.00592327
2.11 0.00107087
2.12 0.00736906
2.13 0.012594
2.14 0.0163837
2.15 0.0184057
2.16 0.0183702
2.17 0.015772
2.18 0.0106716
2.19 0.00300903
2.2 -0.00721574
2.21 -0.0199241
2.22 -0.0349606
2.23 -0.0521787
2.24 -0.0712806
2.25 -0.0917566
2.26 -0.113204
2.27 -0.135193
2.28 -0.15728
2.29 -0.179025
2.3 -0.199886
2.31 -0.219491
2.32 -0.237517
2.33 -0.253679
2.34 -0.267758
2.35 -0.279604
2.36 -0.289059
2.37 -0.296019
2.38 -0.300763
2.39 -0.303446
2.4 -0.304278
2.41 -0.30352
2.42 -0.301473
2.43 -0.298407
2.44 -0.294763
2.45 -0.290907
2.46 -0.287165
2.47 -0.283838
2.48 -0.281192
2.49 -0.279477
2.5 -0.278956
2.51 -0.279647
2.52 -0.281595
2.53 -0.284795
2.54 -0.289185
2.55 -0.294656
2.56 -0.301115
2.57 -0.308313
2.58 -0.315996
2.59 -0.323935
2.6 -0.331896
2.61 -0.339649
2.62 -0.346972
2.63 -0.353593
2.64 -0.359406
2.65 -0.364288
2.66 -0.368157
2.67 -0.370967
2.68 -0.372715
2.69 -0.373368
2.7 -0.373025
2.71 -0.37184
2.72 -0.36994
2.73 -0.367467
2.74 -0.364573
2.75 -0.36141
2.76 -0.358131
2.77 -0.354898
2.78 -0.351829
2.79 -0.349018
2.8 -0.346538
2.81 -0.344434
2.82 -0.342746
2.83 -0.341463
2.84 -0.340522
2.85 -0.339867
2.86 -0.33942
2.87 -0.339097
2.88 -0.338802
2.89 -0.338422
2.9 -0.337862
2.91 -0.337036
2.92 -0.335872
2.93 -0.334311
2.94 -0.332309
2.95 -0.329818
2.96 -0.326814
2.97 -0.323338
2.98 -0.319411
2.99 -0.31506
3 -0.310318
3.01 -0.305219
3.02 -0.299764
3.03 -0.293998
3.04 -0.287934
3.05 -0.28156
3.06 -0.274847
3.07 -0.267744
3.08 -0.260159
3.09 -0.251956
3.1 -0.243057
3.11 -0.233329
3.12 -0.222631
3.13 -0.210809
3.14 -0.197715
3.15 -0.183069
3.16 -0.166797
3.17 -0.148835
3.18 -0.129098
3.19 -0.107531
3.2 -0.0841156
3.21 -0.0588337
3.22 -0.0316265
3.23 -0.00278448
3.24 0.0275357
3.25 0.0591376
3.26 0.0917882
3.27 0.125222
3.28 0.159161
3.29 0.193231
3.3 0.227087
3.31 0.260396
3.32 0.292833
3.33 0.324083
3.34 0.353832
3.35 0.381608
3.36 0.407343
3.37 0.430844
3.38 0.451953
3.39 0.470555
3.4 0.486574
3.41 0.499814
3.42 0.510307
3.43 0.518245
3.44 0.523708
3.45 0.526802
3.46 0.527652
3.47 0.526399
3.48 0.522989
3.49 0.517813
3.5 0.51103
3.51 0.502788
3.52 0.493229
3.53 0.482483
3.54 0.470617
3.55 0.457737
3.56 0.444002
3.57 0.429488
3.58 0.414266
3.59 0.3984
3.6 0.38195
3.61 0.364928
3.62 0.347455
3.63 0.329609
3.64 0.311474
3.65 0.293142
3.66 0.274721
3.67 0.256339
3.68 0.238157
3.69 0.22032
3.7 0.202987
3.71 0.186328
3.72 0.170511
3.73 0.15571
3.74 0.142217
3.75 0.130127
3.76 0.119557
3.77 0.110633
3.78 0.103462
3.79 0.0981285
3.8 0.0947481
3.81 0.0934657
3.82 0.0941117
3.83 0.096657
3.84 0.101047
3.85 0.107206
3.86 0.115035
3.87 0.124537
3.88 0.135494
3.89 0.147714
3.9 0.161055
3.91 0.175377
3.92 0.190542
3.93 0.206432
3.94 0.222961
3.95 0.239956
3.96 0.257325
3.97 0.274991
3.98 0.292887
3.99 0.31096
4 0.329172
4.01 0.347476
4.02 0.365832
4.03 0.384207
4.04 0.402562
4.05 0.420853
4.06 0.439023
4.07 0.456978
4.08 0.474648
4.09 0.491933
4.1 0.508719
4.11 0.524875
4.12 0.540262
4.13 0.55466
4.14 0.567887
4.15 0.579833
4.16 0.590337
4.17 0.599242
4.18 0.606403
4.19 0.611691
4.2 0.614761
4.21 0.615737
4.22 0.614575
4.23 0.61125
4.24 0.605767
4.25 0.59816
4.26 0.588399
4.27 0.576555
4.28 0.562892
4.29 0.547552
4.3 0.530695
4.31 0.512489
4.32 0.493111
4.33 0.472653
4.34 0.45139
4.35 0.429495
4.36 0.407111
4.37 0.384363
4.38 0.361355
4.39 0.338164
4.4 0.314847
4.41 0.291445
4.42 0.267966
4.43 0.244398
4.44 0.220716
4.45 0.196882
4.46 0.172828
4.47 0.148518
4.48 0.123914
4.49 0.0989866
4.5 0.0737166
4.51 0.0481036
4.52 0.02216
4.53 -0.00408054
4.54 -0.0305165
4.55 -0.0570514
4.56 -0.0835661
4.57 -0.109922
4.58 -0.135962
4.59 -0.161466
4.6 -0.186253
4.61 -0.210162
4.62 -0.23302
4.63 -0.254663
4.64 -0.274941
4.65 -0.293701
4.66 -0.310697
4.67 -0.326017
4.68 -0.339629
4.69 -0.351533
4.7 -0.361766
4.71 -0.370395
4.72 -0.377427
4.73 -0.383043
4.74 -0.387471
4.75 -0.390886
4.76 -0.393476
4.77 -0.395433
4.78 -0.396949
4.79 -0.398205
4.8 -0.399415
4.81 -0.400732
4.82 -0.402284
4.83 -0.404174
4.84 -0.406474
4.85 -0.409255
4.86 -0.412527
4.87 -0.416236
4.88 -0.42033
4.89 -0.42473
4.9 -0.42934
4.91 -0.434044
4.92 -0.438701
4.93 -0.443169
4.94 -0.447316
4.95 -0.451019
4.96 -0.454162
4.97 -0.456644
4.98 -0.458346
4.99 -0.45918
5 -0.459163
5.01 -0.458285
5.02 -0.456555
5.03 -0.454003
5.04 -0.450678
5.05 -0.446582
5.06 -0.441861
5.07 -0.436612
5.08 -0.430925
5.09 -0.424889
5.1 -0.41859
5.11 -0.412099
5.12 -0.405484
5.13 -0.398808
5.14 -0.392105
5.15 -0.385394
5.16 -0.378677
5.17 -0.371943
5.18 -0.365162
5.19 -0.358295
5.2 -0.351302
5.21 -0.344136
5.22 -0.336751
5.23 -0.329105
5.24 -0.321156
5.25 -0.312854
5.26 -0.304221
5.27 -0.295265
5.28 -0.286011
5.29 -0.276502
5.3 -0.266796
5.31 -0.256967
5.32 -0.247124
5.33 -0.237375
5.34 -0.227833
5.35 -0.218614
5.36 -0.209835
5.37 -0.201618
5.38 -0.19414
5.39 -0.187433
5.4 -0.18157
5.41 -0.176609
5.42 -0.172586
5.43 -0.169515
5.44 -0.167448
5.45 -0.166333
5.46 -0.166062
5.47 -0.16656
5.48 -0.167732
5.49 -0.169471
5.5 -0.171659
5.51 -0.174194
5.52 -0.1769
5.53 -0.179651
5.54 -0.18233
5.55 -0.184826
5.56 -0.187041
5.57 -0.188866
5.58 -0.190222
5.59 -0.191085
5.6 -0.191424
5.61 -0.191221
5.62 -0.190476
5.63 -0.1892
5.64 -0.187359
5.65 -0.185037
5.66 -0.182269
5.67 -0.179088
5.68 -0.175523
5.69 -0.171598
5.7 -0.167317
5.71 -0.162676
5.72 -0.157695
5.73 -0.152357
5.74 -0.146635
5.75 -0.140492
5.76 -0.133884
5.77 -0.126704
5.78 -0.118933
5.79 -0.110526
5.8 -0.101434
5.81 -0.0916127
5.82 -0.08103
5.83 -0.0696391
5.84 -0.0573966
5.85 -0.044386
5.86 -0.0306435
5.87 -0.0162247
5.88 -0.0012044
5.89 0.0143247
5.9 0.030277
5.91 0.0464899
5.92 0.0628152
5.93 0.0791101
5.94 0.0952298
5.95 0.111031
5.96 0.126362
5.97 0.141039
5.98 0.154997
5.99 0.168143
6 0.180406
6.01 0.191734
6.02 0.202101
6.03 0.211429
6.04 0.219776
6.05 0.227225
6.06 0.23384
6.07 0.239698
6.08 0.244887
6.09 0.249498
6.1 0.253598
6.11 0.257341
6.12 0.260819
6.13 0.26411
6.14 0.26728
6.15 0.270376
6.16 0.273426
6.17 0.276435
6.18 0.279385
6.19 0.282236
6.2 0.284926
6.21 0.287378
6.22 0.289497
6.23 0.291113
6.24 0.292152
6.25 0.292496
6.26 0.292032
6.27 0.290648
6.28 0.288247
6.29 0.284682
6.3 0.279865
6.31 0.273829
6.32 0.266556
6.33 0.258051
6.34 0.248347
6.35 0.237495
6.36 0.225471
6.37 0.212484
6.38 0.198663
6.39 0.184138
6.4 0.169047
6.41 0.153533
6.42 0.137734
6.43 0.121803
6.44 0.105889
6.45 0.0901075
6.46 0.0745605
6.47 0.0593314
6.48 0.0444847
6.49 0.0301075
6.5 0.0161919
6.51 0.00272727
6.52 -0.0103055
6.53 -0.0229412
6.54 -0.0352282
6.55 -0.047218
6.56 -0.0589729
6.57 -0.070586
6.58 -0.082125
6.59 -0.0936528
6.6 -0.105225
6.61 -0.116885
6.62 -0.128677
6.63 -0.14061
6.64 -0.152678
6.65 -0.164858
6.66 -0.177115
6.67 -0.189394
6.68 -0.201628
6.69 -0.213715
6.7 -0.225568
6.71 -0.237089
6.72 -0.248173
6.73 -0.258717
6.74 -0.268617
6.75 -0.277714
6.76 -0.285923
6.77 -0.293199
6.78 -0.29947
6.79 -0.304678
6.8 -0.308777
6.81 -0.311724
6.82 -0.31338
6.83 -0.313863
6.84 -0.313178
6.85 -0.311336
6.86 -0.308357
6.87 -0.304264
6.88 -0.299019
6.89 -0.29266
6.9 -0.285275
6.91 -0.276887
6.92 -0.267516
6.93 -0.257177
6.94 -0.245879
6.95 -0.233518
6.96 -0.220195
6.97 -0.205908
6.98 -0.190644
6.99 -0.174391
7 -0.157134
7.01 -0.138809
7.02 -0.119389
7.03 -0.0989382
7.04 -0.0774608
7.05 -0.0549696
7.06 -0.0314878
7.07 -0.00705005
7.08 0.0183843
7.09 0.044665
7.1 0.0717027
7.11 0.099408
7.12 0.127679
7.13 0.156403
7.14 0.185464
7.15 0.214718
7.16 0.244003
7.17 0.273175
7.18 0.302087
7.19 0.330594
7.2 0.358552
7.21 0.385743
7.22 0.412066
7.23 0.437411
7.24 0.461662
7.25 0.484711
7.26 0.50646
7.27 0.526783
7.28 0.545506
7.29 0.562693
7.3 0.578291
7.31 0.592259
7.32 0.604564
7.33 0.615183
7.34 0.62396
7.35 0.630961
7.36 0.636243
7.37 0.639808
7.38 0.64166
7.39 0.641808
7.4 0.640234
7.41 0.636812
7.42 0.631727
7.43 0.624998
7.44 0.616644
7.45 0.606688
7.46 0.595156
7.47 0.581972
7.48 0.567211
7.49 0.550987
7.5 0.533345
7.51 0.514339
7.52 0.494029
7.53 0.472477
7.54 0.449646
7.55 0.425759
7.56 0.400913
7.57 0.375212
7.58 0.34877
7.59 0.321706
7.6 0.29413
7.61 0.266198
7.62 0.238082
7.63 0.209927
7.64 0.181883
7.65 0.154101
7.66 0.126733
7.67 0.100007
7.68 0.0740226
7.69 0.0489148
7.7 0.0248151
7.71 0.00184567
7.72 -0.0198824
7.73 -0.0402017
7.74 -0.0589863
7.75 -0.076264
7.76 -0.0919852
7.77 -0.106117
7.78 -0.118642
7.79 -0.129563
7.8 -0.138742
7.81 -0.146352
7.82 -0.152476
7.83 -0.15718
7.84 -0.160546
7.85 -0.162664
7.86 -0.163598
7.87 -0.163425
7.88 -0.162347
7.89 -0.160478
7.9 -0.15793
7.91 -0.154813
7.92 -0.151231
7.93 -0.147256
7.94 -0.143006
7.95 -0.138566
7.96 -0.133998
7.97 -0.12935
7.98 -0.124662
7.99 -0.119956
8 -0.115246
8.01 -0.110533
8.02 -0.105805
8.03 -0.101045
8.04 -0.0962294
8.05 -0.0913324
8.06 -0.086315
8.07 -0.0811515
8.08 -0.0758238
8.09 -0.0703155
8.1 -0.0646175
8.11 -0.0587298
8.12 -0.0526603
8.13 -0.0464201
8.14 -0.0400624
8.15 -0.0336333
8.16 -0.0271885
8.17 -0.0207929
8.18 -0.014518
8.19 -0.00845976
8.2 -0.00270626
8.21 0.00267314
8.22 0.00760173
8.23 0.0120085
8.24 0.0158304
8.25 0.019013
8.26 0.0214387
8.27 0.02316
8.28 0.0241718
8.29 0.0244855
8.3 0.0241291
8.31 0.0231469
8.32 0.0215709
8.33 0.0194854
8.34 0.0170119
8.35 0.0142464
8.36 0.0112904
8.37 0.00824746
8.38 0.00522049
8.39 0.00233047
8.4 -0.000336255
8.41 -0.00270392
8.42 -0.00470992
8.43 -0.00630791
8.44 -0.00746952
8.45 -0.00816582
8.46 -0.00840019
8.47 -0.00823997
8.48 -0.00773887
8.49 -0.00696746
8.5 -0.00601109
8.51 -0.0049673
8.52 -0.00395603
8.53 -0.00310159
8.54 -0.00251832
8.55 -0.0023189
8.56 -0.00261024
8.57 -0.00349017
8.58 -0.00507015
8.59 -0.00746504
8.6 -0.010667
8.61 -0.0147064
8.62 -0.0195942
8.63 -0.0253217
8.64 -0.0318611
8.65 -0.0392273
8.66 -0.0473036
8.67 -0.0559868
8.68 -0.0651855
8.69 -0.0748004
8.7 -0.084727
8.71 -0.0948614
8.72 -0.105093
8.73 -0.115304
8.74 -0.125406
8.75 -0.135316
8.76 -0.144966
8.77 -0.1543
8.78 -0.163246
8.79 -0.171788
8.8 -0.17993
8.81 -0.187675
8.82 -0.195036
8.83 -0.202036
8.84 -0.208702
8.85 -0.215046
8.86 -0.221143
8.87 -0.227029
8.88 -0.23274
8.89 -0.238308
8.9 -0.243756
8.91 -0.249095
8.92 -0.254333
8.93 -0.259471
8.94 -0.264496
8.95 -0.269383
8.96 -0.274102
8.97 -0.278615
8.98 -0.282844
8.99 -0.286767
9 -0.290336
9.01 -0.293503
9.02 -0.296226
9.03 -0.298465
9.04 -0.300161
9.05 -0.301283
9.06 -0.301854
9.07 -0.301872
9.08 -0.301348
9.09 -0.300304
9.1 -0.298767
9.11 -0.296736
9.12 -0.294305
9.13 -0.291533
9.14 -0.288476
9.15 -0.285194
9.16 -0.281745
9.17 -0.278182
9.18 -0.274561
9.19 -0.270935
9.2 -0.267339
9.21 -0.263804
9.22 -0.260349
9.23 -0.256985
9.24 -0.253724
9.25 -0.250552
9.26 -0.247455
9.27 -0.244412
9.28 -0.241403
9.29 -0.238404
9.3 -0.235389
9.31 -0.23233
9.32 -0.229212
9.33 -0.22602
9.34 -0.222749
9.35 -0.219397
9.36 -0.215971
9.37 -0.212483
9.38 -0.20896
9.39 -0.205433
9.4 -0.201935
9.41 -0.198503
9.42 -0.195174
9.43 -0.191989
9.44 -0.189
9.45 -0.186219
9.46 -0.183668
9.47 -0.181358
9.48 -0.17929
9.49 -0.177452
9.5 -0.175835
9.51 -0.174389
9.52 -0.173053
9.53 -0.171763
9.54 -0.170444
9.55 -0.169013
9.56 -0.167377
9.57 -0.1654
9.58 -0.163007
9.59 -0.160104
9.6 -0.156598
9.61 -0.152403
9.62 -0.147445
9.63 -0.141602
9.64 -0.134825
9.65 -0.127128
9.66 -0.118493
9.67 -0.108921
9.68 -0.0984281
9.69 -0.0870461
9.7 -0.074731
9.71 -0.061646
9.72 -0.0478654
9.73 -0.0334703
9.74 -0.0185476
9.75 -0.00318692
9.76 0.0125344
9.77 0.028519
9.78 0.0446628
9.79 0.0608906
9.8 0.0771356
9.81 0.0933408
9.82 0.10946
9.83 0.125441
9.84 0.14127
9.85 0.156936
9.86 0.172435
9.87 0.187768
9.88 0.202944
9.89 0.217968
9.9 0.232847
9.91 0.247603
9.92 0.262242
9.93 0.276763
9.94 0.291157
9.95 0.30541
9.96 0.319477
9.97 0.333326
9.98 0.346914
9.99 0.360183
10 0.373068
10.01 0.385496
10.02 0.397372
10.03 0.40857
10.04 0.419058
10.05 0.428762
10.06 0.43761
10.07 0.445541
10.08 0.452502
10.09 0.45837
10.1 0.463168
10.11 0.466926
10.12 0.469657
10.13 0.47139
10.14 0.47217
10.15 0.472044
10.16 0.471035
10.17 0.469322
10.18 0.467005
10.19 0.464195
10.2 0.461006
10.21 0.457552
10.22 0.453947
10.23 0.450317
10.24 0.44677
10.25 0.443396
10.26 0.440271
10.27 0.437458
10.28 0.435007
10.29 0.43299
10.3 0.431373
10.31 0.430149
10.32 0.429291
10.33 0.428757
10.34 0.428493
10.35 0.428439
10.36 0.428502
10.37 0.428586
10.38 0.428598
10.39 0.428444
10.4 0.42803
10.41 0.427264
10.42 0.426001
10.43 0.4242
10.44 0.421794
10.45 0.418721
10.46 0.41493
10.47 0.410383
10.48 0.40501
10.49 0.398777
10.5 0.391735
10.51 0.383887
10.52 0.375248
10.53 0.365838
10.54 0.355686
10.55 0.344756
10.56 0.333151
10.57 0.320922
10.58 0.308111
10.59 0.294759
10.6 0.280908
10.61 0.266584
10.62 0.251814
10.63 0.23667
10.64 0.221189
10.65 0.205404
10.66 0.189346
10.67 0.173048
10.68 0.156521
10.69 0.139812
10.7 0.122956
10.71 0.105982
10.72 0.0889182
10.73 0.0717959
10.74 0.0546459
10.75 0.0375046
10.76 0.0204065
10.77 0.00338442
10.78 -0.0135287
10.79 -0.0303005
10.8 -0.0468992
10.81 -0.0632763
10.82 -0.0794087
10.83 -0.0952795
10.84 -0.110867
10.85 -0.126153
10.86 -0.141125
10.87 -0.155766
10.88 -0.170043
10.89 -0.183991
10.9 -0.197613
10.91 -0.210919
10.92 -0.22392
10.93 -0.236631
10.94 -0.249054
10.95 -0.261214
10.96 -0.273145
10.97 -0.284866
10.98 -0.296395
10.99 -0.307748
11 -0.318937
11.01 -0.329955
11.02 -0.340823
11.03 -0.35154
11.04 -0.362098
11.05 -0.372484
11.06 -0.382678
11.07 -0.392642
11.08 -0.40234
11.09 -0.411746
11.1 -0.420818
11.11 -0.429513
11.12 -0.437779
11.13 -0.445567
11.14 -0.452758
11.15 -0.45935
11.16 -0.465294
11.17 -0.47054
11.18 -0.47504
11.19 -0.478751
11.2 -0.481593
11.21 -0.483507
11.22 -0.484525
11.23 -0.484628
11.24 -0.483803
11.25 -0.482043
11.26 -0.47935
11.27 -0.475642
11.28 -0.471011
11.29 -0.465498
11.3 -0.459131
11.31 -0.451945
11.32 -0.443977
11.33 -0.435247
11.34 -0.425775
11.35 -0.415669
11.36 -0.404977
11.37 -0.39375
11.38 -0.382036
11.39 -0.369885
11.4 -0.357311
11.41 -0.344388
11.42 -0.331166
11.43 -0.317683
11.44 -0.303974
11.45 -0.290069
11.46 -0.275994
11.47 -0.261766
11.48 -0.247424
11.49 -0.232986
11.5 -0.218473
11.51 -0.203902
11.52 -0.189293
11.53 -0.174662
11.54 -0.160035
11.55 -0.145434
11.56 -0.130884
11.57 -0.116412
11.58 -0.10205
11.59 -0.0878327
11.6 -0.0738189
11.61 -0.0600337
11.62 -0.0465203
11.63 -0.0333237
11.64 -0.0204905
11.65 -0.00806758
11.66 0.00386535
11.67 0.0152638
11.68 0.0261097
11.69 0.036365
11.7 0.0459968
11.71 0.0549777
11.72 0.0632856
11.73 0.0708292
11.74 0.0776829
11.75 0.0838519
11.76 0.0893498
11.77 0.0941983
11.78 0.0984269
11.79 0.102043
11.8 0.105094
11.81 0.107665
11.82 0.10981
11.83 0.111584
11.84 0.113045
11.85 0.114249
11.86 0.115231
11.87 0.116068
11.88 0.116802
11.89 0.11747
11.9 0.118098
11.91 0.118706
11.92 0.119301
11.93 0.11988
11.94 0.120428
11.95 0.120922
11.96 0.121327
11.97 0.1216
11.98 0.121692
11.99 0.121518
12 0.121025
12.01 0.120154
12.02 0.118837
12.03 0.117009
12.04 0.114606
12.05 0.111543
12.06 0.107724
12.07 0.103155
12.08 0.0977982
12.09 0.0916222
12.1 0.0846064
12.11 0.0767397
12.12 0.0679483
12.13 0.0582904
12.14 0.0478135
12.15 0.0365478
12.16 0.0245317
12.17 0.0118114
12.18 -0.0015728
