# xPDFsuite Configuration #
[PDF]
wavelength = 0.1
dataformat = QA
inputfile = BiMsol6_insitu_700 C-00359.xy
backgroundfile = Quartz2mm-dist500-00000.xy
mode = xray
bgscale = 0.0042
composition = Bi2Fe4O9
outputtype = gr
qmaxinst = 24.998449118
qmin = 0.1
qmax = 21.4986662415
rmax = 80.0
rmin = 0.0
rstep = 0.01
rpoly = 0.9

[Misc]
inputdir = C:/Data/Seafile/CPH/Beamtime/Desy Oct 20/In situ data/Processed/BiMsol6/PDF
savedir = C:/Data/Seafile/CPH/Beamtime/Desy Oct 20/In situ data/PDF/BiMsol6
backgroundfilefull = C:/Data/Seafile/CPH/Beamtime/Desy Oct 20/In situ data/Processed/Standard_Empty_Cap/Quartz2mm-dist500-00000.xy

#### start data
#S 1
#L r($\AA$)  G($\AA^{-2}$)
0 0
0.01 0.00682329
0.02 0.0132647
0.03 0.0189973
0.04 0.0237276
0.05 0.0272088
0.06 0.0292526
0.07 0.0296524
0.08 0.0283468
0.09 0.0254854
0.1 0.0211907
0.11 0.0156539
0.12 0.00912614
0.13 0.00190774
0.14 -0.00566485
0.15 -0.0131638
0.16 -0.0202285
0.17 -0.02652
0.18 -0.0317338
0.19 -0.0356145
0.2 -0.0378989
0.21 -0.0384054
0.22 -0.0372324
0.23 -0.0344454
0.24 -0.0301918
0.25 -0.0246971
0.26 -0.0182553
0.27 -0.0112001
0.28 -0.00401943
0.29 0.00285207
0.3 0.00899184
0.31 0.0139969
0.32 0.0175033
0.33 0.0191418
0.34 0.0185493
0.35 0.0157717
0.36 0.0107982
0.37 0.00372692
0.38 -0.00523297
0.39 -0.0157641
0.4 -0.0275009
0.41 -0.0397985
0.42 -0.0520227
0.43 -0.0635282
0.44 -0.0736454
0.45 -0.0817048
0.46 -0.0869978
0.47 -0.0886119
0.48 -0.0863353
0.49 -0.0797892
0.5 -0.0687216
0.51 -0.0530223
0.52 -0.0327341
0.53 -0.00776695
0.54 0.0213164
0.55 0.0537666
0.56 0.0888885
0.57 0.125866
0.58 0.163782
0.59 0.201637
0.6 0.238162
0.61 0.272337
0.62 0.303149
0.63 0.329645
0.64 0.350961
0.65 0.366359
0.66 0.374811
0.67 0.375892
0.68 0.369769
0.69 0.35644
0.7 0.336092
0.71 0.309104
0.72 0.276034
0.73 0.237088
0.74 0.193832
0.75 0.147286
0.76 0.0985274
0.77 0.0486811
0.78 -0.00111902
0.79 -0.0496476
0.8 -0.0956691
0.81 -0.138336
0.82 -0.176834
0.83 -0.210493
0.84 -0.238805
0.85 -0.261433
0.86 -0.27762
0.87 -0.287948
0.88 -0.292736
0.89 -0.292383
0.9 -0.287424
0.91 -0.278511
0.92 -0.266296
0.93 -0.251616
0.94 -0.235555
0.95 -0.218956
0.96 -0.202629
0.97 -0.187327
0.98 -0.17372
0.99 -0.162633
1 -0.154394
1.01 -0.149237
1.02 -0.147316
1.03 -0.148655
1.04 -0.153147
1.05 -0.160643
1.06 -0.170917
1.07 -0.183278
1.08 -0.197233
1.09 -0.212249
1.1 -0.227777
1.11 -0.243277
1.12 -0.25815
1.13 -0.271905
1.14 -0.28418
1.15 -0.294675
1.16 -0.303177
1.17 -0.309568
1.18 -0.31379
1.19 -0.31576
1.2 -0.315867
1.21 -0.314357
1.22 -0.311534
1.23 -0.307742
1.24 -0.30335
1.25 -0.298744
1.26 -0.294343
1.27 -0.290481
1.28 -0.287439
1.29 -0.285439
1.3 -0.284637
1.31 -0.285121
1.32 -0.287026
1.33 -0.290118
1.34 -0.294242
1.35 -0.299179
1.36 -0.304663
1.37 -0.310391
1.38 -0.316012
1.39 -0.321144
1.4 -0.325479
1.41 -0.32873
1.42 -0.330653
1.43 -0.331061
1.44 -0.329827
1.45 -0.326713
1.46 -0.321938
1.47 -0.315629
1.48 -0.307975
1.49 -0.29923
1.5 -0.289702
1.51 -0.279739
1.52 -0.269778
1.53 -0.260238
1.54 -0.251502
1.55 -0.243931
1.56 -0.237846
1.57 -0.233514
1.58 -0.231347
1.59 -0.231305
1.6 -0.233377
1.61 -0.2375
1.62 -0.243527
1.63 -0.251229
1.64 -0.260341
1.65 -0.270484
1.66 -0.281127
1.67 -0.291815
1.68 -0.302079
1.69 -0.311454
1.7 -0.319494
1.71 -0.325602
1.72 -0.329502
1.73 -0.330973
1.74 -0.329828
1.75 -0.325965
1.76 -0.319373
1.77 -0.31007
1.78 -0.298097
1.79 -0.28397
1.8 -0.268035
1.81 -0.250696
1.82 -0.2324
1.83 -0.213623
1.84 -0.194893
1.85 -0.17675
1.86 -0.159637
1.87 -0.14396
1.88 -0.130062
1.89 -0.118221
1.9 -0.108671
1.91 -0.101737
1.92 -0.0971877
1.93 -0.0949425
1.94 -0.0948387
1.95 -0.0966409
1.96 -0.100051
1.97 -0.104779
1.98 -0.110358
1.99 -0.11632
2 -0.12226
2.01 -0.127787
2.02 -0.132543
2.03 -0.136209
2.04 -0.138359
2.05 -0.138955
2.06 -0.137903
2.07 -0.135186
2.08 -0.130869
2.09 -0.125091
2.1 -0.118004
2.11 -0.109928
2.12 -0.10127
2.13 -0.0923967
2.14 -0.0836983
2.15 -0.0755688
2.16 -0.0683935
2.17 -0.0627143
2.18 -0.0587445
2.19 -0.0567332
2.2 -0.056878
2.21 -0.0593077
2.22 -0.0640775
2.23 -0.0712689
2.24 -0.080821
2.25 -0.0923849
2.26 -0.105715
2.27 -0.120514
2.28 -0.136439
2.29 -0.153121
2.3 -0.170167
2.31 -0.187114
2.32 -0.203578
2.33 -0.219208
2.34 -0.233691
2.35 -0.24676
2.36 -0.258141
2.37 -0.267584
2.38 -0.27516
2.39 -0.280863
2.4 -0.284754
2.41 -0.286952
2.42 -0.287627
2.43 -0.286905
2.44 -0.285151
2.45 -0.282686
2.46 -0.279805
2.47 -0.276805
2.48 -0.27397
2.49 -0.271582
2.5 -0.269954
2.51 -0.26923
2.52 -0.269556
2.53 -0.271033
2.54 -0.27371
2.55 -0.277592
2.56 -0.282715
2.57 -0.288932
2.58 -0.296061
2.59 -0.303938
2.6 -0.312376
2.61 -0.321171
2.62 -0.330113
2.63 -0.338961
2.64 -0.347505
2.65 -0.355563
2.66 -0.362973
2.67 -0.369598
2.68 -0.375328
2.69 -0.380015
2.7 -0.383619
2.71 -0.386174
2.72 -0.387688
2.73 -0.38819
2.74 -0.387725
2.75 -0.38635
2.76 -0.38404
2.77 -0.380965
2.78 -0.377187
2.79 -0.372759
2.8 -0.367724
2.81 -0.36211
2.82 -0.355901
2.83 -0.349086
2.84 -0.34168
2.85 -0.333649
2.86 -0.324951
2.87 -0.315534
2.88 -0.305346
2.89 -0.294243
2.9 -0.282258
2.91 -0.269367
2.92 -0.255556
2.93 -0.240826
2.94 -0.225203
2.95 -0.2087
2.96 -0.191376
2.97 -0.173392
2.98 -0.154869
2.99 -0.135944
3 -0.116769
3.01 -0.0975083
3.02 -0.0783527
3.03 -0.0594825
3.04 -0.0410551
3.05 -0.0232175
3.06 -0.00609908
3.07 0.0101928
3.08 0.0255458
3.09 0.039853
3.1 0.0531792
3.11 0.0655423
3.12 0.0769905
3.13 0.087601
3.14 0.0974766
3.15 0.106703
3.16 0.115475
3.17 0.123968
3.18 0.132344
3.19 0.140762
3.2 0.149374
3.21 0.158329
3.22 0.167796
3.23 0.177831
3.24 0.188499
3.25 0.199833
3.26 0.211839
3.27 0.224489
3.28 0.237762
3.29 0.25154
3.3 0.265682
3.31 0.280051
3.32 0.294497
3.33 0.30886
3.34 0.322969
3.35 0.336602
3.36 0.349634
3.37 0.361925
3.38 0.373351
3.39 0.38381
3.4 0.393224
3.41 0.40147
3.42 0.408535
3.43 0.414487
3.44 0.419365
3.45 0.423227
3.46 0.426155
3.47 0.428248
3.48 0.429552
3.49 0.430285
3.5 0.43058
3.51 0.430565
3.52 0.430369
3.53 0.430111
3.54 0.429907
3.55 0.429868
3.56 0.430066
3.57 0.430561
3.58 0.431395
3.59 0.432596
3.6 0.434175
3.61 0.436164
3.62 0.438511
3.63 0.441181
3.64 0.44414
3.65 0.447347
3.66 0.450761
3.67 0.454344
3.68 0.458054
3.69 0.461844
3.7 0.465685
3.71 0.469549
3.72 0.473417
3.73 0.477274
3.74 0.481106
3.75 0.484906
3.76 0.488668
3.77 0.492385
3.78 0.496046
3.79 0.499637
3.8 0.503133
3.81 0.506495
3.82 0.509691
3.83 0.512674
3.84 0.515383
3.85 0.517751
3.86 0.519701
3.87 0.521099
3.88 0.521866
3.89 0.521922
3.9 0.521171
3.91 0.519515
3.92 0.516862
3.93 0.513101
3.94 0.508052
3.95 0.501756
3.96 0.494159
3.97 0.485223
3.98 0.474923
3.99 0.46325
4 0.450114
4.01 0.435579
4.02 0.419749
4.03 0.402677
4.04 0.384431
4.05 0.365086
4.06 0.344721
4.07 0.323345
4.08 0.301165
4.09 0.27828
4.1 0.254792
4.11 0.230801
4.12 0.206405
4.13 0.181688
4.14 0.156759
4.15 0.131724
4.16 0.106669
4.17 0.081677
4.18 0.0568303
4.19 0.0322075
4.2 0.0079292
4.21 -0.0159533
4.22 -0.0393647
4.23 -0.062229
4.24 -0.0844701
4.25 -0.106013
4.26 -0.12674
4.27 -0.146554
4.28 -0.165438
4.29 -0.18333
4.3 -0.20017
4.31 -0.215909
4.32 -0.230506
4.33 -0.243809
4.34 -0.255904
4.35 -0.266807
4.36 -0.276535
4.37 -0.285117
4.38 -0.292597
4.39 -0.299001
4.4 -0.304374
4.41 -0.308889
4.42 -0.312644
4.43 -0.315749
4.44 -0.318316
4.45 -0.32046
4.46 -0.322278
4.47 -0.323912
4.48 -0.32547
4.49 -0.327041
4.5 -0.328702
4.51 -0.330513
4.52 -0.332523
4.53 -0.334772
4.54 -0.337243
4.55 -0.339918
4.56 -0.342764
4.57 -0.34573
4.58 -0.348752
4.59 -0.35175
4.6 -0.354629
4.61 -0.357306
4.62 -0.359695
4.63 -0.361715
4.64 -0.363291
4.65 -0.364353
4.66 -0.3648
4.67 -0.364657
4.68 -0.363912
4.69 -0.362577
4.7 -0.36068
4.71 -0.358268
4.72 -0.355383
4.73 -0.35213
4.74 -0.348628
4.75 -0.344985
4.76 -0.341317
4.77 -0.337741
4.78 -0.334374
4.79 -0.331375
4.8 -0.328819
4.81 -0.326792
4.82 -0.325369
4.83 -0.324605
4.84 -0.324535
4.85 -0.325217
4.86 -0.326644
4.87 -0.328746
4.88 -0.331475
4.89 -0.334767
4.9 -0.338545
4.91 -0.342717
4.92 -0.347209
4.93 -0.351874
4.94 -0.356605
4.95 -0.361299
4.96 -0.365857
4.97 -0.370188
4.98 -0.374194
4.99 -0.377785
5 -0.380932
5.01 -0.383592
5.02 -0.385737
5.03 -0.387352
5.04 -0.388431
5.05 -0.388927
5.06 -0.388895
5.07 -0.388364
5.08 -0.387351
5.09 -0.385875
5.1 -0.38395
5.11 -0.38157
5.12 -0.378718
5.13 -0.375418
5.14 -0.371653
5.15 -0.367392
5.16 -0.362595
5.17 -0.357211
5.18 -0.351116
5.19 -0.344274
5.2 -0.336627
5.21 -0.328097
5.22 -0.318607
5.23 -0.308078
5.24 -0.29641
5.25 -0.283447
5.26 -0.269239
5.27 -0.253744
5.28 -0.236931
5.29 -0.218786
5.3 -0.199307
5.31 -0.178411
5.32 -0.156188
5.33 -0.132739
5.34 -0.108132
5.35 -0.0824458
5.36 -0.0557739
5.37 -0.0282092
5.38 0.000189716
5.39 0.0292105
5.4 0.0587242
5.41 0.0885973
5.42 0.118693
5.43 0.148872
5.44 0.178981
5.45 0.208857
5.46 0.238365
5.47 0.267363
5.48 0.295711
5.49 0.323269
5.5 0.349895
5.51 0.375315
5.52 0.399502
5.53 0.42232
5.54 0.443637
5.55 0.463321
5.56 0.481247
5.57 0.497181
5.58 0.51098
5.59 0.522657
5.6 0.532119
5.61 0.539285
5.62 0.544089
5.63 0.546483
5.64 0.546171
5.65 0.543388
5.66 0.538174
5.67 0.530569
5.68 0.520636
5.69 0.508462
5.7 0.494068
5.71 0.477548
5.72 0.459211
5.73 0.439228
5.74 0.417783
5.75 0.395071
5.76 0.371294
5.77 0.346593
5.78 0.32126
5.79 0.295511
5.8 0.269533
5.81 0.243503
5.82 0.217582
5.83 0.191927
5.84 0.166696
5.85 0.141965
5.86 0.117813
5.87 0.0942986
5.88 0.0714632
5.89 0.0493305
5.9 0.0279713
5.91 0.00734288
5.92 -0.0125883
5.93 -0.0318375
5.94 -0.0504203
5.95 -0.068349
5.96 -0.0856158
5.97 -0.102169
5.98 -0.118051
5.99 -0.133233
6 -0.14767
6.01 -0.161301
6.02 -0.174056
6.03 -0.18577
6.04 -0.196365
6.05 -0.20578
6.06 -0.213908
6.07 -0.220644
6.08 -0.225887
6.09 -0.229527
6.1 -0.231321
6.11 -0.23138
6.12 -0.22967
6.13 -0.22618
6.14 -0.220924
6.15 -0.213943
6.16 -0.20521
6.17 -0.194856
6.18 -0.183102
6.19 -0.170099
6.2 -0.156024
6.21 -0.141068
6.22 -0.125432
6.23 -0.1093
6.24 -0.0929574
6.25 -0.0766143
6.26 -0.06047
6.27 -0.04471
6.28 -0.0295013
6.29 -0.015032
6.3 -0.00144433
6.31 0.0112247
6.32 0.0229218
6.33 0.0336237
6.34 0.043337
6.35 0.0520965
6.36 0.0598777
6.37 0.0668621
6.38 0.0731685
6.39 0.0789205
6.4 0.0842516
6.41 0.0893013
6.42 0.0942107
6.43 0.0991362
6.44 0.104214
6.45 0.109561
6.46 0.115279
6.47 0.121451
6.48 0.128145
6.49 0.135465
6.5 0.143396
6.51 0.151931
6.52 0.161057
6.53 0.170745
6.54 0.180957
6.55 0.191653
6.56 0.202791
6.57 0.214267
6.58 0.22602
6.59 0.237987
6.6 0.250111
6.61 0.262342
6.62 0.274638
6.63 0.286959
6.64 0.299278
6.65 0.31158
6.66 0.323855
6.67 0.336102
6.68 0.348321
6.69 0.360513
6.7 0.372684
6.71 0.384832
6.72 0.396951
6.73 0.409023
6.74 0.421025
6.75 0.432905
6.76 0.444608
6.77 0.456069
6.78 0.467206
6.79 0.477923
6.8 0.48811
6.81 0.497643
6.82 0.506298
6.83 0.514011
6.84 0.520645
6.85 0.52606
6.86 0.530121
6.87 0.532699
6.88 0.53357
6.89 0.532623
6.9 0.529861
6.91 0.525214
6.92 0.518632
6.93 0.510087
6.94 0.499569
6.95 0.486869
6.96 0.472247
6.97 0.455766
6.98 0.437499
6.99 0.417538
7 0.395986
7.01 0.372889
7.02 0.34837
7.03 0.322655
7.04 0.295878
7.05 0.268174
7.06 0.239674
7.07 0.210508
7.08 0.180759
7.09 0.150605
7.1 0.120165
7.11 0.0895439
7.12 0.0588389
7.13 0.028142
7.14 -0.00245387
7.15 -0.0328498
7.16 -0.062978
7.17 -0.0927653
7.18 -0.12214
7.19 -0.151032
7.2 -0.17937
7.21 -0.20702
7.22 -0.233944
7.23 -0.260086
7.24 -0.285373
7.25 -0.309736
7.26 -0.333101
7.27 -0.35537
7.28 -0.376399
7.29 -0.396225
7.3 -0.414795
7.31 -0.432063
7.32 -0.447991
7.33 -0.462554
7.34 -0.475623
7.35 -0.487256
7.36 -0.497515
7.37 -0.506423
7.38 -0.514015
7.39 -0.520337
7.4 -0.525427
7.41 -0.529266
7.42 -0.532049
7.43 -0.533859
7.44 -0.534781
7.45 -0.534902
7.46 -0.534311
7.47 -0.533055
7.48 -0.53124
7.49 -0.52897
7.5 -0.526311
7.51 -0.523321
7.52 -0.520048
7.53 -0.516528
7.54 -0.512768
7.55 -0.508807
7.56 -0.504649
7.57 -0.500286
7.58 -0.495704
7.59 -0.490879
7.6 -0.485766
7.61 -0.480325
7.62 -0.474534
7.63 -0.468356
7.64 -0.461754
7.65 -0.454691
7.66 -0.447137
7.67 -0.439003
7.68 -0.430324
7.69 -0.421089
7.7 -0.411296
7.71 -0.400948
7.72 -0.390058
7.73 -0.378624
7.74 -0.366671
7.75 -0.354276
7.76 -0.341485
7.77 -0.328353
7.78 -0.314941
7.79 -0.301314
7.8 -0.287536
7.81 -0.273699
7.82 -0.259884
7.83 -0.246166
7.84 -0.232623
7.85 -0.219331
7.86 -0.20638
7.87 -0.193869
7.88 -0.181839
7.89 -0.170352
7.9 -0.159467
7.91 -0.149237
7.92 -0.13971
7.93 -0.130996
7.94 -0.123085
7.95 -0.115982
7.96 -0.109705
7.97 -0.104265
7.98 -0.0996656
7.99 -0.0959241
8 -0.0930828
8.01 -0.0910471
8.02 -0.0897927
8.03 -0.0892903
8.04 -0.0895055
8.05 -0.0904
8.06 -0.0919786
8.07 -0.0941652
8.08 -0.0968888
8.09 -0.100102
8.1 -0.103757
8.11 -0.107806
8.12 -0.112208
8.13 -0.116939
8.14 -0.121922
8.15 -0.127116
8.16 -0.132483
8.17 -0.137986
8.18 -0.143592
8.19 -0.149269
8.2 -0.15498
8.21 -0.160688
8.22 -0.166362
8.23 -0.171967
8.24 -0.177468
8.25 -0.182824
8.26 -0.187969
8.27 -0.192871
8.28 -0.197479
8.29 -0.201736
8.3 -0.205581
8.31 -0.208948
8.32 -0.211733
8.33 -0.213846
8.34 -0.215245
8.35 -0.215853
8.36 -0.215592
8.37 -0.214385
8.38 -0.212157
8.39 -0.208714
8.4 -0.204097
8.41 -0.198261
8.42 -0.191161
8.43 -0.182761
8.44 -0.173039
8.45 -0.16192
8.46 -0.149373
8.47 -0.135509
8.48 -0.120358
8.49 -0.103958
8.5 -0.0863615
8.51 -0.0676292
8.52 -0.0477334
8.53 -0.0268453
8.54 -0.00506833
8.55 0.0175107
8.56 0.0408031
8.57 0.0647202
8.58 0.0891898
8.59 0.114138
8.6 0.139442
8.61 0.165027
8.62 0.190824
8.63 0.216768
8.64 0.242801
8.65 0.268869
8.66 0.294916
8.67 0.320894
8.68 0.34676
8.69 0.372473
8.7 0.397988
8.71 0.423252
8.72 0.448187
8.73 0.472759
8.74 0.496907
8.75 0.520558
8.76 0.543635
8.77 0.56605
8.78 0.587643
8.79 0.608323
8.8 0.628011
8.81 0.64659
8.82 0.663941
8.83 0.679941
8.84 0.694449
8.85 0.707182
8.86 0.718182
8.87 0.727342
8.88 0.734563
8.89 0.739757
8.9 0.742849
8.91 0.743633
8.92 0.742087
8.93 0.738297
8.94 0.732253
8.95 0.723963
8.96 0.71345
8.97 0.700748
8.98 0.685672
8.99 0.668544
9 0.649444
9.01 0.628462
9.02 0.605695
9.03 0.581248
9.04 0.555151
9.05 0.527522
9.06 0.498574
9.07 0.468423
9.08 0.437185
9.09 0.404976
9.1 0.371913
9.11 0.338042
9.12 0.303563
9.13 0.268598
9.14 0.233262
9.15 0.197673
9.16 0.161952
9.17 0.126226
9.18 0.0906455
9.19 0.0553411
9.2 0.0204497
9.21 -0.0138878
9.22 -0.0475263
9.23 -0.0803169
9.24 -0.111998
9.25 -0.142473
9.26 -0.171612
9.27 -0.199265
9.28 -0.225285
9.29 -0.249532
9.3 -0.27181
9.31 -0.291876
9.32 -0.309787
9.33 -0.325455
9.34 -0.338805
9.35 -0.349782
9.36 -0.358348
9.37 -0.364281
9.38 -0.367713
9.39 -0.368751
9.4 -0.367439
9.41 -0.36384
9.42 -0.358035
9.43 -0.350075
9.44 -0.339931
9.45 -0.327924
9.46 -0.314181
9.47 -0.298835
9.48 -0.282021
9.49 -0.263876
9.5 -0.244457
9.51 -0.22395
9.52 -0.202536
9.53 -0.180334
9.54 -0.157462
9.55 -0.13403
9.56 -0.110136
9.57 -0.0858559
9.58 -0.0613261
9.59 -0.0366337
9.6 -0.0118623
9.61 0.0129062
9.62 0.0375911
9.63 0.0620951
9.64 0.0863239
9.65 0.110201
9.66 0.133638
9.67 0.156541
9.68 0.178816
9.69 0.200363
9.7 0.220972
9.71 0.240626
9.72 0.259222
9.73 0.276659
9.74 0.292839
9.75 0.307668
9.76 0.320982
9.77 0.332673
9.78 0.342772
9.79 0.351232
9.8 0.358015
9.81 0.363102
9.82 0.366489
9.83 0.368018
9.84 0.367878
9.85 0.366141
9.86 0.362875
9.87 0.358159
9.88 0.352086
9.89 0.344714
9.9 0.336129
9.91 0.326546
9.92 0.316088
9.93 0.304876
9.94 0.293033
9.95 0.280674
9.96 0.267885
9.97 0.254805
9.98 0.241536
9.99 0.228157
10 0.214736
10.01 0.20133
10.02 0.187986
10.03 0.174746
10.04 0.161623
10.05 0.148627
10.06 0.135761
10.07 0.123019
10.08 0.110392
10.09 0.0978762
10.1 0.0854492
10.11 0.0730943
10.12 0.0608002
10.13 0.0485584
10.14 0.0363652
10.15 0.0242229
10.16 0.0121448
10.17 0.000140688
10.18 -0.0117689
10.19 -0.0235579
10.2 -0.0351953
10.21 -0.046646
10.22 -0.0578531
10.23 -0.0687762
10.24 -0.0793854
10.25 -0.0896409
10.26 -0.0995053
10.27 -0.108944
10.28 -0.117925
10.29 -0.126373
10.3 -0.134321
10.31 -0.141761
10.32 -0.148691
10.33 -0.155116
10.34 -0.16105
10.35 -0.166486
10.36 -0.171457
10.37 -0.176024
10.38 -0.180224
10.39 -0.184101
10.4 -0.1877
10.41 -0.191068
10.42 -0.194237
10.43 -0.197281
10.44 -0.200244
10.45 -0.203171
10.46 -0.206101
10.47 -0.209072
10.48 -0.21212
10.49 -0.215276
10.5 -0.218557
10.51 -0.221976
10.52 -0.225545
10.53 -0.229266
10.54 -0.23314
10.55 -0.237174
10.56 -0.241345
10.57 -0.245636
10.58 -0.250027
10.59 -0.254499
10.6 -0.259028
10.61 -0.263588
10.62 -0.268151
10.63 -0.272685
10.64 -0.277165
10.65 -0.281563
10.66 -0.285853
10.67 -0.290011
10.68 -0.293998
10.69 -0.297801
10.7 -0.301407
10.71 -0.304803
10.72 -0.307976
10.73 -0.31092
10.74 -0.313624
10.75 -0.316075
10.76 -0.318297
10.77 -0.3203
10.78 -0.322097
10.79 -0.323703
10.8 -0.325138
10.81 -0.326413
10.82 -0.327564
10.83 -0.328621
10.84 -0.329614
10.85 -0.33057
10.86 -0.331517
10.87 -0.332482
10.88 -0.333497
10.89 -0.334579
10.9 -0.335747
10.91 -0.337012
10.92 -0.338383
10.93 -0.339861
10.94 -0.341449
10.95 -0.343132
10.96 -0.344886
10.97 -0.346686
10.98 -0.348502
10.99 -0.350296
11 -0.352025
11.01 -0.353625
11.02 -0.355053
11.03 -0.356255
11.04 -0.357176
11.05 -0.357761
11.06 -0.357955
11.07 -0.357677
11.08 -0.356871
11.09 -0.355519
11.1 -0.353583
11.11 -0.351033
11.12 -0.347843
11.13 -0.343996
11.14 -0.33941
11.15 -0.334155
11.16 -0.328243
11.17 -0.321694
11.18 -0.31453
11.19 -0.306784
11.2 -0.298471
11.21 -0.289628
11.22 -0.280343
11.23 -0.270665
11.24 -0.26065
11.25 -0.250351
11.26 -0.239823
11.27 -0.229105
11.28 -0.21827
11.29 -0.207367
11.3 -0.196438
11.31 -0.185522
11.32 -0.174651
11.33 -0.163858
11.34 -0.153169
11.35 -0.142593
11.36 -0.132139
11.37 -0.121807
11.38 -0.111597
11.39 -0.101498
11.4 -0.0915066
11.41 -0.0815954
11.42 -0.0717402
11.43 -0.061916
11.44 -0.0520955
11.45 -0.0422494
11.46 -0.0323451
11.47 -0.0223413
11.48 -0.0122125
11.49 -0.00192804
11.5 0.00854181
11.51 0.0192252
11.52 0.0301483
11.53 0.041357
11.54 0.0528651
11.55 0.0646793
11.56 0.0768134
11.57 0.0892777
11.58 0.102078
11.59 0.115223
11.6 0.128738
11.61 0.142582
11.62 0.156743
11.63 0.171204
11.64 0.185946
11.65 0.200942
11.66 0.216177
11.67 0.231608
11.68 0.247185
11.69 0.262865
11.7 0.278605
11.71 0.294354
11.72 0.310062
11.73 0.325657
11.74 0.341089
11.75 0.3563
11.76 0.371231
11.77 0.385821
11.78 0.400012
11.79 0.413712
11.8 0.42685
11.81 0.439395
11.82 0.45129
11.83 0.462477
11.84 0.472902
11.85 0.482511
11.86 0.491154
11.87 0.498864
11.88 0.505603
11.89 0.511328
11.9 0.516001
11.91 0.519584
11.92 0.521996
11.93 0.52317
11.94 0.523167
11.95 0.521966
11.96 0.519556
11.97 0.515927
11.98 0.511077
11.99 0.504893
12 0.497479
12.01 0.488878
12.02 0.479115
12.03 0.468222
12.04 0.456236
12.05 0.443172
12.06 0.429039
12.07 0.413987
12.08 0.398084
12.09 0.381405
12.1 0.36403
12.11 0.346043
12.12 0.327499
12.13 0.308533
12.14 0.289257
12.15 0.269771
12.16 0.250176
12.17 0.230571
12.18 0.211061
12.19 0.191771
12.2 0.172783
12.21 0.15419
12.22 0.136078
12.23 0.118529
12.24 0.101619
12.25 0.0854747
