# xPDFsuite Configuration #
[PDF]
wavelength = 0.1
dataformat = QA
inputfile = BiMsol6_insitu_700 C-00663.xy
backgroundfile = Quartz2mm-dist500-00000.xy
mode = xray
bgscale = 0.0042
composition = Bi2Fe4O9
outputtype = gr
qmaxinst = 24.998449118
qmin = 0.1
qmax = 21.4986662415
rmax = 80.0
rmin = 0.0
rstep = 0.01
rpoly = 0.9

[Misc]
inputdir = C:/Data/Seafile/CPH/Beamtime/Desy Oct 20/In situ data/Processed/BiMsol6/PDF
savedir = C:/Data/Seafile/CPH/Beamtime/Desy Oct 20/In situ data/PDF/BiMsol6
backgroundfilefull = C:/Data/Seafile/CPH/Beamtime/Desy Oct 20/In situ data/Processed/Standard_Empty_Cap/Quartz2mm-dist500-00000.xy

#### start data
#S 1
#L r($\AA$)  G($\AA^{-2}$)
0 0
0.01 0.00618147
0.02 0.0120103
0.03 0.0171849
0.04 0.0214347
0.05 0.024533
0.06 0.0263072
0.07 0.026569
0.08 0.0252648
0.09 0.0225357
0.1 0.0184981
0.11 0.0133318
0.12 0.00727215
0.13 0.000599221
0.14 -0.00637115
0.15 -0.0132453
0.16 -0.0196907
0.17 -0.0253962
0.18 -0.0300836
0.19 -0.0335215
0.2 -0.035473
0.21 -0.0357786
0.22 -0.0345388
0.23 -0.0318231
0.24 -0.0277775
0.25 -0.0226194
0.26 -0.016629
0.27 -0.0101271
0.28 -0.00356703
0.29 0.00264814
0.3 0.00812767
0.31 0.0125017
0.32 0.0154397
0.33 0.0166078
0.34 0.0156822
0.35 0.0127233
0.36 0.00773767
0.37 0.000833871
0.38 -0.00777614
0.39 -0.0177805
0.4 -0.0288157
0.41 -0.0402723
0.42 -0.051554
0.43 -0.0620552
0.44 -0.0711521
0.45 -0.0782259
0.46 -0.0826239
0.47 -0.0835066
0.48 -0.0807056
0.49 -0.0738921
0.5 -0.0628581
0.51 -0.0475308
0.52 -0.0279808
0.53 -0.004164
0.54 0.0233633
0.55 0.0538794
0.56 0.0867125
0.57 0.121082
0.58 0.156122
0.59 0.190891
0.6 0.224183
0.61 0.255084
0.62 0.282663
0.63 0.306055
0.64 0.324486
0.65 0.337301
0.66 0.343582
0.67 0.34298
0.68 0.3357
0.69 0.321781
0.7 0.301441
0.71 0.275071
0.72 0.243222
0.73 0.20614
0.74 0.16528
0.75 0.121598
0.76 0.0760986
0.77 0.0298197
0.78 -0.0162011
0.79 -0.0608415
0.8 -0.102988
0.81 -0.141905
0.82 -0.17688
0.83 -0.207336
0.84 -0.232848
0.85 -0.25315
0.86 -0.267597
0.87 -0.276759
0.88 -0.280963
0.89 -0.280599
0.9 -0.276176
0.91 -0.268303
0.92 -0.257584
0.93 -0.24478
0.94 -0.230854
0.95 -0.216547
0.96 -0.202567
0.97 -0.189562
0.98 -0.178101
0.99 -0.168879
1 -0.162149
1.01 -0.158079
1.02 -0.15677
1.03 -0.158207
1.04 -0.162268
1.05 -0.168788
1.06 -0.177536
1.07 -0.187912
1.08 -0.19948
1.09 -0.211783
1.1 -0.224356
1.11 -0.236749
1.12 -0.248466
1.13 -0.259126
1.14 -0.268465
1.15 -0.276266
1.16 -0.282392
1.17 -0.286788
1.18 -0.289448
1.19 -0.290358
1.2 -0.28987
1.21 -0.288216
1.22 -0.285668
1.23 -0.282524
1.24 -0.279091
1.25 -0.275692
1.26 -0.272643
1.27 -0.270179
1.28 -0.26849
1.29 -0.26771
1.3 -0.267913
1.31 -0.269116
1.32 -0.271351
1.33 -0.274379
1.34 -0.278021
1.35 -0.282058
1.36 -0.286236
1.37 -0.290286
1.38 -0.293892
1.39 -0.296751
1.4 -0.298651
1.41 -0.299396
1.42 -0.298835
1.43 -0.296873
1.44 -0.293477
1.45 -0.288532
1.46 -0.282306
1.47 -0.274979
1.48 -0.266781
1.49 -0.257982
1.5 -0.248892
1.51 -0.239859
1.52 -0.231277
1.53 -0.223469
1.54 -0.216736
1.55 -0.211346
1.56 -0.207513
1.57 -0.205396
1.58 -0.205269
1.59 -0.206984
1.6 -0.210436
1.61 -0.215472
1.62 -0.221875
1.63 -0.229365
1.64 -0.237622
1.65 -0.246234
1.66 -0.254743
1.67 -0.262738
1.68 -0.269817
1.69 -0.275601
1.7 -0.279747
1.71 -0.281767
1.72 -0.281537
1.73 -0.278967
1.74 -0.273995
1.75 -0.266636
1.76 -0.256984
1.77 -0.245161
1.78 -0.231322
1.79 -0.215971
1.8 -0.199467
1.81 -0.182199
1.82 -0.164574
1.83 -0.147003
1.84 -0.129949
1.85 -0.113806
1.86 -0.0988742
1.87 -0.0854155
1.88 -0.0736309
1.89 -0.0636525
1.9 -0.0555679
1.91 -0.0495171
1.92 -0.0452079
1.93 -0.0424775
1.94 -0.0411092
1.95 -0.0408429
1.96 -0.041387
1.97 -0.0424435
1.98 -0.0436446
1.99 -0.0446692
2 -0.0452456
2.01 -0.0451412
2.02 -0.0441724
2.03 -0.0422093
2.04 -0.0390741
2.05 -0.0349043
2.06 -0.0297898
2.07 -0.0238837
2.08 -0.0173974
2.09 -0.0105924
2.1 -0.00378915
2.11 0.00262673
2.12 0.00830964
2.13 0.0129143
2.14 0.016111
2.15 0.0175989
2.16 0.0171179
2.17 0.0142042
2.18 0.00892986
2.19 0.00124898
2.2 -0.00882944
2.21 -0.0212246
2.22 -0.0357857
2.23 -0.052372
2.24 -0.0707044
2.25 -0.0903098
2.26 -0.110817
2.27 -0.131831
2.28 -0.152948
2.29 -0.173766
2.3 -0.193797
2.31 -0.212705
2.32 -0.230199
2.33 -0.246026
2.34 -0.259991
2.35 -0.271962
2.36 -0.281801
2.37 -0.289417
2.38 -0.295061
2.39 -0.298869
2.4 -0.301028
2.41 -0.301765
2.42 -0.301343
2.43 -0.29999
2.44 -0.298087
2.45 -0.295947
2.46 -0.293843
2.47 -0.292026
2.48 -0.290715
2.49 -0.290108
2.5 -0.29041
2.51 -0.291629
2.52 -0.293793
2.53 -0.296884
2.54 -0.300839
2.55 -0.305558
2.56 -0.310941
2.57 -0.316783
2.58 -0.322877
2.59 -0.329038
2.6 -0.335079
2.61 -0.340823
2.62 -0.346102
2.63 -0.350706
2.64 -0.354586
2.65 -0.357668
2.66 -0.359915
2.67 -0.361321
2.68 -0.361914
2.69 -0.361708
2.7 -0.36081
2.71 -0.359368
2.72 -0.357504
2.73 -0.355348
2.74 -0.353031
2.75 -0.350679
2.76 -0.348432
2.77 -0.346385
2.78 -0.344616
2.79 -0.343178
2.8 -0.342099
2.81 -0.341383
2.82 -0.341027
2.83 -0.34098
2.84 -0.341154
2.85 -0.341468
2.86 -0.341831
2.87 -0.342145
2.88 -0.342312
2.89 -0.342203
2.9 -0.341749
2.91 -0.340882
2.92 -0.339547
2.93 -0.337707
2.94 -0.335342
2.95 -0.332427
2.96 -0.328964
2.97 -0.325023
2.98 -0.320646
2.99 -0.315876
3 -0.310763
3.01 -0.305349
3.02 -0.299648
3.03 -0.293702
3.04 -0.287519
3.05 -0.281079
3.06 -0.274343
3.07 -0.267245
3.08 -0.25968
3.09 -0.251492
3.1 -0.242586
3.11 -0.232815
3.12 -0.222021
3.13 -0.210042
3.14 -0.196719
3.15 -0.181761
3.16 -0.165098
3.17 -0.146672
3.18 -0.126405
3.19 -0.104254
3.2 -0.0802149
3.21 -0.0542885
3.22 -0.0264384
3.23 0.00302148
3.24 0.0339117
3.25 0.0660137
3.26 0.099073
3.27 0.132805
3.28 0.166903
3.29 0.200983
3.3 0.234695
3.31 0.267703
3.32 0.299681
3.33 0.330316
3.34 0.359302
3.35 0.386169
3.36 0.410882
3.37 0.433266
3.38 0.453188
3.39 0.470556
3.4 0.485323
3.41 0.49732
3.42 0.50661
3.43 0.513409
3.44 0.51782
3.45 0.519971
3.46 0.520006
3.47 0.518082
3.48 0.514172
3.49 0.508661
3.5 0.501709
3.51 0.493465
3.52 0.484067
3.53 0.473637
3.54 0.462241
3.55 0.44997
3.56 0.436958
3.57 0.423265
3.58 0.408944
3.59 0.394039
3.6 0.378591
3.61 0.362594
3.62 0.346145
3.63 0.329305
3.64 0.312142
3.65 0.294732
3.66 0.277171
3.67 0.259571
3.68 0.24208
3.69 0.224843
3.7 0.208015
3.71 0.191761
3.72 0.176251
3.73 0.16166
3.74 0.148276
3.75 0.136209
3.76 0.125583
3.77 0.116536
3.78 0.109187
3.79 0.103631
3.8 0.0999973
3.81 0.098445
3.82 0.0988215
3.83 0.101111
3.84 0.105274
3.85 0.111244
3.86 0.118934
3.87 0.128364
3.88 0.139317
3.89 0.151604
3.9 0.165084
3.91 0.179615
3.92 0.195054
3.93 0.211274
3.94 0.228178
3.95 0.245574
3.96 0.263351
3.97 0.281411
3.98 0.299666
3.99 0.31804
4 0.336463
4.01 0.354865
4.02 0.373189
4.03 0.391382
4.04 0.409391
4.05 0.427159
4.06 0.444621
4.07 0.461661
4.08 0.478234
4.09 0.494251
4.1 0.509614
4.11 0.524215
4.12 0.53794
4.13 0.5506
4.14 0.562056
4.15 0.57224
4.16 0.581032
4.17 0.588317
4.18 0.593991
4.19 0.597964
4.2 0.59995
4.21 0.600088
4.22 0.598353
4.23 0.594736
4.24 0.589252
4.25 0.581935
4.26 0.572759
4.27 0.561782
4.28 0.549222
4.29 0.535186
4.3 0.519795
4.31 0.503173
4.32 0.485448
4.33 0.466656
4.34 0.447015
4.35 0.426647
4.36 0.405649
4.37 0.384104
4.38 0.362078
4.39 0.339611
4.4 0.316727
4.41 0.293478
4.42 0.269872
4.43 0.24591
4.44 0.221585
4.45 0.196887
4.46 0.171773
4.47 0.146265
4.48 0.12038
4.49 0.0941376
4.5 0.0675722
4.51 0.0407338
4.52 0.0136876
4.53 -0.0134735
4.54 -0.0406235
4.55 -0.0676376
4.56 -0.0943773
4.57 -0.120693
4.58 -0.14643
4.59 -0.171355
4.6 -0.195321
4.61 -0.218209
4.62 -0.239879
4.63 -0.26021
4.64 -0.2791
4.65 -0.296445
4.66 -0.312054
4.67 -0.326066
4.68 -0.338491
4.69 -0.349369
4.7 -0.358766
4.71 -0.366775
4.72 -0.37343
4.73 -0.378913
4.74 -0.383434
4.75 -0.387152
4.76 -0.390229
4.77 -0.392826
4.78 -0.395097
4.79 -0.397181
4.8 -0.399237
4.81 -0.401371
4.82 -0.403666
4.83 -0.406185
4.84 -0.408966
4.85 -0.412038
4.86 -0.415388
4.87 -0.418967
4.88 -0.422721
4.89 -0.426584
4.9 -0.430478
4.91 -0.434316
4.92 -0.437984
4.93 -0.441401
4.94 -0.444483
4.95 -0.447154
4.96 -0.449349
4.97 -0.451015
4.98 -0.452084
4.99 -0.452513
5 -0.452336
5.01 -0.451557
5.02 -0.450194
5.03 -0.448272
5.04 -0.445826
5.05 -0.44285
5.06 -0.439431
5.07 -0.435617
5.08 -0.431445
5.09 -0.426948
5.1 -0.422152
5.11 -0.417063
5.12 -0.411679
5.13 -0.406019
5.14 -0.400075
5.15 -0.39383
5.16 -0.387264
5.17 -0.380352
5.18 -0.373037
5.19 -0.365317
5.2 -0.357187
5.21 -0.34864
5.22 -0.33968
5.23 -0.330321
5.24 -0.320583
5.25 -0.310491
5.26 -0.30014
5.27 -0.289601
5.28 -0.278959
5.29 -0.268307
5.3 -0.257748
5.31 -0.247413
5.32 -0.237415
5.33 -0.227852
5.34 -0.218823
5.35 -0.210418
5.36 -0.202715
5.37 -0.195786
5.38 -0.189754
5.39 -0.184561
5.4 -0.180208
5.41 -0.176679
5.42 -0.173938
5.43 -0.171932
5.44 -0.170633
5.45 -0.169936
5.46 -0.169716
5.47 -0.169876
5.48 -0.17032
5.49 -0.170949
5.5 -0.171674
5.51 -0.172405
5.52 -0.173064
5.53 -0.173595
5.54 -0.173959
5.55 -0.174127
5.56 -0.174089
5.57 -0.173834
5.58 -0.173378
5.59 -0.172758
5.6 -0.172002
5.61 -0.171143
5.62 -0.170212
5.63 -0.169235
5.64 -0.168229
5.65 -0.167203
5.66 -0.166149
5.67 -0.165041
5.68 -0.163839
5.69 -0.162486
5.7 -0.160894
5.71 -0.158953
5.72 -0.156578
5.73 -0.153658
5.74 -0.150079
5.75 -0.145727
5.76 -0.140491
5.77 -0.134167
5.78 -0.126737
5.79 -0.118158
5.8 -0.10839
5.81 -0.0974175
5.82 -0.0852545
5.83 -0.0719081
5.84 -0.0574097
5.85 -0.0419634
5.86 -0.0257038
5.87 -0.00878863
5.88 0.00860556
5.89 0.0262877
5.9 0.0440473
5.91 0.0616509
5.92 0.0788978
5.93 0.0955996
5.94 0.111584
5.95 0.126698
5.96 0.140793
5.97 0.153682
5.98 0.165406
5.99 0.175941
6 0.185296
6.01 0.193514
6.02 0.200665
6.03 0.206783
6.04 0.21204
6.05 0.216614
6.06 0.220657
6.07 0.224319
6.08 0.227752
6.09 0.231096
6.1 0.234495
6.11 0.238056
6.12 0.241855
6.13 0.245938
6.14 0.250323
6.15 0.254996
6.16 0.259923
6.17 0.265012
6.18 0.270143
6.19 0.275186
6.2 0.279995
6.21 0.284412
6.22 0.288272
6.23 0.291307
6.24 0.293428
6.25 0.294493
6.26 0.294377
6.27 0.292975
6.28 0.290212
6.29 0.285963
6.3 0.280197
6.31 0.273027
6.32 0.264505
6.33 0.254708
6.34 0.243743
6.35 0.231734
6.36 0.218745
6.37 0.205033
6.38 0.190769
6.39 0.176114
6.4 0.161224
6.41 0.146246
6.42 0.131316
6.43 0.116567
6.44 0.10208
6.45 0.0879187
6.46 0.0741226
6.47 0.0607082
6.48 0.0476702
6.49 0.0350121
6.5 0.0226582
6.51 0.0105416
6.52 -0.00140582
6.53 -0.0132563
6.54 -0.0250824
6.55 -0.0369561
6.56 -0.0489507
6.57 -0.0611074
6.58 -0.0734573
6.59 -0.086015
6.6 -0.0987774
6.61 -0.111723
6.62 -0.124821
6.63 -0.137997
6.64 -0.151175
6.65 -0.164269
6.66 -0.177186
6.67 -0.189827
6.68 -0.202084
6.69 -0.213811
6.7 -0.224954
6.71 -0.235432
6.72 -0.245175
6.73 -0.254124
6.74 -0.262237
6.75 -0.269418
6.76 -0.275677
6.77 -0.281055
6.78 -0.285561
6.79 -0.289217
6.8 -0.292048
6.81 -0.294078
6.82 -0.295262
6.83 -0.295709
6.84 -0.295438
6.85 -0.294457
6.86 -0.292762
6.87 -0.290338
6.88 -0.287107
6.89 -0.283024
6.9 -0.278071
6.91 -0.272181
6.92 -0.265277
6.93 -0.257275
6.94 -0.24809
6.95 -0.237487
6.96 -0.22552
6.97 -0.212129
6.98 -0.197259
6.99 -0.180877
7 -0.162966
7.01 -0.143458
7.02 -0.122368
7.03 -0.0998595
7.04 -0.0760179
7.05 -0.0509531
7.06 -0.0247962
7.07 0.0023032
7.08 0.0302413
7.09 0.0587508
7.1 0.0876352
7.11 0.116707
7.12 0.145779
7.13 0.174675
7.14 0.203205
7.15 0.231177
7.16 0.25849
7.17 0.285032
7.18 0.310713
7.19 0.335467
7.2 0.359246
7.21 0.381931
7.22 0.403582
7.23 0.424235
7.24 0.443913
7.25 0.462643
7.26 0.48046
7.27 0.497371
7.28 0.513354
7.29 0.528504
7.3 0.542825
7.31 0.556308
7.32 0.568924
7.33 0.580631
7.34 0.59128
7.35 0.600823
7.36 0.609197
7.37 0.616292
7.38 0.621986
7.39 0.626153
7.4 0.628636
7.41 0.629147
7.42 0.627738
7.43 0.624308
7.44 0.618772
7.45 0.611065
7.46 0.601149
7.47 0.588853
7.48 0.574253
7.49 0.557504
7.5 0.538689
7.51 0.517918
7.52 0.49533
7.53 0.471076
7.54 0.44521
7.55 0.418117
7.56 0.390016
7.57 0.361132
7.58 0.331697
7.59 0.301939
7.6 0.272092
7.61 0.242405
7.62 0.213081
7.63 0.184306
7.64 0.156247
7.65 0.129052
7.66 0.102847
7.67 0.0778723
7.68 0.0540997
7.69 0.0315845
7.7 0.0103692
7.71 -0.00952036
7.72 -0.0280727
7.73 -0.0452258
7.74 -0.0609658
7.75 -0.0754066
7.76 -0.0885757
7.77 -0.100504
7.78 -0.111226
7.79 -0.120777
7.8 -0.129081
7.81 -0.136273
7.82 -0.142408
7.83 -0.147519
7.84 -0.151643
7.85 -0.154814
7.86 -0.157038
7.87 -0.158319
7.88 -0.158773
7.89 -0.158443
7.9 -0.157377
7.91 -0.155625
7.92 -0.153242
7.93 -0.150238
7.94 -0.146715
7.95 -0.14275
7.96 -0.138404
7.97 -0.133738
7.98 -0.12881
7.99 -0.123673
8 -0.118374
8.01 -0.112977
8.02 -0.10752
8.03 -0.102036
8.04 -0.0965521
8.05 -0.091086
8.06 -0.0856535
8.07 -0.0802599
8.08 -0.0749043
8.09 -0.0695835
8.1 -0.0642921
8.11 -0.0590236
8.12 -0.0537727
8.13 -0.048537
8.14 -0.0433159
8.15 -0.0381155
8.16 -0.0329477
8.17 -0.0278306
8.18 -0.022789
8.19 -0.017864
8.2 -0.0130972
8.21 -0.00852621
8.22 -0.0041977
8.23 -0.000159979
8.24 0.0035387
8.25 0.00685066
8.26 0.00968235
8.27 0.0120446
8.28 0.0139118
8.29 0.0152684
8.3 0.0161103
8.31 0.0164452
8.32 0.016268
8.33 0.0156168
8.34 0.0145688
8.35 0.0131825
8.36 0.0115248
8.37 0.00966969
8.38 0.00769516
8.39 0.00568508
8.4 0.00372881
8.41 0.00189871
8.42 0.000258863
8.43 -0.00113724
8.44 -0.00224907
8.45 -0.00303645
8.46 -0.00348276
8.47 -0.00362319
8.48 -0.00348779
8.49 -0.00312337
8.5 -0.00259234
8.51 -0.00197093
8.52 -0.00135628
8.53 -0.000857
8.54 -0.00057577
8.55 -0.000616468
8.56 -0.00108049
8.57 -0.00206327
8.58 -0.00367432
8.59 -0.00602849
8.6 -0.00912848
8.61 -0.0130106
8.62 -0.0176921
8.63 -0.0231705
8.64 -0.0294235
8.65 -0.0364686
8.66 -0.0441945
8.67 -0.0525007
8.68 -0.0612962
8.69 -0.0704808
8.7 -0.0799482
8.71 -0.0895908
8.72 -0.0992923
8.73 -0.108937
8.74 -0.118432
8.75 -0.127697
8.76 -0.136663
8.77 -0.145279
8.78 -0.153477
8.79 -0.161251
8.8 -0.168618
8.81 -0.175594
8.82 -0.182208
8.83 -0.188499
8.84 -0.194511
8.85 -0.200285
8.86 -0.205902
8.87 -0.211415
8.88 -0.21687
8.89 -0.222308
8.9 -0.227757
8.91 -0.233236
8.92 -0.238747
8.93 -0.244274
8.94 -0.249788
8.95 -0.255247
8.96 -0.260598
8.97 -0.265777
8.98 -0.270678
8.99 -0.275246
9 -0.279406
9.01 -0.283086
9.02 -0.286218
9.03 -0.288745
9.04 -0.290587
9.05 -0.291702
9.06 -0.292123
9.07 -0.291856
9.08 -0.290926
9.09 -0.289375
9.1 -0.287261
9.11 -0.284613
9.12 -0.281574
9.13 -0.278243
9.14 -0.274721
9.15 -0.27111
9.16 -0.267507
9.17 -0.264015
9.18 -0.260734
9.19 -0.257723
9.2 -0.255032
9.21 -0.252697
9.22 -0.250733
9.23 -0.249137
9.24 -0.247916
9.25 -0.246996
9.26 -0.246309
9.27 -0.245784
9.28 -0.245337
9.29 -0.244879
9.3 -0.244313
9.31 -0.243524
9.32 -0.24244
9.33 -0.240986
9.34 -0.239101
9.35 -0.23674
9.36 -0.233872
9.37 -0.230445
9.38 -0.2265
9.39 -0.222088
9.4 -0.217259
9.41 -0.212081
9.42 -0.206634
9.43 -0.201009
9.44 -0.195309
9.45 -0.18965
9.46 -0.18413
9.47 -0.178841
9.48 -0.173862
9.49 -0.16926
9.5 -0.165119
9.51 -0.161457
9.52 -0.158257
9.53 -0.1555
9.54 -0.153143
9.55 -0.151121
9.56 -0.149352
9.57 -0.147733
9.58 -0.146119
9.59 -0.144378
9.6 -0.142374
9.61 -0.139965
9.62 -0.137015
9.63 -0.133344
9.64 -0.128818
9.65 -0.123374
9.66 -0.116928
9.67 -0.109416
9.68 -0.100797
9.69 -0.0910511
9.7 -0.0800579
9.71 -0.0679792
9.72 -0.0548716
9.73 -0.0408083
9.74 -0.0258791
9.75 -0.0101868
9.76 0.00618257
9.77 0.023099
9.78 0.040399
9.79 0.0579624
9.8 0.0756739
9.81 0.0934259
9.82 0.111121
9.83 0.12865
9.84 0.14595
9.85 0.162966
9.86 0.179657
9.87 0.195995
9.88 0.211963
9.89 0.227539
9.9 0.242711
9.91 0.257515
9.92 0.271963
9.93 0.286064
9.94 0.299827
9.95 0.313256
9.96 0.326315
9.97 0.339018
9.98 0.351352
9.99 0.363288
10 0.374789
10.01 0.385811
10.02 0.396285
10.03 0.406114
10.04 0.415287
10.05 0.423746
10.06 0.431436
10.07 0.438306
10.08 0.444315
10.09 0.449354
10.1 0.453445
10.11 0.456616
10.12 0.45888
10.13 0.460262
10.14 0.460805
10.15 0.460553
10.16 0.459528
10.17 0.457893
10.18 0.455742
10.19 0.453176
10.2 0.4503
10.21 0.44722
10.22 0.44404
10.23 0.440876
10.24 0.43782
10.25 0.434952
10.26 0.432335
10.27 0.430022
10.28 0.428049
10.29 0.426472
10.3 0.425249
10.31 0.424362
10.32 0.423776
10.33 0.423441
10.34 0.423297
10.35 0.423275
10.36 0.423283
10.37 0.423227
10.38 0.423022
10.39 0.422579
10.4 0.421813
10.41 0.420644
10.42 0.418936
10.43 0.41667
10.44 0.413795
10.45 0.410265
10.46 0.406047
10.47 0.401117
10.48 0.395424
10.49 0.38895
10.5 0.38175
10.51 0.373836
10.52 0.365227
10.53 0.355943
10.54 0.346009
10.55 0.335392
10.56 0.324176
10.57 0.312398
10.58 0.300084
10.59 0.28726
10.6 0.27395
10.61 0.260158
10.62 0.245892
10.63 0.231209
10.64 0.216129
10.65 0.200675
10.66 0.184869
10.67 0.168738
10.68 0.152284
10.69 0.135563
10.7 0.118618
10.71 0.10149
10.72 0.0842219
10.73 0.0668595
10.74 0.0494527
10.75 0.03206
10.76 0.0147371
10.77 -0.00246411
10.78 -0.019493
10.79 -0.0363019
10.8 -0.0528469
10.81 -0.0690623
10.82 -0.0849251
10.83 -0.100423
10.84 -0.11554
10.85 -0.130268
10.86 -0.144608
10.87 -0.158562
10.88 -0.172118
10.89 -0.185338
10.9 -0.198252
10.91 -0.210894
10.92 -0.223302
10.93 -0.235512
10.94 -0.247555
10.95 -0.259475
10.96 -0.27131
10.97 -0.283085
10.98 -0.294819
10.99 -0.306525
11 -0.318205
11.01 -0.329847
11.02 -0.341437
11.03 -0.352947
11.04 -0.364343
11.05 -0.375579
11.06 -0.386606
11.07 -0.397348
11.08 -0.407733
11.09 -0.417712
11.1 -0.427219
11.11 -0.436189
11.12 -0.444557
11.13 -0.452262
11.14 -0.459165
11.15 -0.465285
11.16 -0.470584
11.17 -0.47503
11.18 -0.478594
11.19 -0.48126
11.2 -0.482973
11.21 -0.483711
11.22 -0.483544
11.23 -0.482487
11.24 -0.480558
11.25 -0.477782
11.26 -0.474188
11.27 -0.469732
11.28 -0.464518
11.29 -0.458594
11.3 -0.451997
11.31 -0.444763
11.32 -0.436926
11.33 -0.428501
11.34 -0.419498
11.35 -0.409993
11.36 -0.400013
11.37 -0.389581
11.38 -0.378722
11.39 -0.367456
11.4 -0.355769
11.41 -0.343704
11.42 -0.33129
11.43 -0.318542
11.44 -0.305477
11.45 -0.292111
11.46 -0.278454
11.47 -0.26451
11.48 -0.250322
11.49 -0.235913
11.5 -0.221304
11.51 -0.206521
11.52 -0.19159
11.53 -0.176535
11.54 -0.161395
11.55 -0.14621
11.56 -0.131019
11.57 -0.115861
11.58 -0.100778
11.59 -0.0858183
11.6 -0.0710506
11.61 -0.0565112
11.62 -0.0422515
11.63 -0.0283239
11.64 -0.0147814
11.65 -0.00167702
11.66 0.0109013
11.67 0.0229035
11.68 0.0343077
11.69 0.0450704
11.7 0.055153
11.71 0.0645222
11.72 0.0731497
11.73 0.080929
11.74 0.087937
11.75 0.0941737
11.76 0.0996484
11.77 0.10438
11.78 0.108396
11.79 0.1117
11.8 0.114341
11.81 0.116416
11.82 0.117988
11.83 0.119123
11.84 0.119892
11.85 0.120367
11.86 0.120602
11.87 0.120697
11.88 0.120715
11.89 0.120715
11.9 0.120744
11.91 0.120841
11.92 0.121036
11.93 0.121347
11.94 0.121762
11.95 0.122264
11.96 0.122821
11.97 0.123388
11.98 0.123907
11.99 0.12429
12 0.124457
12.01 0.124323
12.02 0.123795
12.03 0.122779
12.04 0.121181
12.05 0.118884
12.06 0.115754
12.07 0.111775
12.08 0.106881
12.09 0.101023
12.1 0.0941649
12.11 0.0862845
12.12 0.0772904
12.13 0.0672548
12.14 0.0562421
12.15 0.0443001
12.16 0.031491
12.17 0.0178896
