# xPDFsuite Configuration #
[PDF]
wavelength = 0.1
dataformat = QA
inputfile = BiMsol6_insitu_700 C-00505.xy
backgroundfile = Quartz2mm-dist500-00000.xy
mode = xray
bgscale = 0.0042
composition = Bi2Fe4O9
outputtype = gr
qmaxinst = 24.998449118
qmin = 0.1
qmax = 21.4986662415
rmax = 80.0
rmin = 0.0
rstep = 0.01
rpoly = 0.9

[Misc]
inputdir = C:/Data/Seafile/CPH/Beamtime/Desy Oct 20/In situ data/Processed/BiMsol6/PDF
savedir = C:/Data/Seafile/CPH/Beamtime/Desy Oct 20/In situ data/PDF/BiMsol6
backgroundfilefull = C:/Data/Seafile/CPH/Beamtime/Desy Oct 20/In situ data/Processed/Standard_Empty_Cap/Quartz2mm-dist500-00000.xy

#### start data
#S 1
#L r($\AA$)  G($\AA^{-2}$)
0 0
0.01 0.00601741
0.02 0.0116938
0.03 0.0167373
0.04 0.0208859
0.05 0.0239197
0.06 0.0256711
0.07 0.0259564
0.08 0.0247219
0.09 0.0221025
0.1 0.0182088
0.11 0.0132128
0.12 0.00734017
0.13 0.000860358
0.14 -0.00592403
0.15 -0.0126313
0.16 -0.0189393
0.17 -0.0245459
0.18 -0.0291801
0.19 -0.0326153
0.2 -0.0346187
0.21 -0.0350312
0.22 -0.0339449
0.23 -0.0314219
0.24 -0.0275985
0.25 -0.0226801
0.26 -0.016934
0.27 -0.0106647
0.28 -0.00431043
0.29 0.00173821
0.3 0.00710188
0.31 0.0114197
0.32 0.0143672
0.33 0.0156153
0.34 0.0148421
0.35 0.0120964
0.36 0.00737491
0.37 0.000773322
0.38 -0.00751236
0.39 -0.0171884
0.4 -0.0279142
0.41 -0.0391019
0.42 -0.0501741
0.43 -0.0605428
0.44 -0.0695988
0.45 -0.0767345
0.46 -0.0813061
0.47 -0.0824835
0.48 -0.0800823
0.49 -0.073762
0.5 -0.0632982
0.51 -0.0485957
0.52 -0.029699
0.53 -0.00653105
0.54 0.0203893
0.55 0.050374
0.56 0.0827848
0.57 0.116873
0.58 0.1518
0.59 0.186649
0.6 0.220255
0.61 0.251689
0.62 0.280021
0.63 0.304376
0.64 0.323965
0.65 0.338105
0.66 0.345851
0.67 0.346806
0.68 0.34112
0.69 0.328782
0.7 0.309956
0.71 0.28498
0.72 0.254354
0.73 0.218247
0.74 0.178096
0.75 0.134825
0.76 0.0894162
0.77 0.042896
0.78 -0.00369841
0.79 -0.0492487
0.8 -0.092619
0.81 -0.133016
0.82 -0.169682
0.83 -0.201987
0.84 -0.229446
0.85 -0.251729
0.86 -0.268113
0.87 -0.279101
0.88 -0.284959
0.89 -0.286021
0.9 -0.282749
0.91 -0.275712
0.92 -0.265476
0.93 -0.252774
0.94 -0.238596
0.95 -0.223701
0.96 -0.208825
0.97 -0.194655
0.98 -0.181811
0.99 -0.171039
1 -0.162677
1.01 -0.156965
1.02 -0.154076
1.03 -0.154064
1.04 -0.156868
1.05 -0.16239
1.06 -0.17047
1.07 -0.180517
1.08 -0.192117
1.09 -0.204817
1.1 -0.218144
1.11 -0.23163
1.12 -0.244762
1.13 -0.257094
1.14 -0.26829
1.15 -0.278069
1.16 -0.286223
1.17 -0.292623
1.18 -0.297189
1.19 -0.299816
1.2 -0.300805
1.21 -0.300337
1.22 -0.298643
1.23 -0.295992
1.24 -0.292674
1.25 -0.288988
1.26 -0.285274
1.27 -0.281815
1.28 -0.278843
1.29 -0.276545
1.3 -0.275056
1.31 -0.274457
1.32 -0.274856
1.33 -0.276095
1.34 -0.278063
1.35 -0.2806
1.36 -0.283511
1.37 -0.286568
1.38 -0.28951
1.39 -0.292054
1.4 -0.293976
1.41 -0.295067
1.42 -0.295157
1.43 -0.294115
1.44 -0.291866
1.45 -0.288256
1.46 -0.28347
1.47 -0.277625
1.48 -0.270888
1.49 -0.263472
1.5 -0.25563
1.51 -0.247653
1.52 -0.239887
1.53 -0.232643
1.54 -0.226209
1.55 -0.220851
1.56 -0.216797
1.57 -0.214226
1.58 -0.21343
1.59 -0.214326
1.6 -0.216863
1.61 -0.220943
1.62 -0.226404
1.63 -0.233022
1.64 -0.240536
1.65 -0.248594
1.66 -0.256763
1.67 -0.264658
1.68 -0.271893
1.69 -0.278092
1.7 -0.282903
1.71 -0.285836
1.72 -0.286714
1.73 -0.285398
1.74 -0.281775
1.75 -0.275802
1.76 -0.267515
1.77 -0.256973
1.78 -0.244257
1.79 -0.229827
1.8 -0.214001
1.81 -0.197135
1.82 -0.179614
1.83 -0.161839
1.84 -0.144255
1.85 -0.127292
1.86 -0.111292
1.87 -0.0965649
1.88 -0.0833647
1.89 -0.071886
1.9 -0.0622848
1.91 -0.0547841
1.92 -0.0491612
1.93 -0.045318
1.94 -0.0430959
1.95 -0.0422834
1.96 -0.0426263
1.97 -0.0438764
1.98 -0.0456676
1.99 -0.0476507
2 -0.0495291
2.01 -0.0510309
2.02 -0.0519201
2.03 -0.0520032
2.04 -0.051032
2.05 -0.0490437
2.06 -0.046044
2.07 -0.0421032
2.08 -0.0373526
2.09 -0.0319805
2.1 -0.0262196
2.11 -0.0203959
2.12 -0.0148437
2.13 -0.00988987
2.14 -0.00586218
2.15 -0.00307618
2.16 -0.0018228
2.17 -0.00257549
2.18 -0.00536954
2.19 -0.0103267
2.2 -0.0175188
2.21 -0.0269505
2.22 -0.0385582
2.23 -0.052295
2.24 -0.0679778
2.25 -0.0851961
2.26 -0.103638
2.27 -0.122955
2.28 -0.142773
2.29 -0.162708
2.3 -0.182308
2.31 -0.201184
2.32 -0.219003
2.33 -0.235462
2.34 -0.250307
2.35 -0.263339
2.36 -0.274348
2.37 -0.283158
2.38 -0.289936
2.39 -0.294751
2.4 -0.297726
2.41 -0.299037
2.42 -0.298905
2.43 -0.297506
2.44 -0.295226
2.45 -0.292396
2.46 -0.289313
2.47 -0.286264
2.48 -0.283516
2.49 -0.281327
2.5 -0.279972
2.51 -0.279548
2.52 -0.280158
2.53 -0.281856
2.54 -0.284649
2.55 -0.288498
2.56 -0.293387
2.57 -0.299139
2.58 -0.305557
2.59 -0.312459
2.6 -0.31965
2.61 -0.326929
2.62 -0.334091
2.63 -0.340897
2.64 -0.347192
2.65 -0.352831
2.66 -0.357694
2.67 -0.361694
2.68 -0.364777
2.69 -0.366859
2.7 -0.367969
2.71 -0.368203
2.72 -0.367633
2.73 -0.366351
2.74 -0.364466
2.75 -0.362095
2.76 -0.359335
2.77 -0.356359
2.78 -0.353279
2.79 -0.350196
2.8 -0.347195
2.81 -0.344342
2.82 -0.341694
2.83 -0.339278
2.84 -0.337079
2.85 -0.335075
2.86 -0.333228
2.87 -0.331483
2.88 -0.329776
2.89 -0.328023
2.9 -0.326146
2.91 -0.324069
2.92 -0.321723
2.93 -0.319046
2.94 -0.315986
2.95 -0.312483
2.96 -0.308492
2.97 -0.304032
2.98 -0.299103
2.99 -0.293712
3 -0.287875
3.01 -0.281611
3.02 -0.274906
3.03 -0.267809
3.04 -0.260342
3.05 -0.252506
3.06 -0.244292
3.07 -0.235679
3.08 -0.22661
3.09 -0.216998
3.1 -0.206807
3.11 -0.195951
3.12 -0.184331
3.13 -0.171843
3.14 -0.158376
3.15 -0.14372
3.16 -0.127814
3.17 -0.110605
3.18 -0.0920173
3.19 -0.0719978
3.2 -0.0505187
3.21 -0.0275517
3.22 -0.00303118
3.23 0.0228259
3.24 0.0499078
3.25 0.0780685
3.26 0.107129
3.27 0.13688
3.28 0.167101
3.29 0.19748
3.3 0.227723
3.31 0.257543
3.32 0.28665
3.33 0.314762
3.34 0.341588
3.35 0.366693
3.36 0.389992
3.37 0.411286
3.38 0.430408
3.39 0.447229
3.4 0.461655
3.41 0.473478
3.42 0.482704
3.43 0.4895
3.44 0.493928
3.45 0.496085
3.46 0.496093
3.47 0.494094
3.48 0.490059
3.49 0.484389
3.5 0.477269
3.51 0.468881
3.52 0.459406
3.53 0.449017
3.54 0.437846
3.55 0.426057
3.56 0.413828
3.57 0.401277
3.58 0.388505
3.59 0.375599
3.6 0.362632
3.61 0.349674
3.62 0.336781
3.63 0.323998
3.64 0.311365
3.65 0.298922
3.66 0.286711
3.67 0.274789
3.68 0.263224
3.69 0.25205
3.7 0.241331
3.71 0.231134
3.72 0.221535
3.73 0.212613
3.74 0.20453
3.75 0.197328
3.76 0.19107
3.77 0.185835
3.78 0.181698
3.79 0.178723
3.8 0.177002
3.81 0.176655
3.82 0.177599
3.83 0.179846
3.84 0.183389
3.85 0.188209
3.86 0.194271
3.87 0.201618
3.88 0.210122
3.89 0.219666
3.9 0.230164
3.91 0.241526
3.92 0.253654
3.93 0.266459
3.94 0.279873
3.95 0.293733
3.96 0.307941
3.97 0.322402
3.98 0.337028
3.99 0.351731
4 0.366424
4.01 0.381018
4.02 0.395441
4.03 0.40962
4.04 0.423484
4.05 0.436963
4.06 0.449982
4.07 0.462405
4.08 0.474207
4.09 0.48531
4.1 0.495632
4.11 0.50509
4.12 0.513599
4.13 0.521005
4.14 0.527212
4.15 0.532199
4.16 0.535887
4.17 0.538205
4.18 0.539091
4.19 0.538492
4.2 0.536192
4.21 0.532331
4.22 0.526908
4.23 0.519931
4.24 0.511424
4.25 0.501426
4.26 0.489927
4.27 0.476982
4.28 0.462771
4.29 0.44739
4.3 0.430938
4.31 0.413521
4.32 0.395248
4.33 0.376158
4.34 0.35643
4.35 0.33617
4.36 0.315463
4.37 0.294386
4.38 0.273003
4.39 0.251359
4.4 0.229487
4.41 0.207435
4.42 0.185217
4.43 0.162839
4.44 0.140303
4.45 0.117605
4.46 0.0947251
4.47 0.0716704
4.48 0.0484477
4.49 0.0250663
4.5 0.00154545
4.51 -0.0220846
4.52 -0.0457811
4.53 -0.0694787
4.54 -0.0930984
4.55 -0.116553
4.56 -0.139745
4.57 -0.162566
4.58 -0.1849
4.59 -0.206567
4.6 -0.227456
4.61 -0.247472
4.62 -0.266501
4.63 -0.284441
4.64 -0.301203
4.65 -0.316692
4.66 -0.330738
4.67 -0.343441
4.68 -0.354793
4.69 -0.364811
4.7 -0.373534
4.71 -0.381022
4.72 -0.387281
4.73 -0.392448
4.74 -0.396694
4.75 -0.400144
4.76 -0.402929
4.77 -0.405184
4.78 -0.40704
4.79 -0.408611
4.8 -0.410055
4.81 -0.411476
4.82 -0.412962
4.83 -0.414586
4.84 -0.4164
4.85 -0.418451
4.86 -0.420755
4.87 -0.423287
4.88 -0.426022
4.89 -0.428918
4.9 -0.431923
4.91 -0.434973
4.92 -0.437985
4.93 -0.440881
4.94 -0.443587
4.95 -0.446029
4.96 -0.448142
4.97 -0.449865
4.98 -0.451128
4.99 -0.451873
5 -0.452108
5.01 -0.451818
5.02 -0.450998
5.03 -0.449656
5.04 -0.447804
5.05 -0.445418
5.06 -0.442567
5.07 -0.439287
5.08 -0.435606
5.09 -0.431551
5.1 -0.427145
5.11 -0.422392
5.12 -0.417292
5.13 -0.411872
5.14 -0.406129
5.15 -0.400052
5.16 -0.393625
5.17 -0.386825
5.18 -0.379593
5.19 -0.371923
5.2 -0.363803
5.21 -0.355215
5.22 -0.346142
5.23 -0.336581
5.24 -0.32652
5.25 -0.315946
5.26 -0.304932
5.27 -0.293517
5.28 -0.281756
5.29 -0.269711
5.3 -0.257458
5.31 -0.245076
5.32 -0.232673
5.33 -0.220349
5.34 -0.208199
5.35 -0.196317
5.36 -0.184795
5.37 -0.173721
5.38 -0.163226
5.39 -0.153321
5.4 -0.144052
5.41 -0.135451
5.42 -0.127536
5.43 -0.120308
5.44 -0.113798
5.45 -0.107964
5.46 -0.102732
5.47 -0.0980509
5.48 -0.0938647
5.49 -0.0901115
5.5 -0.0867285
5.51 -0.0836797
5.52 -0.0808651
5.53 -0.0782314
5.54 -0.0757324
5.55 -0.0733306
5.56 -0.0709979
5.57 -0.0687183
5.58 -0.0664834
5.59 -0.0642923
5.6 -0.0621545
5.61 -0.0600848
5.62 -0.0581011
5.63 -0.0562229
5.64 -0.0544831
5.65 -0.0528843
5.66 -0.0514319
5.67 -0.0501242
5.68 -0.0489494
5.69 -0.047885
5.7 -0.046898
5.71 -0.0459352
5.72 -0.0449317
5.73 -0.0438188
5.74 -0.0425198
5.75 -0.0409532
5.76 -0.0390348
5.77 -0.0366307
5.78 -0.033687
5.79 -0.0301421
5.8 -0.0259369
5.81 -0.0210259
5.82 -0.01538
5.83 -0.00896376
5.84 -0.0017525
5.85 0.00615639
5.86 0.0147081
5.87 0.0238288
5.88 0.0334269
5.89 0.0433961
5.9 0.0536282
5.91 0.0639649
5.92 0.0742663
5.93 0.0844003
5.94 0.0942398
5.95 0.103666
5.96 0.112561
5.97 0.12078
5.98 0.12831
5.99 0.13511
6 0.14116
6.01 0.146464
6.02 0.151051
6.03 0.154926
6.04 0.158195
6.05 0.160977
6.06 0.163376
6.07 0.165507
6.08 0.167486
6.09 0.169431
6.1 0.171475
6.11 0.173718
6.12 0.176243
6.13 0.179117
6.14 0.182381
6.15 0.186058
6.16 0.190165
6.17 0.194659
6.18 0.199455
6.19 0.20447
6.2 0.209596
6.21 0.21471
6.22 0.219675
6.23 0.224291
6.24 0.228428
6.25 0.231936
6.26 0.234671
6.27 0.2365
6.28 0.237307
6.29 0.23693
6.3 0.235271
6.31 0.232361
6.32 0.228182
6.33 0.222743
6.34 0.216082
6.35 0.208259
6.36 0.199256
6.37 0.189296
6.38 0.178516
6.39 0.167055
6.4 0.155058
6.41 0.142675
6.42 0.130049
6.43 0.11734
6.44 0.104695
6.45 0.0922285
6.46 0.0800419
6.47 0.0682168
6.48 0.0568152
6.49 0.0459248
6.5 0.035532
6.51 0.0256231
6.52 0.0161774
6.53 0.00715914
6.54 -0.00148004
6.55 -0.00979018
6.56 -0.0178301
6.57 -0.0256938
6.58 -0.0334469
6.59 -0.0411507
6.6 -0.0488593
6.61 -0.0566173
6.62 -0.0644664
6.63 -0.0724228
6.64 -0.0804862
6.65 -0.0886451
6.66 -0.0968746
6.67 -0.105137
6.68 -0.113382
6.69 -0.121537
6.7 -0.129535
6.71 -0.137306
6.72 -0.144773
6.73 -0.151862
6.74 -0.1585
6.75 -0.164575
6.76 -0.17003
6.77 -0.174834
6.78 -0.178942
6.79 -0.182316
6.8 -0.184927
6.81 -0.186749
6.82 -0.187688
6.83 -0.187828
6.84 -0.18717
6.85 -0.185721
6.86 -0.183492
6.87 -0.180492
6.88 -0.17669
6.89 -0.172101
6.9 -0.166776
6.91 -0.160722
6.92 -0.153943
6.93 -0.146438
6.94 -0.138207
6.95 -0.129162
6.96 -0.119376
6.97 -0.108847
6.98 -0.0975711
6.99 -0.0855446
7 -0.0727692
7.01 -0.0592143
7.02 -0.0448825
7.03 -0.029844
7.04 -0.0141274
7.05 0.00223068
7.06 0.0191853
7.07 0.0366833
7.08 0.0547067
7.09 0.0731359
7.1 0.091889
7.11 0.110886
7.12 0.130044
7.13 0.149277
7.14 0.168497
7.15 0.187603
7.16 0.206517
7.17 0.22516
7.18 0.243462
7.19 0.261353
7.2 0.278774
7.21 0.295614
7.22 0.311857
7.23 0.327471
7.24 0.342418
7.25 0.356665
7.26 0.370178
7.27 0.382906
7.28 0.394765
7.29 0.405794
7.3 0.415959
7.31 0.425224
7.32 0.43355
7.33 0.440895
7.34 0.447125
7.35 0.45223
7.36 0.456194
7.37 0.458963
7.38 0.460482
7.39 0.460698
7.4 0.459535
7.41 0.456825
7.42 0.452667
7.43 0.44703
7.44 0.439893
7.45 0.431249
7.46 0.421102
7.47 0.409368
7.48 0.396121
7.49 0.381482
7.5 0.365516
7.51 0.348305
7.52 0.32994
7.53 0.310524
7.54 0.290088
7.55 0.268876
7.56 0.247021
7.57 0.224661
7.58 0.201939
7.59 0.178995
7.6 0.155972
7.61 0.133029
7.62 0.110297
7.63 0.0878991
7.64 0.0659485
7.65 0.0445499
7.66 0.0237982
7.67 0.00386793
7.68 -0.0152394
7.69 -0.0334662
7.7 -0.050761
7.71 -0.0670812
7.72 -0.0823927
7.73 -0.0966189
7.74 -0.109716
7.75 -0.121745
7.76 -0.132699
7.77 -0.142578
7.78 -0.151386
7.79 -0.159129
7.8 -0.165716
7.81 -0.171252
7.82 -0.175776
7.83 -0.179311
7.84 -0.181886
7.85 -0.183533
7.86 -0.184261
7.87 -0.184079
7.88 -0.183106
7.89 -0.181396
7.9 -0.179005
7.91 -0.175994
7.92 -0.172427
7.93 -0.168334
7.94 -0.163822
7.95 -0.158975
7.96 -0.153862
7.97 -0.148551
7.98 -0.143108
7.99 -0.137593
8 -0.132071
8.01 -0.126597
8.02 -0.121212
8.03 -0.115955
8.04 -0.110854
8.05 -0.10593
8.06 -0.101214
8.07 -0.0967061
8.08 -0.092398
8.09 -0.088285
8.1 -0.0843581
8.11 -0.0806049
8.12 -0.0770138
8.13 -0.0735811
8.14 -0.0702771
8.15 -0.0670896
8.16 -0.0640093
8.17 -0.0610303
8.18 -0.0581499
8.19 -0.0553768
8.2 -0.0527156
8.21 -0.0501707
8.22 -0.0477543
8.23 -0.0454801
8.24 -0.0433628
8.25 -0.0414172
8.26 -0.0396774
8.27 -0.0381328
8.28 -0.0367879
8.29 -0.0356424
8.3 -0.0346895
8.31 -0.0339163
8.32 -0.0333101
8.33 -0.0328393
8.34 -0.032459
8.35 -0.0321283
8.36 -0.0318017
8.37 -0.0314301
8.38 -0.0309629
8.39 -0.0303278
8.4 -0.0294865
8.41 -0.0283962
8.42 -0.0270193
8.43 -0.025326
8.44 -0.0232959
8.45 -0.0209037
8.46 -0.0181442
8.47 -0.0150601
8.48 -0.0116815
8.49 -0.00805042
8.5 -0.00422005
8.51 -0.000253596
8.52 0.00377587
8.53 0.00777558
8.54 0.0116615
8.55 0.0153496
8.56 0.0187573
8.57 0.0218059
8.58 0.0244059
8.59 0.0264621
8.6 0.0279616
8.61 0.0288669
8.62 0.0291548
8.63 0.0288161
8.64 0.0278563
8.65 0.0262455
8.66 0.0240577
8.67 0.021359
8.68 0.0182075
8.69 0.014669
8.7 0.0108147
8.71 0.00671483
8.72 0.00244139
8.73 -0.00191345
8.74 -0.00628438
8.75 -0.0106137
8.76 -0.0148532
8.77 -0.0189654
8.78 -0.0229123
8.79 -0.0266866
8.8 -0.0302975
8.81 -0.0337599
8.82 -0.0370992
8.83 -0.0403501
8.84 -0.0435554
8.85 -0.0467694
8.86 -0.0500479
8.87 -0.0534427
8.88 -0.0570036
8.89 -0.0607762
8.9 -0.0647995
8.91 -0.0691245
8.92 -0.0737705
8.93 -0.078731
8.94 -0.0840029
8.95 -0.0895725
8.96 -0.0954152
8.97 -0.101497
8.98 -0.107793
8.99 -0.114226
9 -0.120739
9.01 -0.127278
9.02 -0.133784
9.03 -0.140202
9.04 -0.146472
9.05 -0.152541
9.06 -0.158381
9.07 -0.163966
9.08 -0.169277
9.09 -0.174308
9.1 -0.179057
9.11 -0.183508
9.12 -0.187708
9.13 -0.191684
9.14 -0.195465
9.15 -0.199083
9.16 -0.20257
9.17 -0.205953
9.18 -0.20926
9.19 -0.212517
9.2 -0.215737
9.21 -0.218925
9.22 -0.222076
9.23 -0.225177
9.24 -0.228196
9.25 -0.231102
9.26 -0.233858
9.27 -0.236417
9.28 -0.238731
9.29 -0.240748
9.3 -0.242406
9.31 -0.243629
9.32 -0.244405
9.33 -0.244699
9.34 -0.244486
9.35 -0.243749
9.36 -0.242482
9.37 -0.24065
9.38 -0.238301
9.39 -0.235482
9.4 -0.232235
9.41 -0.228608
9.42 -0.224655
9.43 -0.22043
9.44 -0.215985
9.45 -0.211401
9.46 -0.206732
9.47 -0.202024
9.48 -0.197312
9.49 -0.192622
9.5 -0.187969
9.51 -0.183349
9.52 -0.17874
9.53 -0.174109
9.54 -0.169408
9.55 -0.16458
9.56 -0.159553
9.57 -0.154212
9.58 -0.148497
9.59 -0.142325
9.6 -0.135612
9.61 -0.128282
9.62 -0.120263
9.63 -0.111447
9.64 -0.10179
9.65 -0.0913058
9.66 -0.0799867
9.67 -0.0678412
9.68 -0.0548966
9.69 -0.0411975
9.7 -0.0267347
9.71 -0.0116734
9.72 0.00389245
9.73 0.0198608
9.74 0.0361229
9.75 0.0525669
9.76 0.0690784
9.77 0.0855326
9.78 0.101826
9.79 0.117868
9.8 0.13358
9.81 0.148898
9.82 0.163773
9.83 0.178118
9.84 0.19196
9.85 0.205306
9.86 0.218167
9.87 0.230569
9.88 0.242544
9.89 0.254118
9.9 0.265326
9.91 0.276238
9.92 0.286892
9.93 0.297319
9.94 0.307539
9.95 0.317566
9.96 0.327375
9.97 0.336962
9.98 0.346297
9.99 0.355335
10 0.364017
10.01 0.372274
10.02 0.380013
10.03 0.387105
10.04 0.393513
10.05 0.399154
10.06 0.403953
10.07 0.407842
10.08 0.410767
10.09 0.412604
10.1 0.413379
10.11 0.413129
10.12 0.411879
10.13 0.409672
10.14 0.406573
10.15 0.402654
10.16 0.397973
10.17 0.39273
10.18 0.387054
10.19 0.381084
10.2 0.37496
10.21 0.368823
10.22 0.362826
10.23 0.357107
10.24 0.351769
10.25 0.346903
10.26 0.342584
10.27 0.33886
10.28 0.335764
10.29 0.333363
10.3 0.331562
10.31 0.330313
10.32 0.329549
10.33 0.329184
10.34 0.329118
10.35 0.329243
10.36 0.329421
10.37 0.32952
10.38 0.329417
10.39 0.328996
10.4 0.328149
10.41 0.326779
10.42 0.324729
10.43 0.321993
10.44 0.318531
10.45 0.314315
10.46 0.309337
10.47 0.303605
10.48 0.297108
10.49 0.289876
10.5 0.282011
10.51 0.273568
10.52 0.264611
10.53 0.255203
10.54 0.245407
10.55 0.235253
10.56 0.224826
10.57 0.214172
10.58 0.203322
10.59 0.192298
10.6 0.181107
10.61 0.169742
10.62 0.158182
10.63 0.146416
10.64 0.134417
10.65 0.122154
10.66 0.109591
10.67 0.0966967
10.68 0.0834064
10.69 0.0697184
10.7 0.0556292
10.71 0.0411359
10.72 0.0262471
10.73 0.0109838
10.74 -0.00462879
10.75 -0.0205563
10.76 -0.0367087
10.77 -0.0530171
10.78 -0.0694047
10.79 -0.0857896
10.8 -0.102087
10.81 -0.118192
10.82 -0.134021
10.83 -0.149505
10.84 -0.164581
10.85 -0.179192
10.86 -0.193299
10.87 -0.206864
10.88 -0.219829
10.89 -0.232255
10.9 -0.244164
10.91 -0.255589
10.92 -0.266576
10.93 -0.277182
10.94 -0.287451
10.95 -0.297467
10.96 -0.307313
10.97 -0.317052
10.98 -0.326744
10.99 -0.336439
11 -0.346176
11.01 -0.355987
11.02 -0.365875
11.03 -0.375828
11.04 -0.385818
11.05 -0.395804
11.06 -0.405725
11.07 -0.415495
11.08 -0.425017
11.09 -0.434202
11.1 -0.442949
11.11 -0.451155
11.12 -0.458717
11.13 -0.465537
11.14 -0.471423
11.15 -0.476376
11.16 -0.480337
11.17 -0.483258
11.18 -0.485106
11.19 -0.485869
11.2 -0.485499
11.21 -0.483997
11.22 -0.481481
11.23 -0.478004
11.24 -0.473633
11.25 -0.468443
11.26 -0.462516
11.27 -0.455878
11.28 -0.448677
11.29 -0.441002
11.3 -0.432926
11.31 -0.424511
11.32 -0.41581
11.33 -0.406853
11.34 -0.397657
11.35 -0.388247
11.36 -0.378618
11.37 -0.368748
11.38 -0.358607
11.39 -0.348155
11.4 -0.337308
11.41 -0.326031
11.42 -0.314282
11.43 -0.302013
11.44 -0.289179
11.45 -0.275747
11.46 -0.261678
11.47 -0.246918
11.48 -0.231535
11.49 -0.215553
11.5 -0.199014
11.51 -0.181975
11.52 -0.164508
11.53 -0.146682
11.54 -0.128623
11.55 -0.110453
11.56 -0.0922873
11.57 -0.0742447
11.58 -0.0564426
11.59 -0.0390011
11.6 -0.0220814
11.61 -0.00573885
11.62 0.00994537
11.63 0.0249047
11.64 0.039089
11.65 0.0524653
11.66 0.0649641
11.67 0.076603
11.68 0.087447
11.69 0.0975338
11.7 0.106914
11.71 0.115647
11.72 0.123801
11.73 0.131401
11.74 0.138586
11.75 0.145428
11.76 0.151997
11.77 0.158352
11.78 0.164545
11.79 0.170611
11.8 0.176579
11.81 0.182466
11.82 0.188269
11.83 0.193971
11.84 0.199544
11.85 0.204948
11.86 0.210104
11.87 0.21497
11.88 0.219484
11.89 0.223584
11.9 0.227204
11.91 0.230281
11.92 0.232731
11.93 0.234478
11.94 0.235526
11.95 0.235843
11.96 0.235411
11.97 0.234218
11.98 0.232264
11.99 0.229488
12 0.225966
12.01 0.22174
12.02 0.216841
12.03 0.211301
12.04 0.205156
12.05 0.198419
12.06 0.191098
12.07 0.183265
12.08 0.174939
12.09 0.166133
12.1 0.156851
12.11 0.14709
12.12 0.136798
12.13 0.125983
12.14 0.114639
