# xPDFsuite Configuration #
[PDF]
wavelength = 0.1
dataformat = QA
inputfile = BiMsol6_insitu_700 C-00577.xy
backgroundfile = Quartz2mm-dist500-00000.xy
mode = xray
bgscale = 0.0042
composition = Bi2Fe4O9
outputtype = gr
qmaxinst = 24.998449118
qmin = 0.1
qmax = 21.4986662415
rmax = 80.0
rmin = 0.0
rstep = 0.01
rpoly = 0.9

[Misc]
inputdir = C:/Data/Seafile/CPH/Beamtime/Desy Oct 20/In situ data/Processed/BiMsol6/PDF
savedir = C:/Data/Seafile/CPH/Beamtime/Desy Oct 20/In situ data/PDF/BiMsol6
backgroundfilefull = C:/Data/Seafile/CPH/Beamtime/Desy Oct 20/In situ data/Processed/Standard_Empty_Cap/Quartz2mm-dist500-00000.xy

#### start data
#S 1
#L r($\AA$)  G($\AA^{-2}$)
0 0
0.01 0.00604885
0.02 0.0117548
0.03 0.0168245
0.04 0.0209945
0.05 0.0240437
0.06 0.0258035
0.07 0.0260894
0.08 0.0248475
0.09 0.0222132
0.1 0.018298
0.11 0.0132747
0.12 0.00737016
0.13 0.000855305
0.14 -0.00596568
0.15 -0.0127091
0.16 -0.0190512
0.17 -0.0246884
0.18 -0.0293482
0.19 -0.032803
0.2 -0.0348187
0.21 -0.0352356
0.22 -0.0341461
0.23 -0.0316125
0.24 -0.0277715
0.25 -0.0228295
0.26 -0.0170546
0.27 -0.0107522
0.28 -0.00436224
0.29 0.0017235
0.3 0.00712453
0.31 0.011479
0.32 0.0144615
0.33 0.0157426
0.34 0.0149996
0.35 0.0122815
0.36 0.00758528
0.37 0.00100696
0.38 -0.00725703
0.39 -0.0169125
0.4 -0.0276183
0.41 -0.0387865
0.42 -0.0498394
0.43 -0.0601895
0.44 -0.0692284
0.45 -0.0763496
0.46 -0.0809113
0.47 -0.0820864
0.48 -0.0796928
0.49 -0.0733936
0.5 -0.0629676
0.51 -0.0483238
0.52 -0.0295101
0.53 -0.00645592
0.54 0.020317
0.55 0.0501191
0.56 0.08231
0.57 0.11614
0.58 0.15077
0.59 0.185284
0.6 0.218517
0.61 0.249549
0.62 0.277453
0.63 0.301365
0.64 0.3205
0.65 0.334187
0.66 0.341493
0.67 0.342032
0.68 0.335967
0.69 0.323296
0.7 0.304195
0.71 0.279013
0.72 0.248258
0.73 0.212118
0.74 0.172025
0.75 0.128908
0.76 0.0837507
0.77 0.0375775
0.78 -0.00857752
0.79 -0.0535979
0.8 -0.0963563
0.81 -0.136076
0.82 -0.172011
0.83 -0.203547
0.84 -0.230212
0.85 -0.251693
0.86 -0.267287
0.87 -0.277512
0.88 -0.282649
0.89 -0.283046
0.9 -0.279178
0.91 -0.271624
0.92 -0.260961
0.93 -0.247933
0.94 -0.233525
0.95 -0.218497
0.96 -0.203581
0.97 -0.18946
0.98 -0.176746
0.99 -0.166182
1 -0.158089
1.01 -0.152694
1.02 -0.150156
1.03 -0.150515
1.04 -0.1537
1.05 -0.159598
1.06 -0.168036
1.07 -0.178413
1.08 -0.190306
1.09 -0.203256
1.1 -0.216786
1.11 -0.230423
1.12 -0.243651
1.13 -0.256026
1.14 -0.267215
1.15 -0.276943
1.16 -0.285005
1.17 -0.291278
1.18 -0.295687
1.19 -0.298132
1.2 -0.298923
1.21 -0.298245
1.22 -0.296335
1.23 -0.293465
1.24 -0.289929
1.25 -0.286026
1.26 -0.282101
1.27 -0.278434
1.28 -0.275258
1.29 -0.27276
1.3 -0.271073
1.31 -0.270279
1.32 -0.270484
1.33 -0.271532
1.34 -0.273312
1.35 -0.275667
1.36 -0.278404
1.37 -0.281299
1.38 -0.284099
1.39 -0.286525
1.4 -0.288361
1.41 -0.289405
1.42 -0.289492
1.43 -0.288501
1.44 -0.28636
1.45 -0.282929
1.46 -0.278388
1.47 -0.272857
1.48 -0.266501
1.49 -0.259529
1.5 -0.252188
1.51 -0.24476
1.52 -0.237581
1.53 -0.230942
1.54 -0.225117
1.55 -0.22035
1.56 -0.216851
1.57 -0.214779
1.58 -0.214396
1.59 -0.215603
1.6 -0.218333
1.61 -0.222474
1.62 -0.227851
1.63 -0.234231
1.64 -0.241342
1.65 -0.248827
1.66 -0.25627
1.67 -0.2633
1.68 -0.269543
1.69 -0.274646
1.7 -0.278279
1.71 -0.27998
1.72 -0.279608
1.73 -0.27706
1.74 -0.272255
1.75 -0.265184
1.76 -0.255914
1.77 -0.244538
1.78 -0.231176
1.79 -0.216297
1.8 -0.200229
1.81 -0.18334
1.82 -0.166015
1.83 -0.148651
1.84 -0.131696
1.85 -0.115549
1.86 -0.100518
1.87 -0.0868818
1.88 -0.074858
1.89 -0.0646018
1.9 -0.0562266
1.91 -0.0499039
1.92 -0.0453693
1.93 -0.0424848
1.94 -0.0410553
1.95 -0.0408378
1.96 -0.0415521
1.97 -0.0429137
1.98 -0.0445495
1.99 -0.0461214
2 -0.0473406
2.01 -0.0479512
2.02 -0.0477413
2.03 -0.0465487
2.04 -0.0441542
2.05 -0.0406594
2.06 -0.0361198
2.07 -0.0306575
2.08 -0.0244574
2.09 -0.0177603
2.1 -0.0108618
2.11 -0.00414194
2.12 0.00203648
2.13 0.00731382
2.14 0.0113378
2.15 0.0137772
2.16 0.0143348
2.17 0.0125045
2.18 0.0083031
2.19 0.00163708
2.2 -0.00753091
2.21 -0.0191632
2.22 -0.0331472
2.23 -0.0493841
2.24 -0.0676254
2.25 -0.0873919
2.26 -0.108311
2.27 -0.129975
2.28 -0.151956
2.29 -0.173817
2.3 -0.195034
2.31 -0.215202
2.32 -0.233966
2.33 -0.25101
2.34 -0.266075
2.35 -0.278967
2.36 -0.289479
2.37 -0.297451
2.38 -0.303114
2.39 -0.306578
2.4 -0.308016
2.41 -0.307656
2.42 -0.305776
2.43 -0.302611
2.44 -0.298614
2.45 -0.294168
2.46 -0.289621
2.47 -0.285302
2.48 -0.281516
2.49 -0.278556
2.5 -0.276742
2.51 -0.276152
2.52 -0.276888
2.53 -0.278997
2.54 -0.282468
2.55 -0.287234
2.56 -0.293257
2.57 -0.300309
2.58 -0.308137
2.59 -0.316513
2.6 -0.32519
2.61 -0.333917
2.62 -0.342441
2.63 -0.350457
2.64 -0.357783
2.65 -0.364237
2.66 -0.369676
2.67 -0.373992
2.68 -0.377118
2.69 -0.378952
2.7 -0.379533
2.71 -0.378987
2.72 -0.37741
2.73 -0.374924
2.74 -0.371675
2.75 -0.367821
2.76 -0.3635
2.77 -0.358946
2.78 -0.354321
2.79 -0.349772
2.8 -0.34543
2.81 -0.341404
2.82 -0.337804
2.83 -0.334695
2.84 -0.332074
2.85 -0.329939
2.86 -0.328261
2.87 -0.32699
2.88 -0.32606
2.89 -0.325404
2.9 -0.324894
2.91 -0.324428
2.92 -0.323906
2.93 -0.32323
2.94 -0.322309
2.95 -0.321045
2.96 -0.319347
2.97 -0.317183
2.98 -0.314512
2.99 -0.311301
3 -0.307529
3.01 -0.303182
3.02 -0.298194
3.03 -0.292605
3.04 -0.286418
3.05 -0.279623
3.06 -0.272203
3.07 -0.264131
3.08 -0.255347
3.09 -0.245756
3.1 -0.235355
3.11 -0.224071
3.12 -0.211824
3.13 -0.198526
3.14 -0.184087
3.15 -0.168306
3.16 -0.151156
3.17 -0.132603
3.18 -0.112593
3.19 -0.0910897
3.2 -0.0680794
3.21 -0.0435463
3.22 -0.0174351
3.23 0.0100265
3.24 0.0387212
3.25 0.0684991
3.26 0.0991795
3.27 0.130553
3.28 0.162397
3.29 0.194405
3.3 0.226281
3.31 0.257739
3.32 0.288493
3.33 0.318255
3.34 0.346736
3.35 0.373496
3.36 0.398443
3.37 0.42137
3.38 0.442102
3.39 0.460496
3.4 0.476447
3.41 0.489724
3.42 0.500318
3.43 0.508379
3.44 0.513954
3.45 0.517118
3.46 0.517976
3.47 0.516654
3.48 0.513078
3.49 0.507658
3.5 0.500564
3.51 0.491967
3.52 0.482039
3.53 0.470946
3.54 0.458803
3.55 0.445769
3.56 0.432041
3.57 0.417742
3.58 0.402981
3.59 0.387856
3.6 0.372451
3.61 0.356832
3.62 0.341093
3.63 0.325301
3.64 0.309516
3.65 0.293802
3.66 0.278223
3.67 0.262859
3.68 0.247804
3.69 0.233124
3.7 0.218908
3.71 0.20525
3.72 0.192252
3.73 0.180019
3.74 0.168753
3.75 0.158513
3.76 0.149388
3.77 0.14148
3.78 0.134885
3.79 0.129691
3.8 0.126018
3.81 0.124024
3.82 0.123622
3.83 0.124836
3.84 0.127676
3.85 0.13213
3.86 0.138172
3.87 0.14588
3.88 0.15511
3.89 0.165731
3.9 0.177652
3.91 0.190773
3.92 0.204986
3.93 0.22019
3.94 0.236321
3.95 0.253161
3.96 0.270589
3.97 0.288484
3.98 0.306727
3.99 0.325202
4 0.343797
4.01 0.362384
4.02 0.380854
4.03 0.399106
4.04 0.41704
4.05 0.434559
4.06 0.451564
4.07 0.467886
4.08 0.483491
4.09 0.498287
4.1 0.51218
4.11 0.525079
4.12 0.536896
4.13 0.547466
4.14 0.556698
4.15 0.564581
4.16 0.571043
4.17 0.57602
4.18 0.579458
4.19 0.581312
4.2 0.581364
4.21 0.579773
4.22 0.576541
4.23 0.571679
4.24 0.565211
4.25 0.557177
4.26 0.547553
4.27 0.536384
4.28 0.523847
4.29 0.510021
4.3 0.494991
4.31 0.478845
4.32 0.461673
4.33 0.443474
4.34 0.424422
4.35 0.404608
4.36 0.384101
4.37 0.362963
4.38 0.341247
4.39 0.318978
4.4 0.296177
4.41 0.272913
4.42 0.249206
4.43 0.225076
4.44 0.200537
4.45 0.175606
4.46 0.150272
4.47 0.124585
4.48 0.0985914
4.49 0.0723331
4.5 0.045865
4.51 0.019254
4.52 -0.00741974
4.53 -0.0340483
4.54 -0.0605203
4.55 -0.0867181
4.56 -0.112516
4.57 -0.137782
4.58 -0.162381
4.59 -0.186103
4.6 -0.208834
4.61 -0.230483
4.62 -0.250937
4.63 -0.270101
4.64 -0.287895
4.65 -0.304237
4.66 -0.318962
4.67 -0.332207
4.68 -0.34399
4.69 -0.354348
4.7 -0.363344
4.71 -0.371062
4.72 -0.377529
4.73 -0.382906
4.74 -0.387381
4.75 -0.391094
4.76 -0.394188
4.77 -0.396804
4.78 -0.399078
4.79 -0.401133
4.8 -0.403115
4.81 -0.405123
4.82 -0.407236
4.83 -0.409515
4.84 -0.412
4.85 -0.414725
4.86 -0.417687
4.87 -0.420847
4.88 -0.424167
4.89 -0.427591
4.9 -0.431056
4.91 -0.434487
4.92 -0.437785
4.93 -0.440876
4.94 -0.443682
4.95 -0.446132
4.96 -0.448162
4.97 -0.449718
4.98 -0.450732
4.99 -0.451157
5 -0.451015
5.01 -0.450303
5.02 -0.44903
5.03 -0.447215
5.04 -0.444884
5.05 -0.442025
5.06 -0.43872
5.07 -0.435016
5.08 -0.430948
5.09 -0.426551
5.1 -0.421854
5.11 -0.416869
5.12 -0.411601
5.13 -0.406075
5.14 -0.40029
5.15 -0.394233
5.16 -0.38789
5.17 -0.381237
5.18 -0.37422
5.19 -0.36683
5.2 -0.359056
5.21 -0.35088
5.22 -0.34229
5.23 -0.333285
5.24 -0.323865
5.25 -0.314028
5.26 -0.303849
5.27 -0.29338
5.28 -0.282682
5.29 -0.271833
5.3 -0.260917
5.31 -0.250039
5.32 -0.239314
5.33 -0.228844
5.34 -0.218733
5.35 -0.209083
5.36 -0.199987
5.37 -0.19154
5.38 -0.183885
5.39 -0.177007
5.4 -0.170944
5.41 -0.165714
5.42 -0.161315
5.43 -0.15773
5.44 -0.154971
5.45 -0.15296
5.46 -0.151587
5.47 -0.15077
5.48 -0.150415
5.49 -0.150425
5.5 -0.1507
5.51 -0.151146
5.52 -0.151641
5.53 -0.152097
5.54 -0.152436
5.55 -0.152593
5.56 -0.152513
5.57 -0.15214
5.58 -0.151446
5.59 -0.150438
5.6 -0.14912
5.61 -0.147505
5.62 -0.145617
5.63 -0.143483
5.64 -0.141115
5.65 -0.138567
5.66 -0.135871
5.67 -0.133048
5.68 -0.130112
5.69 -0.127069
5.7 -0.123905
5.71 -0.120595
5.72 -0.117113
5.73 -0.113414
5.74 -0.109443
5.75 -0.105137
5.76 -0.100425
5.77 -0.0951829
5.78 -0.0893654
5.79 -0.082914
5.8 -0.0757676
5.81 -0.0678753
5.82 -0.0591994
5.83 -0.0496911
5.84 -0.0393074
5.85 -0.0281368
5.86 -0.0162204
5.87 -0.00361895
5.88 0.00958714
5.89 0.0233
5.9 0.0374286
5.91 0.0518074
5.92 0.066287
5.93 0.0807251
5.94 0.0949787
5.95 0.108908
5.96 0.122368
5.97 0.135182
5.98 0.147293
5.99 0.158617
6 0.169093
6.01 0.178679
6.02 0.187356
6.03 0.195063
6.04 0.201864
6.05 0.207847
6.06 0.21308
6.07 0.217648
6.08 0.221641
6.09 0.225157
6.1 0.228274
6.11 0.231139
6.12 0.233844
6.13 0.236472
6.14 0.239089
6.15 0.241747
6.16 0.244483
6.17 0.247306
6.18 0.250197
6.19 0.25312
6.2 0.25602
6.21 0.258823
6.22 0.261441
6.23 0.263726
6.24 0.265589
6.25 0.266915
6.26 0.267588
6.27 0.267495
6.28 0.266533
6.29 0.264553
6.3 0.261457
6.31 0.257251
6.32 0.251899
6.33 0.245388
6.34 0.237724
6.35 0.228937
6.36 0.21897
6.37 0.208004
6.38 0.196142
6.39 0.183489
6.4 0.170159
6.41 0.156276
6.42 0.141953
6.43 0.127325
6.44 0.112545
6.45 0.0977277
6.46 0.0829795
6.47 0.068393
6.48 0.0540475
6.49 0.0400403
6.5 0.0263999
6.51 0.0131465
6.52 0.000291842
6.53 -0.0121667
6.54 -0.0242445
6.55 -0.0359585
6.56 -0.0473318
6.57 -0.0584372
6.58 -0.0693206
6.59 -0.080028
6.6 -0.0906035
6.61 -0.101087
6.62 -0.111508
6.63 -0.121898
6.64 -0.132271
6.65 -0.142629
6.66 -0.152963
6.67 -0.163253
6.68 -0.173466
6.69 -0.183544
6.7 -0.193445
6.71 -0.203106
6.72 -0.212463
6.73 -0.221444
6.74 -0.229976
6.75 -0.237942
6.76 -0.245272
6.77 -0.251918
6.78 -0.257814
6.79 -0.262896
6.8 -0.267107
6.81 -0.270388
6.82 -0.272594
6.83 -0.273789
6.84 -0.273945
6.85 -0.273038
6.86 -0.271051
6.87 -0.267974
6.88 -0.263731
6.89 -0.258328
6.9 -0.251828
6.91 -0.244237
6.92 -0.235563
6.93 -0.225817
6.94 -0.215011
6.95 -0.203042
6.96 -0.190046
6.97 -0.176045
6.98 -0.161059
6.99 -0.145112
7 -0.128232
7.01 -0.110404
7.02 -0.0916518
7.03 -0.0720743
7.04 -0.0517133
7.05 -0.0306153
7.06 -0.00883135
7.07 0.0135833
7.08 0.0366211
7.09 0.0601593
7.1 0.0841208
7.11 0.108433
7.12 0.133019
7.13 0.157801
7.14 0.182698
7.15 0.207616
7.16 0.232462
7.17 0.257151
7.18 0.281596
7.19 0.30571
7.2 0.329407
7.21 0.352547
7.22 0.375069
7.23 0.396902
7.24 0.417963
7.25 0.438169
7.26 0.457441
7.27 0.475669
7.28 0.4927
7.29 0.50855
7.3 0.523146
7.31 0.53642
7.32 0.548305
7.33 0.558738
7.34 0.567532
7.35 0.574697
7.36 0.580238
7.37 0.584117
7.38 0.586298
7.39 0.586756
7.4 0.585442
7.41 0.582202
7.42 0.577214
7.43 0.570489
7.44 0.562049
7.45 0.551927
7.46 0.540165
7.47 0.526708
7.48 0.511663
7.49 0.495178
7.5 0.477333
7.51 0.458217
7.52 0.437925
7.53 0.416551
7.54 0.394113
7.55 0.370839
7.56 0.346845
7.57 0.322245
7.58 0.29716
7.59 0.271709
7.6 0.246002
7.61 0.22018
7.62 0.194372
7.63 0.168697
7.64 0.143268
7.65 0.118198
7.66 0.0935978
7.67 0.06965
7.68 0.0464061
7.69 0.0239612
7.7 0.00240909
7.71 -0.018162
7.72 -0.0376699
7.73 -0.055981
7.74 -0.0729928
7.75 -0.0887277
7.76 -0.103138
7.77 -0.116187
7.78 -0.127848
7.79 -0.138106
7.8 -0.146818
7.81 -0.154116
7.82 -0.16005
7.83 -0.164657
7.84 -0.16799
7.85 -0.170109
7.86 -0.17105
7.87 -0.170862
7.88 -0.169726
7.89 -0.167742
7.9 -0.16501
7.91 -0.161636
7.92 -0.157722
7.93 -0.15334
7.94 -0.148626
7.95 -0.143681
7.96 -0.138586
7.97 -0.133413
7.98 -0.128223
7.99 -0.123066
8 -0.11799
8.01 -0.113013
8.02 -0.108145
8.03 -0.103389
8.04 -0.0987346
8.05 -0.0941672
8.06 -0.0896677
8.07 -0.0852037
8.08 -0.080745
8.09 -0.0762646
8.1 -0.0717385
8.11 -0.0671472
8.12 -0.0624764
8.13 -0.0577136
8.14 -0.0528731
8.15 -0.04797
8.16 -0.0430291
8.17 -0.038084
8.18 -0.0331767
8.19 -0.0283659
8.2 -0.0237129
8.21 -0.0192716
8.22 -0.015101
8.23 -0.0112589
8.24 -0.00779873
8.25 -0.0047696
8.26 -0.00226567
8.27 -0.000262751
8.28 0.00122575
8.29 0.00219965
8.3 0.00267255
8.31 0.00267194
8.32 0.00221751
8.33 0.00137106
8.34 0.000225421
8.35 -0.00114404
8.36 -0.00265607
8.37 -0.00422615
8.38 -0.0057695
8.39 -0.00718363
8.4 -0.00839718
8.41 -0.00934619
8.42 -0.00997778
8.43 -0.0102531
8.44 -0.0101492
8.45 -0.00964316
8.46 -0.00874117
8.47 -0.00750508
8.48 -0.00598584
8.49 -0.00424972
8.5 -0.00237641
8.51 -0.000456593
8.52 0.00139536
8.53 0.00306777
8.54 0.00445673
8.55 0.00546005
8.56 0.00598182
8.57 0.00593562
8.58 0.0052232
8.59 0.00374533
8.6 0.00151881
8.61 -0.00147531
8.62 -0.0052369
8.63 -0.00974687
8.64 -0.0149679
8.65 -0.0208968
8.66 -0.0274156
8.67 -0.0344204
8.68 -0.0418177
8.69 -0.0495085
8.7 -0.0573916
8.71 -0.0653668
8.72 -0.0733267
8.73 -0.0811791
8.74 -0.0888498
8.75 -0.0962778
8.76 -0.103417
8.77 -0.110236
8.78 -0.116697
8.79 -0.122814
8.8 -0.128623
8.81 -0.134158
8.82 -0.139462
8.83 -0.144588
8.84 -0.149595
8.85 -0.154545
8.86 -0.159509
8.87 -0.164543
8.88 -0.169692
8.89 -0.174995
8.9 -0.180477
8.91 -0.186162
8.92 -0.192042
8.93 -0.198086
8.94 -0.204256
8.95 -0.210503
8.96 -0.216766
8.97 -0.222971
8.98 -0.229016
8.99 -0.234823
9 -0.24031
9.01 -0.245394
9.02 -0.249998
9.03 -0.254058
9.04 -0.257481
9.05 -0.260216
9.06 -0.26228
9.07 -0.263666
9.08 -0.264388
9.09 -0.264472
9.1 -0.263965
9.11 -0.262875
9.12 -0.261334
9.13 -0.259432
9.14 -0.257257
9.15 -0.254903
9.16 -0.252461
9.17 -0.250024
9.18 -0.247687
9.19 -0.245518
9.2 -0.243574
9.21 -0.241896
9.22 -0.24051
9.23 -0.239428
9.24 -0.238667
9.25 -0.238177
9.26 -0.237911
9.27 -0.237814
9.28 -0.237822
9.29 -0.237862
9.3 -0.237853
9.31 -0.237702
9.32 -0.237336
9.33 -0.236686
9.34 -0.235691
9.35 -0.2343
9.36 -0.232475
9.37 -0.230153
9.38 -0.227349
9.39 -0.22409
9.4 -0.220401
9.41 -0.21632
9.42 -0.211899
9.43 -0.207195
9.44 -0.202267
9.45 -0.197215
9.46 -0.192112
9.47 -0.187029
9.48 -0.18203
9.49 -0.177173
9.5 -0.172518
9.51 -0.168094
9.52 -0.163906
9.53 -0.15995
9.54 -0.156207
9.55 -0.15264
9.56 -0.149197
9.57 -0.14581
9.58 -0.142385
9.59 -0.138832
9.6 -0.135054
9.61 -0.130952
9.62 -0.126424
9.63 -0.121335
9.64 -0.115585
9.65 -0.109123
9.66 -0.10188
9.67 -0.0938022
9.68 -0.0848503
9.69 -0.0750011
9.7 -0.0641453
9.71 -0.0524009
9.72 -0.0398003
9.73 -0.0263895
9.74 -0.0122277
9.75 0.00261468
9.76 0.0180843
9.77 0.0340883
9.78 0.0504965
9.79 0.0672161
9.8 0.0841552
9.81 0.101225
9.82 0.118341
9.83 0.135415
9.84 0.152374
9.85 0.169156
9.86 0.18571
9.87 0.201991
9.88 0.217963
9.89 0.233581
9.9 0.248805
9.91 0.263641
9.92 0.278072
9.93 0.292085
9.94 0.305662
9.95 0.318788
9.96 0.331398
9.97 0.343499
9.98 0.355077
9.99 0.366103
10 0.376545
10.01 0.386366
10.02 0.395512
10.03 0.403899
10.04 0.411549
10.05 0.418432
10.06 0.424517
10.07 0.429782
10.08 0.434213
10.09 0.437734
10.1 0.44039
10.11 0.442226
10.12 0.443271
10.13 0.443561
10.14 0.443147
10.15 0.442077
10.16 0.440382
10.17 0.438201
10.18 0.435616
10.19 0.432715
10.2 0.429582
10.21 0.426305
10.22 0.422969
10.23 0.419662
10.24 0.416457
10.25 0.413412
10.26 0.410577
10.27 0.407989
10.28 0.405676
10.29 0.40368
10.3 0.401966
10.31 0.400519
10.32 0.399311
10.33 0.398305
10.34 0.397456
10.35 0.39671
10.36 0.396
10.37 0.395255
10.38 0.394408
10.39 0.393395
10.4 0.392149
10.41 0.390608
10.42 0.388668
10.43 0.386308
10.44 0.383485
10.45 0.380157
10.46 0.376288
10.47 0.37185
10.48 0.36679
10.49 0.361075
10.5 0.354734
10.51 0.347759
10.52 0.340142
10.53 0.331883
10.54 0.32298
10.55 0.313369
10.56 0.303109
10.57 0.292213
10.58 0.280688
10.59 0.268541
10.6 0.25578
10.61 0.242397
10.62 0.228384
10.63 0.213809
10.64 0.198697
10.65 0.183078
10.66 0.166988
10.67 0.150469
10.68 0.133538
10.69 0.116283
10.7 0.098774
10.71 0.0810776
10.72 0.0632643
10.73 0.0454076
10.74 0.0275857
10.75 0.0098909
10.76 -0.00760769
10.77 -0.0248403
10.78 -0.0417425
10.79 -0.0582569
10.8 -0.0743345
10.81 -0.0898958
10.82 -0.104931
10.83 -0.119445
10.84 -0.133437
10.85 -0.146917
10.86 -0.15991
10.87 -0.172443
10.88 -0.18453
10.89 -0.196273
10.9 -0.20773
10.91 -0.218966
10.92 -0.230047
10.93 -0.241038
10.94 -0.252001
10.95 -0.263
10.96 -0.274083
10.97 -0.285284
10.98 -0.296627
10.99 -0.308122
11 -0.319766
11.01 -0.331553
11.02 -0.343429
11.03 -0.355345
11.04 -0.36724
11.05 -0.37904
11.06 -0.390664
11.07 -0.402002
11.08 -0.412945
11.09 -0.423414
11.1 -0.433314
11.11 -0.442554
11.12 -0.451048
11.13 -0.458721
11.14 -0.465402
11.15 -0.471123
11.16 -0.475852
11.17 -0.479564
11.18 -0.482248
11.19 -0.483906
11.2 -0.484508
11.21 -0.484062
11.22 -0.48268
11.23 -0.48041
11.24 -0.477308
11.25 -0.473432
11.26 -0.468843
11.27 -0.463544
11.28 -0.457654
11.29 -0.451237
11.3 -0.444341
11.31 -0.437007
11.32 -0.429269
11.33 -0.421138
11.34 -0.412612
11.35 -0.403729
11.36 -0.394485
11.37 -0.38487
11.38 -0.37487
11.39 -0.364466
11.4 -0.353597
11.41 -0.342263
11.42 -0.330458
11.43 -0.318165
11.44 -0.305373
11.45 -0.292077
11.46 -0.278267
11.47 -0.263925
11.48 -0.249119
11.49 -0.233883
11.5 -0.218259
11.51 -0.202298
11.52 -0.186059
11.53 -0.169599
11.54 -0.153009
11.55 -0.136375
11.56 -0.119779
11.57 -0.103301
11.58 -0.0870231
11.59 -0.0710281
11.6 -0.0554314
11.61 -0.0402699
11.62 -0.0256044
11.63 -0.0114876
11.64 0.00203607
11.65 0.0149311
11.66 0.0271265
11.67 0.0386136
11.68 0.0494197
11.69 0.0595461
11.7 0.0690015
11.71 0.0778011
11.72 0.0859638
11.73 0.0934486
11.74 0.100357
11.75 0.106718
11.76 0.112565
11.77 0.117928
11.78 0.122837
11.79 0.127301
11.8 0.131347
11.81 0.135027
11.82 0.138361
11.83 0.141369
11.84 0.144067
11.85 0.146469
11.86 0.148559
11.87 0.150373
11.88 0.151921
11.89 0.153211
11.9 0.154244
11.91 0.155025
11.92 0.155543
11.93 0.155791
11.94 0.155785
11.95 0.155521
11.96 0.154993
11.97 0.154193
11.98 0.153109
11.99 0.151697
12 0.149959
12.01 0.147878
12.02 0.145429
12.03 0.142581
12.04 0.139302
12.05 0.135536
12.06 0.131213
12.07 0.126331
12.08 0.120844
12.09 0.114711
12.1 0.107887
12.11 0.100333
12.12 0.091943
12.13 0.0827246
12.14 0.0726788
12.15 0.0617909
12.16 0.0500556
12.17 0.0374785
