# xPDFsuite Configuration #
[PDF]
wavelength = 0.1
dataformat = QA
inputfile = BiMsol6_insitu_700 C-00066.xy
backgroundfile = Quartz2mm-dist500-00000.xy
mode = xray
bgscale = 0.0042
composition = Bi2Fe4O9
outputtype = gr
qmaxinst = 24.998449118
qmin = 0.1
qmax = 21.4986662415
rmax = 80.0
rmin = 0.0
rstep = 0.01
rpoly = 0.9

[Misc]
inputdir = C:/Data/Seafile/CPH/Beamtime/Desy Oct 20/In situ data/Processed/BiMsol6/PDF
savedir = C:/Data/Seafile/CPH/Beamtime/Desy Oct 20/In situ data/PDF/BiMsol6
backgroundfilefull = C:/Data/Seafile/CPH/Beamtime/Desy Oct 20/In situ data/Processed/Standard_Empty_Cap/Quartz2mm-dist500-00000.xy

#### start data
#S 1
#L r($\AA$)  G($\AA^{-2}$)
0 0
0.01 0.00645747
0.02 0.0125527
0.03 0.0179755
0.04 0.0224479
0.05 0.0257362
0.06 0.0276625
0.07 0.0280322
0.08 0.0267886
0.09 0.0240751
0.1 0.0200099
0.11 0.0147759
0.12 0.00861332
0.13 0.00180844
0.14 -0.00531678
0.15 -0.0123572
0.16 -0.0189709
0.17 -0.0248372
0.18 -0.0296689
0.19 -0.0332259
0.2 -0.0352616
0.21 -0.0356079
0.22 -0.0343632
0.23 -0.031594
0.24 -0.0274452
0.25 -0.0221349
0.26 -0.0159465
0.27 -0.00920221
0.28 -0.00236588
0.29 0.00414991
0.3 0.00994485
0.31 0.0146387
0.32 0.0178901
0.33 0.0193537
0.34 0.0186925
0.35 0.0159599
0.36 0.0111549
0.37 0.00438063
0.38 -0.00415436
0.39 -0.0141392
0.4 -0.0252133
0.41 -0.0367592
0.42 -0.0481718
0.43 -0.0588364
0.44 -0.0681178
0.45 -0.0753847
0.46 -0.0799705
0.47 -0.0810184
0.48 -0.0783475
0.49 -0.0716163
0.5 -0.0606064
0.51 -0.0452363
0.52 -0.0255712
0.53 -0.00155961
0.54 0.0262381
0.55 0.0570903
0.56 0.0903151
0.57 0.125118
0.58 0.160616
0.59 0.195845
0.6 0.229574
0.61 0.260862
0.62 0.288753
0.63 0.312358
0.64 0.330879
0.65 0.343639
0.66 0.349692
0.67 0.348677
0.68 0.340799
0.69 0.326099
0.7 0.304798
0.71 0.2773
0.72 0.244176
0.73 0.205685
0.74 0.163332
0.75 0.118109
0.76 0.0710627
0.77 0.0232739
0.78 -0.0241749
0.79 -0.070108
0.8 -0.11336
0.81 -0.153167
0.82 -0.18878
0.83 -0.219599
0.84 -0.245176
0.85 -0.265235
0.86 -0.279095
0.87 -0.287367
0.88 -0.290399
0.89 -0.288608
0.9 -0.282542
0.91 -0.27285
0.92 -0.260183
0.93 -0.245364
0.94 -0.229417
0.95 -0.213142
0.96 -0.197302
0.97 -0.182595
0.98 -0.169636
0.99 -0.159185
1 -0.15151
1.01 -0.14679
1.02 -0.145132
1.03 -0.146518
1.04 -0.15081
1.05 -0.157824
1.06 -0.167301
1.07 -0.178572
1.08 -0.191152
1.09 -0.204525
1.1 -0.218168
1.11 -0.231575
1.12 -0.244178
1.13 -0.255546
1.14 -0.265375
1.15 -0.273415
1.16 -0.279506
1.17 -0.283581
1.18 -0.28563
1.19 -0.285633
1.2 -0.283997
1.21 -0.280994
1.22 -0.276945
1.23 -0.272205
1.24 -0.267141
1.25 -0.262152
1.26 -0.257629
1.27 -0.253868
1.28 -0.251119
1.29 -0.249567
1.3 -0.249329
1.31 -0.250452
1.32 -0.253026
1.33 -0.25677
1.34 -0.261489
1.35 -0.266931
1.36 -0.272801
1.37 -0.278772
1.38 -0.284467
1.39 -0.289493
1.4 -0.29355
1.41 -0.296357
1.42 -0.297683
1.43 -0.297356
1.44 -0.295273
1.45 -0.291215
1.46 -0.285442
1.47 -0.278112
1.48 -0.269445
1.49 -0.259724
1.5 -0.249281
1.51 -0.238496
1.52 -0.227828
1.53 -0.217703
1.54 -0.208513
1.55 -0.20062
1.56 -0.194342
1.57 -0.189939
1.58 -0.187819
1.59 -0.187914
1.6 -0.190191
1.61 -0.194563
1.62 -0.200858
1.63 -0.208824
1.64 -0.21817
1.65 -0.228489
1.66 -0.239233
1.67 -0.24993
1.68 -0.260098
1.69 -0.269261
1.7 -0.27697
1.71 -0.282614
1.72 -0.285925
1.73 -0.286693
1.74 -0.284735
1.75 -0.27996
1.76 -0.272366
1.77 -0.261979
1.78 -0.248846
1.79 -0.233496
1.8 -0.21628
1.81 -0.197604
1.82 -0.177915
1.83 -0.157686
1.84 -0.137428
1.85 -0.117674
1.86 -0.0988584
1.87 -0.0813682
1.88 -0.0655335
1.89 -0.0516147
1.9 -0.0398278
1.91 -0.0304687
1.92 -0.0233133
1.93 -0.0182747
1.94 -0.0151902
1.95 -0.0138302
1.96 -0.0139088
1.97 -0.0151463
1.98 -0.0171093
1.99 -0.0193733
2 -0.0215737
2.01 -0.0233683
2.02 -0.0244515
2.03 -0.0245629
2.04 -0.0233636
2.05 -0.0208617
2.06 -0.0170247
2.07 -0.0118968
2.08 -0.00559685
2.09 0.00168578
2.1 0.00972125
2.11 0.0181499
2.12 0.0265726
2.13 0.0346076
2.14 0.0418639
2.15 0.0479561
2.16 0.0525192
2.17 0.0549881
2.18 0.0552535
2.19 0.0531248
2.2 0.0484676
2.21 0.0412232
2.22 0.0314118
2.23 0.0190288
2.24 0.00422683
2.25 -0.012554
2.26 -0.0309887
2.27 -0.0507031
2.28 -0.0712857
2.29 -0.0923015
2.3 -0.113261
2.31 -0.13368
2.32 -0.153147
2.33 -0.171287
2.34 -0.187772
2.35 -0.202331
2.36 -0.214678
2.37 -0.224559
2.38 -0.232109
2.39 -0.237357
2.4 -0.240399
2.41 -0.241395
2.42 -0.240563
2.43 -0.238054
2.44 -0.2343
2.45 -0.229676
2.46 -0.224519
2.47 -0.219164
2.48 -0.21393
2.49 -0.209131
2.5 -0.205103
2.51 -0.202011
2.52 -0.200011
2.53 -0.199209
2.54 -0.199658
2.55 -0.201355
2.56 -0.204334
2.57 -0.208434
2.58 -0.213459
2.59 -0.219232
2.6 -0.225552
2.61 -0.232206
2.62 -0.238974
2.63 -0.245607
2.64 -0.251898
2.65 -0.25767
2.66 -0.262772
2.67 -0.267085
2.68 -0.270522
2.69 -0.272971
2.7 -0.27443
2.71 -0.274977
2.72 -0.274665
2.73 -0.273577
2.74 -0.271815
2.75 -0.269493
2.76 -0.266702
2.77 -0.26363
2.78 -0.260397
2.79 -0.257115
2.8 -0.253877
2.81 -0.250762
2.82 -0.247836
2.83 -0.245134
2.84 -0.242648
2.85 -0.240359
2.86 -0.238227
2.87 -0.236197
2.88 -0.2342
2.89 -0.232141
2.9 -0.229935
2.91 -0.227497
2.92 -0.224753
2.93 -0.221633
2.94 -0.218084
2.95 -0.214046
2.96 -0.209484
2.97 -0.204435
2.98 -0.198923
2.99 -0.192988
3 -0.186685
3.01 -0.180083
3.02 -0.173248
3.03 -0.166293
3.04 -0.159306
3.05 -0.152372
3.06 -0.145564
3.07 -0.138946
3.08 -0.132577
3.09 -0.126502
3.1 -0.120708
3.11 -0.115182
3.12 -0.109888
3.13 -0.104774
3.14 -0.0997686
3.15 -0.0947787
3.16 -0.0896909
3.17 -0.0843969
3.18 -0.0787856
3.19 -0.0727473
3.2 -0.0661776
3.21 -0.0589667
3.22 -0.0509703
3.23 -0.0421894
3.24 -0.0325821
3.25 -0.0221267
3.26 -0.0108228
3.27 0.0013089
3.28 0.0142816
3.29 0.0280014
3.3 0.0423562
3.31 0.0572557
3.32 0.0726014
3.33 0.0882902
3.34 0.10422
3.35 0.12029
3.36 0.136387
3.37 0.152427
3.38 0.168343
3.39 0.18408
3.4 0.199599
3.41 0.214861
3.42 0.229863
3.43 0.244628
3.44 0.259177
3.45 0.273543
3.46 0.287762
3.47 0.301874
3.48 0.315915
3.49 0.329927
3.5 0.343937
3.51 0.357957
3.52 0.371984
3.53 0.386001
3.54 0.399969
3.55 0.413821
3.56 0.427485
3.57 0.44087
3.58 0.453867
3.59 0.466357
3.6 0.478212
3.61 0.4892
3.62 0.499242
3.63 0.508212
3.64 0.515983
3.65 0.522438
3.66 0.527473
3.67 0.530937
3.68 0.532701
3.69 0.532842
3.7 0.531345
3.71 0.528219
3.72 0.523495
3.73 0.517228
3.74 0.509367
3.75 0.500125
3.76 0.489652
3.77 0.478078
3.78 0.465543
3.79 0.452193
3.8 0.438164
3.81 0.423594
3.82 0.408686
3.83 0.393577
3.84 0.378397
3.85 0.363265
3.86 0.348287
3.87 0.333584
3.88 0.31923
3.89 0.305277
3.9 0.291772
3.91 0.278747
3.92 0.266223
3.93 0.25422
3.94 0.242775
3.95 0.231827
3.96 0.221355
3.97 0.211334
3.98 0.201734
3.99 0.192521
4 0.18368
4.01 0.175157
4.02 0.166897
4.03 0.158858
4.04 0.150999
4.05 0.143281
4.06 0.135663
4.07 0.128108
4.08 0.12057
4.09 0.113015
4.1 0.10541
4.11 0.0977273
4.12 0.0899421
4.13 0.0820265
4.14 0.0739652
4.15 0.065759
4.16 0.0574087
4.17 0.0489226
4.18 0.0403171
4.19 0.0316167
4.2 0.0228521
4.21 0.0140766
4.22 0.00534066
4.23 -0.00329871
4.24 -0.0117795
4.25 -0.0200359
4.26 -0.0279822
4.27 -0.0355337
4.28 -0.0426462
4.29 -0.0492593
4.3 -0.0553198
4.31 -0.0607833
4.32 -0.0656163
4.33 -0.0697304
4.34 -0.0731768
4.35 -0.0759767
4.36 -0.0781566
4.37 -0.0797575
4.38 -0.0808347
4.39 -0.0814424
4.4 -0.0816569
4.41 -0.0816038
4.42 -0.0813791
4.43 -0.0810816
4.44 -0.0808099
4.45 -0.0806593
4.46 -0.080745
4.47 -0.0811399
4.48 -0.0819016
4.49 -0.0830783
4.5 -0.0847016
4.51 -0.0867852
4.52 -0.0893358
4.53 -0.0923521
4.54 -0.0957479
4.55 -0.0994619
4.56 -0.103419
4.57 -0.107534
4.58 -0.111713
4.59 -0.115844
4.6 -0.119818
4.61 -0.123537
4.62 -0.126913
4.63 -0.129865
4.64 -0.132325
4.65 -0.13423
4.66 -0.135492
4.67 -0.136155
4.68 -0.136222
4.69 -0.135719
4.7 -0.134686
4.71 -0.133179
4.72 -0.131247
4.73 -0.128993
4.74 -0.126526
4.75 -0.123941
4.76 -0.121334
4.77 -0.118798
4.78 -0.116419
4.79 -0.114311
4.8 -0.112515
4.81 -0.111083
4.82 -0.110049
4.83 -0.109433
4.84 -0.109238
4.85 -0.109475
4.86 -0.110114
4.87 -0.111091
4.88 -0.112356
4.89 -0.113854
4.9 -0.115523
4.91 -0.117302
4.92 -0.11913
4.93 -0.120941
4.94 -0.122687
4.95 -0.12433
4.96 -0.12584
4.97 -0.127199
4.98 -0.128395
4.99 -0.12943
5 -0.130333
5.01 -0.13113
5.02 -0.131854
5.03 -0.132541
5.04 -0.133231
5.05 -0.133972
5.06 -0.134799
5.07 -0.135741
5.08 -0.136821
5.09 -0.138051
5.1 -0.139435
5.11 -0.140967
5.12 -0.14263
5.13 -0.144379
5.14 -0.14617
5.15 -0.147953
5.16 -0.149672
5.17 -0.151267
5.18 -0.152655
5.19 -0.153782
5.2 -0.154601
5.21 -0.155067
5.22 -0.155147
5.23 -0.154818
5.24 -0.154062
5.25 -0.152858
5.26 -0.15127
5.27 -0.149336
5.28 -0.147108
5.29 -0.144649
5.3 -0.142029
5.31 -0.139327
5.32 -0.136637
5.33 -0.134044
5.34 -0.131622
5.35 -0.12944
5.36 -0.127556
5.37 -0.126018
5.38 -0.124893
5.39 -0.12415
5.4 -0.12378
5.41 -0.123753
5.42 -0.124025
5.43 -0.124533
5.44 -0.125208
5.45 -0.125946
5.46 -0.126645
5.47 -0.127206
5.48 -0.127531
5.49 -0.127529
5.5 -0.127112
5.51 -0.126148
5.52 -0.124631
5.53 -0.122529
5.54 -0.119827
5.55 -0.116531
5.56 -0.112668
5.57 -0.108262
5.58 -0.103391
5.59 -0.0981735
5.6 -0.0927105
5.61 -0.0871122
5.62 -0.0814935
5.63 -0.0759708
5.64 -0.0706907
5.65 -0.0657457
5.66 -0.0612231
5.67 -0.0571952
5.68 -0.0537155
5.69 -0.0508157
5.7 -0.0485305
5.71 -0.0468566
5.72 -0.0457075
5.73 -0.0450191
5.74 -0.0447083
5.75 -0.0446763
5.76 -0.0448126
5.77 -0.0449918
5.78 -0.0450746
5.79 -0.0449419
5.8 -0.0444823
5.81 -0.0435966
5.82 -0.0422009
5.83 -0.0402099
5.84 -0.0375463
5.85 -0.0342465
5.86 -0.0303218
5.87 -0.0258076
5.88 -0.0207621
5.89 -0.0152644
5.9 -0.0093904
5.91 -0.00328631
5.92 0.00291457
5.93 0.00908567
5.94 0.0151014
5.95 0.0208417
5.96 0.0261864
5.97 0.0309952
5.98 0.0352356
5.99 0.0388588
6 0.0418397
6.01 0.0441784
6.02 0.0459001
6.03 0.0470171
6.04 0.0476333
6.05 0.0478685
6.06 0.0478343
6.07 0.0476529
6.08 0.0474529
6.09 0.0473669
6.1 0.0475581
6.11 0.0481264
6.12 0.0491717
6.13 0.0507753
6.14 0.0529973
6.15 0.0558735
6.16 0.0594556
6.17 0.0637137
6.18 0.0685637
6.19 0.0739324
6.2 0.0797256
6.21 0.0858305
6.22 0.0921199
6.23 0.0984456
6.24 0.104647
6.25 0.110581
6.26 0.116115
6.27 0.121123
6.28 0.125498
6.29 0.129106
6.3 0.131865
6.31 0.133785
6.32 0.134856
6.33 0.135093
6.34 0.134535
6.35 0.133246
6.36 0.131252
6.37 0.128732
6.38 0.125809
6.39 0.122612
6.4 0.119272
6.41 0.115918
6.42 0.112684
6.43 0.109708
6.44 0.107077
6.45 0.10487
6.46 0.103146
6.47 0.101942
6.48 0.101274
6.49 0.101182
6.5 0.101592
6.51 0.102439
6.52 0.103652
6.53 0.105146
6.54 0.106828
6.55 0.108595
6.56 0.110329
6.57 0.111923
6.58 0.113281
6.59 0.114319
6.6 0.114962
6.61 0.115153
6.62 0.114804
6.63 0.113917
6.64 0.112506
6.65 0.110585
6.66 0.108188
6.67 0.10536
6.68 0.102152
6.69 0.0986197
6.7 0.0948736
6.71 0.0909929
6.72 0.0870566
6.73 0.0831407
6.74 0.0793155
6.75 0.0756586
6.76 0.0722238
6.77 0.0690418
6.78 0.0661383
6.79 0.0635265
6.8 0.0612073
6.81 0.0591728
6.82 0.0574249
6.83 0.0559023
6.84 0.0545682
6.85 0.0533816
6.86 0.0523002
6.87 0.0512821
6.88 0.050287
6.89 0.0492753
6.9 0.0482184
6.91 0.0470961
6.92 0.0458959
6.93 0.0446133
6.94 0.0432514
6.95 0.0418145
6.96 0.040329
6.97 0.0388171
6.98 0.0373033
6.99 0.035813
7 0.0343706
7.01 0.0330023
7.02 0.0317287
7.03 0.0305546
7.04 0.0294827
7.05 0.0285076
7.06 0.027616
7.07 0.0267865
7.08 0.0259898
7.09 0.0251829
7.1 0.0243236
7.11 0.0233672
7.12 0.0222679
7.13 0.020981
7.14 0.0194545
7.15 0.0176374
7.16 0.0155216
7.17 0.01309
7.18 0.0103363
7.19 0.00726623
7.2 0.0038979
7.21 0.000241429
7.22 -0.003635
7.23 -0.00766764
7.24 -0.0117898
7.25 -0.015927
7.26 -0.0199993
7.27 -0.0239172
7.28 -0.0275721
7.29 -0.0308987
7.3 -0.0338227
7.31 -0.0362786
7.32 -0.0382111
7.33 -0.0395778
7.34 -0.0403012
7.35 -0.0403965
7.36 -0.0398929
7.37 -0.0388145
7.38 -0.0372007
7.39 -0.0351055
7.4 -0.0325904
7.41 -0.0297168
7.42 -0.0266137
7.43 -0.0233755
7.44 -0.0200989
7.45 -0.0168807
7.46 -0.0138146
7.47 -0.0110111
7.48 -0.00855427
7.49 -0.00649813
7.5 -0.00489609
7.51 -0.00378755
7.52 -0.00319718
7.53 -0.00313765
7.54 -0.00365619
7.55 -0.0046705
7.56 -0.00614418
7.57 -0.00802951
7.58 -0.0102693
7.59 -0.0127989
7.6 -0.0155569
7.61 -0.018459
7.62 -0.0214204
7.63 -0.0243705
7.64 -0.0272436
7.65 -0.0299801
7.66 -0.0325281
7.67 -0.0348156
7.68 -0.0368333
7.69 -0.0385634
7.7 -0.0399971
7.71 -0.0411362
7.72 -0.041992
7.73 -0.0425734
7.74 -0.0429082
7.75 -0.0430497
7.76 -0.0430376
7.77 -0.0429141
7.78 -0.0427228
7.79 -0.0425064
7.8 -0.0423116
7.81 -0.0421778
7.82 -0.0421366
7.83 -0.042214
7.84 -0.0424298
7.85 -0.0427969
7.86 -0.043327
7.87 -0.0440245
7.88 -0.0448669
7.89 -0.0458381
7.9 -0.0469165
7.91 -0.0480755
7.92 -0.0492844
7.93 -0.0505077
7.94 -0.051704
7.95 -0.052836
7.96 -0.053867
7.97 -0.0547613
7.98 -0.0554855
7.99 -0.0560029
8 -0.0562688
8.01 -0.0562806
8.02 -0.0560223
8.03 -0.0554831
8.04 -0.0546581
8.05 -0.0535485
8.06 -0.0521409
8.07 -0.0504628
8.08 -0.048546
8.09 -0.0464174
8.1 -0.0441093
8.11 -0.0416589
8.12 -0.039107
8.13 -0.0365
8.14 -0.033896
8.15 -0.0313454
8.16 -0.0288993
8.17 -0.0266085
8.18 -0.0245221
8.19 -0.0227069
8.2 -0.0212067
8.21 -0.020045
8.22 -0.0192519
8.23 -0.0188498
8.24 -0.0188533
8.25 -0.019269
8.26 -0.0201359
8.27 -0.0213903
8.28 -0.0230053
8.29 -0.0249439
8.3 -0.0271602
8.31 -0.0295993
8.32 -0.0322038
8.33 -0.0348938
8.34 -0.0375857
8.35 -0.0402023
8.36 -0.0426655
8.37 -0.0448988
8.38 -0.0468288
8.39 -0.0483401
8.4 -0.0494055
8.41 -0.0499789
8.42 -0.0500228
8.43 -0.0495119
8.44 -0.0484342
8.45 -0.0467667
8.46 -0.0445156
8.47 -0.0417549
8.48 -0.0385314
8.49 -0.0349038
8.5 -0.0309409
8.51 -0.0267203
8.52 -0.0223176
8.53 -0.0178451
8.54 -0.0133952
8.55 -0.00905586
8.56 -0.00491072
8.57 -0.00103675
8.58 0.00248416
8.59 0.00556909
8.6 0.0082059
8.61 0.0103673
8.62 0.0120405
8.63 0.0132275
8.64 0.0139448
8.65 0.0141882
8.66 0.0140332
8.67 0.0135493
8.68 0.0128016
8.69 0.0118611
8.7 0.0108029
8.71 0.00970384
8.72 0.00865037
8.73 0.0077143
8.74 0.00695804
8.75 0.00643513
8.76 0.0061886
8.77 0.00624975
8.78 0.00666246
8.79 0.00741939
8.8 0.00849617
8.81 0.00986972
8.82 0.0115059
8.83 0.0133609
8.84 0.0153842
8.85 0.0175209
8.86 0.0196928
8.87 0.0218374
8.88 0.0238941
8.89 0.0258061
8.9 0.0275222
8.91 0.0289811
8.92 0.0301482
8.93 0.0310148
8.94 0.0315709
8.95 0.031817
8.96 0.0317647
8.97 0.0314355
8.98 0.0308364
8.99 0.0300391
9 0.0290894
9.01 0.0280367
9.02 0.0269322
9.03 0.0258266
9.04 0.0247733
9.05 0.0238236
9.06 0.0230107
9.07 0.0223638
9.08 0.0219039
9.09 0.021643
9.1 0.0215836
9.11 0.0217387
9.12 0.0220714
9.13 0.0225549
9.14 0.0231584
9.15 0.0238463
9.16 0.0245797
9.17 0.0253166
9.18 0.0260104
9.19 0.0266237
9.2 0.0271234
9.21 0.0274813
9.22 0.0276758
9.23 0.0276923
9.24 0.0275066
9.25 0.0271351
9.26 0.0265926
9.27 0.025897
9.28 0.0250725
9.29 0.0241481
9.3 0.0231558
9.31 0.0221341
9.32 0.021124
9.33 0.0201603
9.34 0.0192748
9.35 0.0184957
9.36 0.0178456
9.37 0.0173546
9.38 0.017025
9.39 0.0168528
9.4 0.0168319
9.41 0.0169492
9.42 0.0171855
9.43 0.0175176
9.44 0.0179177
9.45 0.0183449
9.46 0.0187658
9.47 0.0191475
9.48 0.0194586
9.49 0.0196706
9.5 0.0197491
9.51 0.0196771
9.52 0.0194492
9.53 0.0190608
9.54 0.0185143
9.55 0.0178186
9.56 0.0169879
9.57 0.0160348
9.58 0.0150001
9.59 0.0139133
9.6 0.0128061
9.61 0.0117107
9.62 0.0106585
9.63 0.00968527
9.64 0.00881971
9.65 0.00807801
9.66 0.00747509
9.67 0.00701987
9.68 0.00671503
9.69 0.00655691
9.7 0.00654988
9.71 0.00666066
9.72 0.00686789
9.73 0.00714697
9.74 0.00747097
9.75 0.00781192
9.76 0.00814016
9.77 0.00842549
9.78 0.00864663
9.79 0.00878554
9.8 0.00882927
9.81 0.00877066
9.82 0.0086087
9.83 0.00833966
9.84 0.00798635
9.85 0.00756869
9.86 0.00711017
9.87 0.0066381
9.88 0.00618247
9.89 0.00577797
9.9 0.00546326
9.91 0.00526365
9.92 0.00520544
9.93 0.00531056
9.94 0.00559556
9.95 0.00607074
9.96 0.00675721
9.97 0.00763588
9.98 0.00868905
9.99 0.00989675
10 0.0112327
10.01 0.0126651
10.02 0.0141586
10.03 0.0156696
10.04 0.0171524
10.05 0.0185664
10.06 0.0198724
10.07 0.0210349
10.08 0.0220224
10.09 0.0227912
10.1 0.0233305
10.11 0.0236376
10.12 0.0237105
10.13 0.0235548
10.14 0.0231834
10.15 0.0226129
10.16 0.0218593
10.17 0.0209733
10.18 0.0199896
10.19 0.0189448
10.2 0.017876
10.21 0.0168187
10.22 0.0158115
10.23 0.0148857
10.24 0.0140617
10.25 0.0133558
10.26 0.0127778
10.27 0.0123305
10.28 0.0120103
10.29 0.0118163
10.3 0.0117161
10.31 0.0116864
10.32 0.0117001
10.33 0.0117275
10.34 0.0117381
10.35 0.0116967
10.36 0.0115712
10.37 0.0113402
10.38 0.0109841
10.39 0.0104891
10.4 0.00984767
10.41 0.00905895
10.42 0.00811467
10.43 0.00704573
10.44 0.00587357
10.45 0.00462437
10.46 0.00332851
10.47 0.00201928
10.48 0.000734414
10.49 -0.000485156
10.5 -0.0016087
10.51 -0.00260712
10.52 -0.00345613
10.53 -0.00413745
10.54 -0.00463972
10.55 -0.00494101
10.56 -0.00506341
10.57 -0.00502409
10.58 -0.00484497
10.59 -0.00455474
10.6 -0.00418783
10.61 -0.00378336
10.62 -0.00338941
10.63 -0.0030514
10.64 -0.00281121
10.65 -0.00270778
10.66 -0.00277542
10.67 -0.00304223
10.68 -0.00354969
10.69 -0.00429499
10.7 -0.00527163
10.71 -0.0064689
10.72 -0.00786604
10.73 -0.00943272
10.74 -0.011132
10.75 -0.0129152
10.76 -0.0147173
10.77 -0.0164803
10.78 -0.0181446
10.79 -0.0196512
10.8 -0.0209438
10.81 -0.021946
10.82 -0.0226199
10.83 -0.0229427
10.84 -0.0228921
10.85 -0.0224576
10.86 -0.0216414
10.87 -0.0204531
10.88 -0.0188965
10.89 -0.0170516
10.9 -0.0149723
10.91 -0.0127214
10.92 -0.0103691
10.93 -0.00799065
10.94 -0.00567291
10.95 -0.00350366
10.96 -0.00155395
10.97 0.000107943
10.98 0.00142192
10.99 0.00233817
11 0.0028168
11.01 0.00278276
11.02 0.00228021
11.03 0.00131864
11.04 -7.75716e-05
11.05 -0.00186972
11.06 -0.00400589
11.07 -0.0064341
11.08 -0.00906856
11.09 -0.0118106
11.1 -0.0145733
11.11 -0.0172684
11.12 -0.0198085
11.13 -0.0221104
11.14 -0.0240548
11.15 -0.0256021
11.16 -0.0267008
11.17 -0.0273107
11.18 -0.027406
11.19 -0.0269759
11.2 -0.0260017
11.21 -0.0244963
11.22 -0.0225342
11.23 -0.0201663
11.24 -0.0174546
11.25 -0.0144703
11.26 -0.0112914
11.27 -0.0079978
11.28 -0.00469233
11.29 -0.00145978
11.3 0.00162082
11.31 0.00447666
11.32 0.00704321
11.33 0.00925217
11.34 0.0110383
11.35 0.0124034
11.36 0.0133337
11.37 0.0138285
11.38 0.0138996
11.39 0.0135712
11.4 0.0128497
11.41 0.0118079
11.42 0.0105097
11.43 0.00901364
11.44 0.00738122
11.45 0.00567497
11.46 0.00395751
11.47 0.00229736
11.48 0.000746384
11.49 -0.00065048
11.5 -0.0018563
11.51 -0.002843
11.52 -0.00359192
11.53 -0.00407496
11.54 -0.00430338
11.55 -0.00429878
11.56 -0.00408081
11.57 -0.00367592
11.58 -0.0031161
11.59 -0.00243642
11.6 -0.00167323
11.61 -0.000877735
11.62 -8.85328e-05
11.63 0.000658208
11.64 0.00133002
11.65 0.00189923
11.66 0.00233452
11.67 0.00262087
11.68 0.0027577
11.69 0.00274467
11.7 0.00258796
11.71 0.00229981
11.72 0.00189766
11.73 0.00139629
11.74 0.000834707
11.75 0.000241265
11.76 -0.000354878
11.77 -0.000924933
11.78 -0.00144162
11.79 -0.00187468
11.8 -0.00219957
11.81 -0.00240574
11.82 -0.00248254
