# xPDFsuite Configuration #
[PDF]
wavelength = 0.1
dataformat = QA
inputfile = BiMsol6_insitu_700 C-00661.xy
backgroundfile = Quartz2mm-dist500-00000.xy
mode = xray
bgscale = 0.0042
composition = Bi2Fe4O9
outputtype = gr
qmaxinst = 24.998449118
qmin = 0.1
qmax = 21.4986662415
rmax = 80.0
rmin = 0.0
rstep = 0.01
rpoly = 0.9

[Misc]
inputdir = C:/Data/Seafile/CPH/Beamtime/Desy Oct 20/In situ data/Processed/BiMsol6/PDF
savedir = C:/Data/Seafile/CPH/Beamtime/Desy Oct 20/In situ data/PDF/BiMsol6
backgroundfilefull = C:/Data/Seafile/CPH/Beamtime/Desy Oct 20/In situ data/Processed/Standard_Empty_Cap/Quartz2mm-dist500-00000.xy

#### start data
#S 1
#L r($\AA$)  G($\AA^{-2}$)
0 0
0.01 0.00590091
0.02 0.0114652
0.03 0.016405
0.04 0.0204619
0.05 0.0234191
0.06 0.0251118
0.07 0.0253596
0.08 0.0241108
0.09 0.0214994
0.1 0.0176359
0.11 0.0126914
0.12 0.00689005
0.13 0.000498776
0.14 -0.00618159
0.15 -0.0127746
0.16 -0.0189626
0.17 -0.0244475
0.18 -0.028963
0.19 -0.0322869
0.2 -0.0341915
0.21 -0.0345228
0.22 -0.0333753
0.23 -0.0308141
0.24 -0.0269773
0.25 -0.0220718
0.26 -0.0163652
0.27 -0.0101634
0.28 -0.00390094
0.29 0.00203517
0.3 0.00726938
0.31 0.0114455
0.32 0.0142442
0.33 0.0153426
0.34 0.0144262
0.35 0.0115502
0.36 0.00671751
0.37 2.99147e-05
0.38 -0.00831126
0.39 -0.0180077
0.4 -0.0287117
0.41 -0.0398351
0.42 -0.0508009
0.43 -0.0610222
0.44 -0.0698923
0.45 -0.0768074
0.46 -0.0811292
0.47 -0.082034
0.48 -0.0793489
0.49 -0.0727435
0.5 -0.062004
0.51 -0.0470469
0.52 -0.0279279
0.53 -0.00458599
0.54 0.0224489
0.55 0.0524805
0.56 0.0848621
0.57 0.118838
0.58 0.153563
0.59 0.188118
0.6 0.221328
0.61 0.252276
0.62 0.280036
0.63 0.303744
0.64 0.322618
0.65 0.335988
0.66 0.342924
0.67 0.343047
0.68 0.336527
0.69 0.323372
0.7 0.303765
0.71 0.278063
0.72 0.246784
0.73 0.210127
0.74 0.169534
0.75 0.125942
0.76 0.0803438
0.77 0.0337717
0.78 -0.012733
0.79 -0.0580448
0.8 -0.10103
0.81 -0.140911
0.82 -0.176942
0.83 -0.208506
0.84 -0.235134
0.85 -0.256514
0.86 -0.271941
0.87 -0.281947
0.88 -0.286817
0.89 -0.286909
0.9 -0.282706
0.91 -0.274795
0.92 -0.263764
0.93 -0.250365
0.94 -0.235594
0.95 -0.220218
0.96 -0.204977
0.97 -0.19056
0.98 -0.177583
0.99 -0.166797
1 -0.158519
1.01 -0.152977
1.02 -0.150327
1.03 -0.150606
1.04 -0.153735
1.05 -0.159598
1.06 -0.168012
1.07 -0.178366
1.08 -0.190231
1.09 -0.203137
1.1 -0.216601
1.11 -0.230142
1.12 -0.243234
1.13 -0.255432
1.14 -0.266403
1.15 -0.275869
1.16 -0.283631
1.17 -0.289569
1.18 -0.293615
1.19 -0.295679
1.2 -0.296082
1.21 -0.295024
1.22 -0.292755
1.23 -0.289561
1.24 -0.285751
1.25 -0.281644
1.26 -0.277595
1.27 -0.273894
1.28 -0.270783
1.29 -0.268453
1.3 -0.267041
1.31 -0.266628
1.32 -0.267328
1.33 -0.268962
1.34 -0.271408
1.35 -0.274494
1.36 -0.278007
1.37 -0.281706
1.38 -0.28531
1.39 -0.288517
1.4 -0.291082
1.41 -0.292782
1.42 -0.29343
1.43 -0.292883
1.44 -0.291053
1.45 -0.287766
1.46 -0.283211
1.47 -0.277503
1.48 -0.270807
1.49 -0.263338
1.5 -0.255355
1.51 -0.247149
1.52 -0.239078
1.53 -0.231465
1.54 -0.224612
1.55 -0.218793
1.56 -0.214249
1.57 -0.211169
1.58 -0.209855
1.59 -0.210234
1.6 -0.212261
1.61 -0.215846
1.62 -0.220828
1.63 -0.226986
1.64 -0.234061
1.65 -0.241698
1.66 -0.249461
1.67 -0.256963
1.68 -0.263813
1.69 -0.269631
1.7 -0.274061
1.71 -0.27661
1.72 -0.277098
1.73 -0.275387
1.74 -0.271361
1.75 -0.264984
1.76 -0.256292
1.77 -0.24535
1.78 -0.232249
1.79 -0.217457
1.8 -0.2013
1.81 -0.184144
1.82 -0.166384
1.83 -0.148432
1.84 -0.130746
1.85 -0.113761
1.86 -0.0978228
1.87 -0.0832427
1.88 -0.0702758
1.89 -0.059114
1.9 -0.0499085
1.91 -0.0428788
1.92 -0.0377817
1.93 -0.0345047
1.94 -0.0328719
1.95 -0.0326532
1.96 -0.0335744
1.97 -0.0353627
1.98 -0.0376297
1.99 -0.0400088
2 -0.0421865
2.01 -0.043876
2.02 -0.0448302
2.03 -0.0448477
2.04 -0.0436631
2.05 -0.0413315
2.06 -0.0378672
2.07 -0.0333536
2.08 -0.0279405
2.09 -0.0218392
2.1 -0.015309
2.11 -0.00871146
2.12 -0.00241685
2.13 0.0032127
2.14 0.00781397
2.15 0.0110366
2.16 0.0125567
2.17 0.0118461
2.18 0.00886269
2.19 0.003467
2.2 -0.0044256
2.21 -0.0148258
2.22 -0.0276686
2.23 -0.042909
2.24 -0.0603497
2.25 -0.0795359
2.26 -0.100122
2.27 -0.121721
2.28 -0.143914
2.29 -0.166267
2.3 -0.188272
2.31 -0.209482
2.32 -0.229509
2.33 -0.248001
2.34 -0.264656
2.35 -0.279233
2.36 -0.291474
2.37 -0.301155
2.38 -0.308452
2.39 -0.313422
2.4 -0.316191
2.41 -0.316944
2.42 -0.315922
2.43 -0.313306
2.44 -0.309543
2.45 -0.305018
2.46 -0.300079
2.47 -0.295069
2.48 -0.290313
2.49 -0.286129
2.5 -0.282864
2.51 -0.280665
2.52 -0.279685
2.53 -0.280022
2.54 -0.281718
2.55 -0.284762
2.56 -0.289178
2.57 -0.294788
2.58 -0.301374
2.59 -0.308743
2.6 -0.316673
2.61 -0.324932
2.62 -0.333276
2.63 -0.341427
2.64 -0.349158
2.65 -0.35627
2.66 -0.362588
2.67 -0.367972
2.68 -0.372315
2.69 -0.375474
2.7 -0.377436
2.71 -0.378275
2.72 -0.378041
2.73 -0.376817
2.74 -0.374708
2.75 -0.371841
2.76 -0.368305
2.77 -0.364335
2.78 -0.360084
2.79 -0.355699
2.8 -0.351316
2.81 -0.34706
2.82 -0.343051
2.83 -0.339386
2.84 -0.336105
2.85 -0.33324
2.86 -0.330802
2.87 -0.32878
2.88 -0.327142
2.89 -0.325872
2.9 -0.324869
2.91 -0.324055
2.92 -0.323351
2.93 -0.322676
2.94 -0.321948
2.95 -0.321076
2.96 -0.319969
2.97 -0.318569
2.98 -0.316814
2.99 -0.314647
3 -0.312019
3.01 -0.308884
3.02 -0.305141
3.03 -0.300788
3.04 -0.295794
3.05 -0.290115
3.06 -0.283702
3.07 -0.276502
3.08 -0.268425
3.09 -0.259345
3.1 -0.249263
3.11 -0.238099
3.12 -0.225771
3.13 -0.212196
3.14 -0.197294
3.15 -0.180864
3.16 -0.162907
3.17 -0.143419
3.18 -0.122368
3.19 -0.0997422
3.2 -0.0755542
3.21 -0.0498126
3.22 -0.0224883
3.23 0.0061672
3.24 0.0360175
3.25 0.066897
3.26 0.098612
3.27 0.130944
3.28 0.163658
3.29 0.196447
3.3 0.22902
3.31 0.261096
3.32 0.292392
3.33 0.322629
3.34 0.351526
3.35 0.378648
3.36 0.403917
3.37 0.427137
3.38 0.448137
3.39 0.466781
3.4 0.482968
3.41 0.496469
3.42 0.507274
3.43 0.515532
3.44 0.521284
3.45 0.524602
3.46 0.525583
3.47 0.524344
3.48 0.520798
3.49 0.515349
3.5 0.50816
3.51 0.499395
3.52 0.48922
3.53 0.477794
3.54 0.465227
3.55 0.451674
3.56 0.437341
3.57 0.422352
3.58 0.406823
3.59 0.390857
3.6 0.374548
3.61 0.357966
3.62 0.341221
3.63 0.324392
3.64 0.307551
3.65 0.290771
3.66 0.274125
3.67 0.257702
3.68 0.241607
3.69 0.225909
3.7 0.210702
3.71 0.196082
3.72 0.182151
3.73 0.169014
3.74 0.156874
3.75 0.145785
3.76 0.135832
3.77 0.127114
3.78 0.119725
3.79 0.113749
3.8 0.109308
3.81 0.106561
3.82 0.10542
3.83 0.105917
3.84 0.108067
3.85 0.111869
3.86 0.117308
3.87 0.124481
3.88 0.133259
3.89 0.143524
3.9 0.155205
3.91 0.168218
3.92 0.182473
3.93 0.197891
3.94 0.214438
3.95 0.231893
3.96 0.250144
3.97 0.269077
3.98 0.288576
3.99 0.308523
4 0.328815
4.01 0.349306
4.02 0.369862
4.03 0.39036
4.04 0.410676
4.05 0.430686
4.06 0.450257
4.07 0.469189
4.08 0.487401
4.09 0.504764
4.1 0.521149
4.11 0.536428
4.12 0.550478
4.13 0.56309
4.14 0.574142
4.15 0.583612
4.16 0.591409
4.17 0.597459
4.18 0.601701
4.19 0.604092
4.2 0.604392
4.21 0.602802
4.22 0.599347
4.23 0.594063
4.24 0.587004
4.25 0.578243
4.26 0.567791
4.27 0.555736
4.28 0.5423
4.29 0.527601
4.3 0.511763
4.31 0.494908
4.32 0.477155
4.33 0.45855
4.34 0.439275
4.35 0.419432
4.36 0.399097
4.37 0.378332
4.38 0.357182
4.39 0.335667
4.4 0.313787
4.41 0.291571
4.42 0.269008
4.43 0.246078
4.44 0.222757
4.45 0.199021
4.46 0.174804
4.47 0.150116
4.48 0.124964
4.49 0.0993552
4.5 0.0733115
4.51 0.0468737
4.52 0.0200943
4.53 -0.00695055
4.54 -0.0341282
4.55 -0.0613167
4.56 -0.0883781
4.57 -0.115161
4.58 -0.141503
4.59 -0.167173
4.6 -0.192005
4.61 -0.215854
4.62 -0.238563
4.63 -0.259987
4.64 -0.279996
4.65 -0.298457
4.66 -0.315145
4.67 -0.330166
4.68 -0.343501
4.69 -0.355162
4.7 -0.365189
4.71 -0.373652
4.72 -0.380556
4.73 -0.386071
4.74 -0.390415
4.75 -0.393748
4.76 -0.396243
4.77 -0.398076
4.78 -0.399423
4.79 -0.400443
4.8 -0.401348
4.81 -0.402281
4.82 -0.40337
4.83 -0.404717
4.84 -0.406403
4.85 -0.408507
4.86 -0.411057
4.87 -0.414026
4.88 -0.417384
4.89 -0.421078
4.9 -0.425039
4.91 -0.429179
4.92 -0.433394
4.93 -0.437556
4.94 -0.441551
4.95 -0.445267
4.96 -0.448595
4.97 -0.451435
4.98 -0.45367
4.99 -0.455198
5 -0.456008
5.01 -0.456062
5.02 -0.455339
5.03 -0.453837
5.04 -0.451566
5.05 -0.448487
5.06 -0.444705
5.07 -0.440287
5.08 -0.435292
5.09 -0.429784
5.1 -0.423827
5.11 -0.417475
5.12 -0.41078
5.13 -0.403827
5.14 -0.39666
5.15 -0.389317
5.16 -0.381825
5.17 -0.374203
5.18 -0.366452
5.19 -0.358579
5.2 -0.350585
5.21 -0.34246
5.22 -0.334193
5.23 -0.325773
5.24 -0.317188
5.25 -0.308422
5.26 -0.299493
5.27 -0.290413
5.28 -0.281202
5.29 -0.271889
5.3 -0.262516
5.31 -0.253134
5.32 -0.243812
5.33 -0.234619
5.34 -0.225627
5.35 -0.216916
5.36 -0.208563
5.37 -0.200656
5.38 -0.193324
5.39 -0.18659
5.4 -0.180513
5.41 -0.175143
5.42 -0.170519
5.43 -0.166665
5.44 -0.163644
5.45 -0.161437
5.46 -0.159983
5.47 -0.159247
5.48 -0.159178
5.49 -0.159717
5.5 -0.160794
5.51 -0.162373
5.52 -0.164307
5.53 -0.166506
5.54 -0.168879
5.55 -0.171334
5.56 -0.173784
5.57 -0.176132
5.58 -0.178286
5.59 -0.18018
5.6 -0.181749
5.61 -0.182934
5.62 -0.183684
5.63 -0.183955
5.64 -0.183649
5.65 -0.182784
5.66 -0.181339
5.67 -0.179291
5.68 -0.176622
5.69 -0.173316
5.7 -0.169331
5.71 -0.164633
5.72 -0.159258
5.73 -0.153198
5.74 -0.146445
5.75 -0.138995
5.76 -0.130844
5.77 -0.121927
5.78 -0.112307
5.79 -0.10201
5.8 -0.0910568
5.81 -0.0794767
5.82 -0.0673057
5.83 -0.0545733
5.84 -0.0413178
5.85 -0.0276496
5.86 -0.0136428
5.87 0.000621741
5.88 0.015057
5.89 0.0295715
5.9 0.0440613
5.91 0.0584208
5.92 0.0725583
5.93 0.0863858
5.94 0.0998219
5.95 0.112794
5.96 0.125226
5.97 0.137021
5.98 0.148198
5.99 0.158737
6 0.168633
6.01 0.177897
6.02 0.186552
6.03 0.194592
6.04 0.20209
6.05 0.209124
6.06 0.215756
6.07 0.222046
6.08 0.228058
6.09 0.233846
6.1 0.239452
6.11 0.244936
6.12 0.250327
6.13 0.255637
6.14 0.260866
6.15 0.265994
6.16 0.270978
6.17 0.275757
6.18 0.280272
6.19 0.284441
6.2 0.288175
6.21 0.291373
6.22 0.293932
6.23 0.295649
6.24 0.2965
6.25 0.29639
6.26 0.295233
6.27 0.292958
6.28 0.289508
6.29 0.284779
6.3 0.278737
6.31 0.271467
6.32 0.262998
6.33 0.253376
6.34 0.24267
6.35 0.230965
6.36 0.218279
6.37 0.204823
6.38 0.190735
6.39 0.176145
6.4 0.161187
6.41 0.14599
6.42 0.130684
6.43 0.115402
6.44 0.100254
6.45 0.0853292
6.46 0.0707016
6.47 0.0564272
6.48 0.0425445
6.49 0.0291133
6.5 0.0161045
6.51 0.0034918
6.52 -0.00875542
6.53 -0.0206794
6.54 -0.0323315
6.55 -0.0437644
6.56 -0.0550384
6.57 -0.0662314
6.58 -0.0774
6.59 -0.0885943
6.6 -0.0998561
6.61 -0.111216
6.62 -0.122703
6.63 -0.134315
6.64 -0.146035
6.65 -0.157835
6.66 -0.169675
6.67 -0.181502
6.68 -0.193247
6.69 -0.204815
6.7 -0.21613
6.71 -0.227104
6.72 -0.237646
6.73 -0.247665
6.74 -0.257072
6.75 -0.265724
6.76 -0.273552
6.77 -0.280518
6.78 -0.28656
6.79 -0.291627
6.8 -0.295677
6.81 -0.298669
6.82 -0.300471
6.83 -0.301186
6.84 -0.300812
6.85 -0.299349
6.86 -0.296807
6.87 -0.293196
6.88 -0.288465
6.89 -0.282639
6.9 -0.275787
6.91 -0.267924
6.92 -0.259058
6.93 -0.249197
6.94 -0.238343
6.95 -0.226384
6.96 -0.213428
6.97 -0.199471
6.98 -0.184508
6.99 -0.168533
7 -0.151541
7.01 -0.133478
7.02 -0.114331
7.03 -0.0941754
7.04 -0.0730272
7.05 -0.05091
7.06 -0.0278564
7.07 -0.00390871
7.08 0.0209605
7.09 0.046604
7.1 0.0729333
7.11 0.0998615
7.12 0.127292
7.13 0.15512
7.14 0.183237
7.15 0.211513
7.16 0.239802
7.17 0.267973
7.18 0.295896
7.19 0.323439
7.2 0.350472
7.21 0.376796
7.22 0.402318
7.23 0.426935
7.24 0.450538
7.25 0.473022
7.26 0.494292
7.27 0.51422
7.28 0.532633
7.29 0.54958
7.3 0.565001
7.31 0.578845
7.32 0.591067
7.33 0.601632
7.34 0.610372
7.35 0.61734
7.36 0.622583
7.37 0.626092
7.38 0.627866
7.39 0.627906
7.4 0.626192
7.41 0.622595
7.42 0.617305
7.43 0.610346
7.44 0.601744
7.45 0.591531
7.46 0.579742
7.47 0.566316
7.48 0.551341
7.49 0.534943
7.5 0.517179
7.51 0.498114
7.52 0.477818
7.53 0.456363
7.54 0.433728
7.55 0.410132
7.56 0.38567
7.57 0.360446
7.58 0.334569
7.59 0.308153
7.6 0.281302
7.61 0.254158
7.62 0.226876
7.63 0.199587
7.64 0.172425
7.65 0.145526
7.66 0.119025
7.67 0.0931306
7.68 0.0679298
7.69 0.0435467
7.7 0.0201025
7.71 -0.00228859
7.72 -0.0235206
7.73 -0.043433
7.74 -0.0619008
7.75 -0.0789425
7.76 -0.0945022
7.77 -0.108538
7.78 -0.121024
7.79 -0.131949
7.8 -0.141163
7.81 -0.148823
7.82 -0.154993
7.83 -0.159729
7.84 -0.163098
7.85 -0.165179
7.86 -0.166023
7.87 -0.165695
7.88 -0.1644
7.89 -0.162248
7.9 -0.159354
7.91 -0.15583
7.92 -0.151789
7.93 -0.147309
7.94 -0.142528
7.95 -0.137545
7.96 -0.132439
7.97 -0.127279
7.98 -0.122122
7.99 -0.117011
8 -0.111987
8.01 -0.10706
8.02 -0.102235
8.03 -0.0975067
8.04 -0.0928614
8.05 -0.0882789
8.06 -0.0837343
8.07 -0.079194
8.08 -0.074628
8.09 -0.0700095
8.1 -0.0653152
8.11 -0.0605275
8.12 -0.0556342
8.13 -0.0506242
8.14 -0.0455175
8.15 -0.0403324
8.16 -0.0350969
8.17 -0.0298478
8.18 -0.0246296
8.19 -0.0195034
8.2 -0.0145332
8.21 -0.00977488
8.22 -0.00528942
8.23 -0.00113622
8.24 0.00262912
8.25 0.00595522
8.26 0.00874363
8.27 0.0110161
8.28 0.012755
8.29 0.0139553
8.3 0.0146249
8.31 0.014785
8.32 0.0144454
8.33 0.0136589
8.34 0.0125132
8.35 0.0110759
8.36 0.00942065
8.37 0.00762505
8.38 0.00576785
8.39 0.00393608
8.4 0.0022072
8.41 0.000644716
8.42 -0.000697663
8.43 -0.00177827
8.44 -0.00256916
8.45 -0.00304377
8.46 -0.00319976
8.47 -0.00308213
8.48 -0.00272953
8.49 -0.002195
8.5 -0.00154456
8.51 -0.000855221
8.52 -0.000226442
8.53 0.000242859
8.54 0.000458728
8.55 0.000326974
8.56 -0.000242752
8.57 -0.00133407
8.58 -0.00304382
8.59 -0.00547306
8.6 -0.00861563
8.61 -0.0124999
8.62 -0.0171377
8.63 -0.0225236
8.64 -0.0286354
8.65 -0.0354899
8.66 -0.0429855
8.67 -0.051032
8.68 -0.0595495
8.69 -0.0684503
8.7 -0.0776414
8.71 -0.0870299
8.72 -0.0965164
8.73 -0.105994
8.74 -0.115381
8.75 -0.124602
8.76 -0.133594
8.77 -0.142305
8.78 -0.150669
8.79 -0.158672
8.8 -0.166318
8.81 -0.17361
8.82 -0.180562
8.83 -0.187199
8.84 -0.193549
8.85 -0.19963
8.86 -0.205511
8.87 -0.211233
8.88 -0.216834
8.89 -0.222346
8.9 -0.227796
8.91 -0.2332
8.92 -0.238569
8.93 -0.2439
8.94 -0.24918
8.95 -0.254385
8.96 -0.259479
8.97 -0.264422
8.98 -0.269134
8.99 -0.273579
9 -0.277699
9.01 -0.281438
9.02 -0.284738
9.03 -0.28755
9.04 -0.289799
9.05 -0.29144
9.06 -0.292484
9.07 -0.292921
9.08 -0.292752
9.09 -0.291993
9.1 -0.29067
9.11 -0.288772
9.12 -0.286408
9.13 -0.283643
9.14 -0.280547
9.15 -0.277194
9.16 -0.273661
9.17 -0.270022
9.18 -0.266362
9.19 -0.262756
9.2 -0.259264
9.21 -0.255938
9.22 -0.252821
9.23 -0.24994
9.24 -0.247339
9.25 -0.245001
9.26 -0.242911
9.27 -0.241045
9.28 -0.239371
9.29 -0.237848
9.3 -0.23643
9.31 -0.235059
9.32 -0.23367
9.33 -0.232209
9.34 -0.230623
9.35 -0.228863
9.36 -0.226887
9.37 -0.224637
9.38 -0.2221
9.39 -0.219273
9.4 -0.216153
9.41 -0.212749
9.42 -0.20908
9.43 -0.205168
9.44 -0.201039
9.45 -0.196757
9.46 -0.192367
9.47 -0.187916
9.48 -0.183451
9.49 -0.179016
9.5 -0.174656
9.51 -0.170404
9.52 -0.166277
9.53 -0.162285
9.54 -0.158427
9.55 -0.154691
9.56 -0.15105
9.57 -0.147469
9.58 -0.143887
9.59 -0.140243
9.6 -0.136468
9.61 -0.132487
9.62 -0.128219
9.63 -0.123553
9.64 -0.118398
9.65 -0.112695
9.66 -0.106369
9.67 -0.0993539
9.68 -0.0915896
9.69 -0.0830284
9.7 -0.0735348
9.71 -0.0631806
9.72 -0.0519602
9.73 -0.0398806
9.74 -0.0269622
9.75 -0.0132379
9.76 0.00128303
9.77 0.0165447
9.78 0.0324298
9.79 0.0488628
9.8 0.0657624
9.81 0.0830431
9.82 0.100617
9.83 0.118407
9.84 0.136297
9.85 0.1542
9.86 0.172034
9.87 0.189722
9.88 0.207192
9.89 0.224364
9.9 0.241159
9.91 0.257547
9.92 0.273482
9.93 0.288923
9.94 0.303836
9.95 0.31819
9.96 0.331901
9.97 0.344986
9.98 0.357438
9.99 0.36924
10 0.380376
10.01 0.390833
10.02 0.400577
10.03 0.409553
10.04 0.417812
10.05 0.425345
10.06 0.432146
10.07 0.43821
10.08 0.443535
10.09 0.448062
10.1 0.451832
10.11 0.454883
10.12 0.457229
10.13 0.458893
10.14 0.459901
10.15 0.460275
10.16 0.460012
10.17 0.459217
10.18 0.457942
10.19 0.45624
10.2 0.454171
10.21 0.451795
10.22 0.449164
10.23 0.446355
10.24 0.443444
10.25 0.44049
10.26 0.437551
10.27 0.43468
10.28 0.431924
10.29 0.429343
10.3 0.426953
10.31 0.424775
10.32 0.42282
10.33 0.421088
10.34 0.41957
10.35 0.418257
10.36 0.417113
10.37 0.416086
10.38 0.415125
10.39 0.414175
10.4 0.413169
10.41 0.412041
10.42 0.410684
10.43 0.409039
10.44 0.407028
10.45 0.404575
10.46 0.401608
10.47 0.398056
10.48 0.393821
10.49 0.388823
10.5 0.383059
10.51 0.376489
10.52 0.369084
10.53 0.360823
10.54 0.351697
10.55 0.341618
10.56 0.330677
10.57 0.31891
10.58 0.306349
10.59 0.293036
10.6 0.27902
10.61 0.264334
10.62 0.249027
10.63 0.233214
10.64 0.216965
10.65 0.200353
10.66 0.183446
10.67 0.166318
10.68 0.149027
10.69 0.131655
10.7 0.114268
10.71 0.0969182
10.72 0.0796555
10.73 0.0625224
10.74 0.0455604
10.75 0.0288143
10.76 0.0122897
10.77 -0.00399864
10.78 -0.020042
10.79 -0.035837
10.8 -0.0513853
10.81 -0.0666742
10.82 -0.0817248
10.83 -0.0965585
10.84 -0.111189
10.85 -0.125632
10.86 -0.139902
10.87 -0.15401
10.88 -0.167959
10.89 -0.181774
10.9 -0.195463
10.91 -0.209032
10.92 -0.222482
10.93 -0.235812
10.94 -0.249009
10.95 -0.262065
10.96 -0.274975
10.97 -0.287724
10.98 -0.300296
10.99 -0.312671
11 -0.324827
11.01 -0.336713
11.02 -0.348328
11.03 -0.359648
11.04 -0.370647
11.05 -0.381297
11.06 -0.391573
11.07 -0.401423
11.08 -0.410815
11.09 -0.419746
11.1 -0.428188
11.11 -0.436117
11.12 -0.443504
11.13 -0.450323
11.14 -0.45648
11.15 -0.462008
11.16 -0.466885
11.17 -0.471085
11.18 -0.474586
11.19 -0.477362
11.2 -0.479358
11.21 -0.480531
11.22 -0.480917
11.23 -0.480502
11.24 -0.479273
11.25 -0.477222
11.26 -0.474346
11.27 -0.470562
11.28 -0.465943
11.29 -0.460515
11.3 -0.454293
11.31 -0.447298
11.32 -0.439553
11.33 -0.431065
11.34 -0.42184
11.35 -0.411975
11.36 -0.401512
11.37 -0.390493
11.38 -0.378965
11.39 -0.366973
11.4 -0.354532
11.41 -0.341717
11.42 -0.328584
11.43 -0.315176
11.44 -0.301533
11.45 -0.287692
11.46 -0.273682
11.47 -0.259529
11.48 -0.245274
11.49 -0.230939
11.5 -0.216547
11.51 -0.202114
11.52 -0.187658
11.53 -0.173195
11.54 -0.158743
11.55 -0.144318
11.56 -0.129937
11.57 -0.11562
11.58 -0.101388
11.59 -0.0872686
11.6 -0.0733052
11.61 -0.0595188
11.62 -0.0459452
11.63 -0.0326236
11.64 -0.0195955
11.65 -0.00690501
11.66 0.00537413
11.67 0.0171951
11.68 0.0285328
11.69 0.0393441
11.7 0.0495888
11.71 0.0592308
11.72 0.0682378
11.73 0.0765085
11.74 0.0841004
11.75 0.0910055
11.76 0.0972236
11.77 0.102763
11.78 0.10764
11.79 0.111845
11.8 0.115413
11.81 0.118421
11.82 0.120916
11.83 0.122947
11.84 0.124564
11.85 0.125823
11.86 0.126746
11.87 0.127421
11.88 0.127897
11.89 0.128215
11.9 0.12841
11.91 0.128509
11.92 0.12853
11.93 0.128481
11.94 0.128366
11.95 0.128176
11.96 0.127891
11.97 0.127482
11.98 0.126916
11.99 0.126125
12 0.12507
12.01 0.123702
12.02 0.121965
12.03 0.119801
12.04 0.117153
12.05 0.113945
12.06 0.110087
12.07 0.105578
12.08 0.100374
12.09 0.0944411
12.1 0.087749
12.11 0.0802764
12.12 0.0719413
12.13 0.0627825
12.14 0.05283
12.15 0.0420972
12.16 0.0306055
