# xPDFsuite Configuration #
[PDF]
wavelength = 0.1
dataformat = QA
inputfile = BiMsol6_insitu_700 C-00055.xy
backgroundfile = Quartz2mm-dist500-00000.xy
mode = xray
bgscale = 0.0042
composition = Bi2Fe4O9
outputtype = gr
qmaxinst = 24.998449118
qmin = 0.1
qmax = 21.4986662415
rmax = 80.0
rmin = 0.0
rstep = 0.01
rpoly = 0.9

[Misc]
inputdir = C:/Data/Seafile/CPH/Beamtime/Desy Oct 20/In situ data/Processed/BiMsol6/PDF
savedir = C:/Data/Seafile/CPH/Beamtime/Desy Oct 20/In situ data/PDF/BiMsol6
backgroundfilefull = C:/Data/Seafile/CPH/Beamtime/Desy Oct 20/In situ data/Processed/Standard_Empty_Cap/Quartz2mm-dist500-00000.xy

#### start data
#S 1
#L r($\AA$)  G($\AA^{-2}$)
0 0
0.01 0.00688745
0.02 0.0133908
0.03 0.0191814
0.04 0.0239642
0.05 0.0274912
0.06 0.0295733
0.07 0.0300034
0.08 0.0287204
0.09 0.0258754
0.1 0.0215924
0.11 0.0160643
0.12 0.00954423
0.13 0.00233467
0.14 -0.00522521
0.15 -0.0127057
0.16 -0.0197447
0.17 -0.026002
0.18 -0.0311725
0.19 -0.0350003
0.2 -0.0372226
0.21 -0.0376584
0.22 -0.0364083
0.23 -0.0335394
0.24 -0.0292012
0.25 -0.0236206
0.26 -0.0170937
0.27 -0.00995518
0.28 -0.00269381
0.29 0.00425621
0.3 0.0104734
0.31 0.0155567
0.32 0.0191451
0.33 0.0208731
0.34 0.0203833
0.35 0.0177256
0.36 0.0128936
0.37 0.00599011
0.38 -0.00277212
0.39 -0.0130731
0.4 -0.0245434
0.41 -0.0365413
0.42 -0.0484373
0.43 -0.0595924
0.44 -0.0693461
0.45 -0.0770411
0.46 -0.0819839
0.47 -0.0832845
0.48 -0.0807497
0.49 -0.0740226
0.5 -0.0628743
0.51 -0.0472181
0.52 -0.0271196
0.53 -0.00252448
0.54 0.0259877
0.55 0.0576599
0.56 0.0917858
0.57 0.127543
0.58 0.164015
0.59 0.200206
0.6 0.23484
0.61 0.266944
0.62 0.295531
0.63 0.319681
0.64 0.338572
0.65 0.351507
0.66 0.357514
0.67 0.356222
0.68 0.347852
0.69 0.33245
0.7 0.310253
0.71 0.281685
0.72 0.247343
0.73 0.207506
0.74 0.163731
0.75 0.117048
0.76 0.0685402
0.77 0.019327
0.78 -0.0294734
0.79 -0.076645
0.8 -0.120987
0.81 -0.161719
0.82 -0.198076
0.83 -0.229442
0.84 -0.255367
0.85 -0.275574
0.86 -0.28937
0.87 -0.297397
0.88 -0.300022
0.89 -0.297687
0.9 -0.290961
0.91 -0.280521
0.92 -0.267046
0.93 -0.251384
0.94 -0.234592
0.95 -0.217493
0.96 -0.200869
0.97 -0.185435
0.98 -0.171819
0.99 -0.160796
1 -0.152633
1.01 -0.147506
1.02 -0.14552
1.03 -0.146648
1.04 -0.150742
1.05 -0.157609
1.06 -0.166979
1.07 -0.178168
1.08 -0.190679
1.09 -0.203987
1.1 -0.217563
1.11 -0.230895
1.12 -0.243414
1.13 -0.254692
1.14 -0.264429
1.15 -0.272383
1.16 -0.278404
1.17 -0.282434
1.18 -0.284476
1.19 -0.284527
1.2 -0.282999
1.21 -0.280173
1.22 -0.276377
1.23 -0.271966
1.24 -0.267309
1.25 -0.262802
1.26 -0.258824
1.27 -0.255655
1.28 -0.253526
1.29 -0.252603
1.3 -0.252978
1.31 -0.254675
1.32 -0.257747
1.33 -0.261895
1.34 -0.266901
1.35 -0.272494
1.36 -0.278363
1.37 -0.28417
1.38 -0.289522
1.39 -0.294031
1.4 -0.297414
1.41 -0.299407
1.42 -0.2998
1.43 -0.29845
1.44 -0.295288
1.45 -0.290131
1.46 -0.283288
1.47 -0.274957
1.48 -0.265399
1.49 -0.254934
1.5 -0.243932
1.51 -0.232813
1.52 -0.222067
1.53 -0.212118
1.54 -0.203365
1.55 -0.196165
1.56 -0.190824
1.57 -0.18758
1.58 -0.186824
1.59 -0.188429
1.6 -0.192311
1.61 -0.198332
1.62 -0.206266
1.63 -0.215803
1.64 -0.22659
1.65 -0.238152
1.66 -0.249906
1.67 -0.261339
1.68 -0.271938
1.69 -0.281206
1.7 -0.28868
1.71 -0.293721
1.72 -0.296099
1.73 -0.295636
1.74 -0.292189
1.75 -0.28571
1.76 -0.276254
1.77 -0.263904
1.78 -0.248779
1.79 -0.231484
1.8 -0.212435
1.81 -0.192101
1.82 -0.170987
1.83 -0.149615
1.84 -0.128568
1.85 -0.108395
1.86 -0.0895333
1.87 -0.0723725
1.88 -0.0572313
1.89 -0.0443466
1.9 -0.0339024
1.91 -0.0261635
1.92 -0.0208176
1.93 -0.0177124
1.94 -0.0166161
1.95 -0.017227
1.96 -0.0191879
1.97 -0.0221352
1.98 -0.0255665
1.99 -0.0290121
2 -0.0320635
2.01 -0.0343463
2.02 -0.0355353
2.03 -0.0353626
2.04 -0.0334572
2.05 -0.029896
2.06 -0.0246838
2.07 -0.0179126
2.08 -0.0097592
2.09 -0.000478245
2.1 0.00962972
2.11 0.0201202
2.12 0.030517
2.13 0.0403684
2.14 0.049219
2.15 0.0566266
2.16 0.0621794
2.17 0.0652347
2.18 0.0656979
2.19 0.0633757
2.2 0.0581422
2.21 0.0499607
2.22 0.0388861
2.23 0.0249502
2.24 0.0083656
2.25 -0.0103424
2.26 -0.0307781
2.27 -0.0524937
2.28 -0.0750049
2.29 -0.097806
2.3 -0.120316
2.31 -0.142004
2.32 -0.162419
2.33 -0.18115
2.34 -0.19785
2.35 -0.212238
2.36 -0.224025
2.37 -0.232961
2.38 -0.23925
2.39 -0.242967
2.4 -0.244265
2.41 -0.243368
2.42 -0.240563
2.43 -0.236081
2.44 -0.230435
2.45 -0.22407
2.46 -0.217386
2.47 -0.210775
2.48 -0.204605
2.49 -0.199234
2.5 -0.195051
2.51 -0.192193
2.52 -0.190811
2.53 -0.190991
2.54 -0.192753
2.55 -0.196053
2.56 -0.200882
2.57 -0.207002
2.58 -0.214137
2.59 -0.222039
2.6 -0.230435
2.61 -0.23904
2.62 -0.247566
2.63 -0.255673
2.64 -0.263126
2.65 -0.269709
2.66 -0.275244
2.67 -0.279594
2.68 -0.282671
2.69 -0.284349
2.7 -0.284661
2.71 -0.283736
2.72 -0.281678
2.73 -0.278623
2.74 -0.274733
2.75 -0.270189
2.76 -0.265151
2.77 -0.259886
2.78 -0.254577
2.79 -0.249395
2.8 -0.244487
2.81 -0.239977
2.82 -0.235983
2.83 -0.232573
2.84 -0.229729
2.85 -0.227433
2.86 -0.225635
2.87 -0.22426
2.88 -0.223208
2.89 -0.22237
2.9 -0.221585
2.91 -0.220717
2.92 -0.219636
2.93 -0.218219
2.94 -0.216359
2.95 -0.213938
2.96 -0.210863
2.97 -0.207138
2.98 -0.202749
2.99 -0.197711
3 -0.192061
3.01 -0.185858
3.02 -0.179141
3.03 -0.17205
3.04 -0.164697
3.05 -0.157187
3.06 -0.149624
3.07 -0.142105
3.08 -0.134722
3.09 -0.127562
3.1 -0.120661
3.11 -0.114044
3.12 -0.107715
3.13 -0.101654
3.14 -0.0958212
3.15 -0.0901643
3.16 -0.0845849
3.17 -0.0789841
3.18 -0.0732592
3.19 -0.0673033
3.2 -0.0610091
3.21 -0.0542624
3.22 -0.0469174
3.23 -0.0389398
3.24 -0.0302666
3.25 -0.0208531
3.26 -0.0106736
3.27 0.000277377
3.28 0.0120392
3.29 0.0245486
3.3 0.0377195
3.31 0.0514849
3.32 0.0657678
3.33 0.0804843
3.34 0.0955496
3.35 0.110892
3.36 0.126395
3.37 0.141984
3.38 0.157597
3.39 0.173182
3.4 0.188701
3.41 0.204123
3.42 0.219439
3.43 0.234658
3.44 0.249794
3.45 0.264871
3.46 0.279915
3.47 0.294953
3.48 0.310018
3.49 0.325127
3.5 0.34029
3.51 0.355504
3.52 0.370749
3.53 0.38599
3.54 0.401169
3.55 0.416197
3.56 0.430985
3.57 0.445424
3.58 0.459388
3.59 0.472742
3.6 0.485341
3.61 0.496929
3.62 0.507424
3.63 0.516695
3.64 0.524611
3.65 0.53105
3.66 0.535913
3.67 0.539046
3.68 0.540326
3.69 0.539852
3.7 0.537627
3.71 0.533675
3.72 0.528051
3.73 0.520831
3.74 0.511988
3.75 0.501764
3.76 0.490335
3.77 0.477854
3.78 0.464483
3.79 0.45039
3.8 0.435729
3.81 0.420662
3.82 0.405389
3.83 0.390054
3.84 0.374787
3.85 0.359703
3.86 0.344899
3.87 0.330491
3.88 0.31653
3.89 0.303044
3.9 0.290057
3.91 0.277578
3.92 0.265605
3.93 0.254131
3.94 0.243164
3.95 0.232624
3.96 0.222474
3.97 0.212672
3.98 0.203179
3.99 0.193954
4 0.184972
4.01 0.176187
4.02 0.167558
4.03 0.159057
4.04 0.15066
4.05 0.142348
4.06 0.134104
4.07 0.125919
4.08 0.117775
4.09 0.109664
4.1 0.101578
4.11 0.0935111
4.12 0.0854584
4.13 0.0774164
4.14 0.0693816
4.15 0.0613525
4.16 0.0533298
4.17 0.0453165
4.18 0.0373187
4.19 0.0293457
4.2 0.021417
4.21 0.0135487
4.22 0.00576384
4.23 -0.00190968
4.24 -0.00943977
4.25 -0.0167905
4.26 -0.0239098
4.27 -0.0307453
4.28 -0.0372698
4.29 -0.0434418
4.3 -0.0492218
4.31 -0.0545743
4.32 -0.059469
4.33 -0.0638317
4.34 -0.0676893
4.35 -0.0710461
4.36 -0.0739092
4.37 -0.076297
4.38 -0.0782387
4.39 -0.0797606
4.4 -0.0809064
4.41 -0.0817683
4.42 -0.0824141
4.43 -0.0829164
4.44 -0.0833505
4.45 -0.0837923
4.46 -0.0843294
4.47 -0.085033
4.48 -0.0859611
4.49 -0.087164
4.5 -0.0886808
4.51 -0.0905374
4.52 -0.0927553
4.53 -0.0953514
4.54 -0.0982722
4.55 -0.101482
4.56 -0.104932
4.57 -0.108561
4.58 -0.112301
4.59 -0.116069
4.6 -0.11977
4.61 -0.123321
4.62 -0.126639
4.63 -0.129647
4.64 -0.132275
4.65 -0.134453
4.66 -0.136088
4.67 -0.137194
4.68 -0.137754
4.69 -0.137767
4.7 -0.137247
4.71 -0.136224
4.72 -0.134712
4.73 -0.132788
4.74 -0.130541
4.75 -0.128048
4.76 -0.125389
4.77 -0.122649
4.78 -0.119911
4.79 -0.117275
4.8 -0.114812
4.81 -0.112589
4.82 -0.110663
4.83 -0.109079
4.84 -0.107872
4.85 -0.107087
4.86 -0.106735
4.87 -0.106787
4.88 -0.107228
4.89 -0.108034
4.9 -0.109172
4.91 -0.110605
4.92 -0.112312
4.93 -0.114218
4.94 -0.116277
4.95 -0.118446
4.96 -0.120683
4.97 -0.122952
4.98 -0.125221
4.99 -0.127459
5 -0.129648
5.01 -0.131775
5.02 -0.133831
5.03 -0.13581
5.04 -0.137712
5.05 -0.13953
5.06 -0.141271
5.07 -0.14294
5.08 -0.144534
5.09 -0.146054
5.1 -0.147492
5.11 -0.148838
5.12 -0.150072
5.13 -0.151187
5.14 -0.152164
5.15 -0.152982
5.16 -0.153621
5.17 -0.154059
5.18 -0.154255
5.19 -0.154205
5.2 -0.153902
5.21 -0.15334
5.22 -0.15252
5.23 -0.151447
5.24 -0.15013
5.25 -0.148581
5.26 -0.14685
5.27 -0.144975
5.28 -0.142998
5.29 -0.140963
5.3 -0.138919
5.31 -0.136921
5.32 -0.135019
5.33 -0.133253
5.34 -0.13166
5.35 -0.130268
5.36 -0.129097
5.37 -0.128159
5.38 -0.127471
5.39 -0.126994
5.4 -0.1267
5.41 -0.126552
5.42 -0.126503
5.43 -0.126501
5.44 -0.126478
5.45 -0.126363
5.46 -0.126093
5.47 -0.125606
5.48 -0.124845
5.49 -0.123761
5.5 -0.122311
5.51 -0.120422
5.52 -0.118124
5.53 -0.115418
5.54 -0.112322
5.55 -0.108864
5.56 -0.105089
5.57 -0.101041
5.58 -0.0967961
5.59 -0.0924447
5.6 -0.0880658
5.61 -0.0837392
5.62 -0.0795433
5.63 -0.0755511
5.64 -0.0718629
5.65 -0.0685094
5.66 -0.0655255
5.67 -0.062933
5.68 -0.0607375
5.69 -0.0589274
5.7 -0.0574879
5.71 -0.056375
5.72 -0.0555003
5.73 -0.0547893
5.74 -0.0541586
5.75 -0.0535189
5.76 -0.0527783
5.77 -0.0518191
5.78 -0.050562
5.79 -0.0489362
5.8 -0.0468798
5.81 -0.0443454
5.82 -0.0413032
5.83 -0.0377254
5.84 -0.0335984
5.85 -0.0289997
5.86 -0.0239818
5.87 -0.018614
5.88 -0.0129808
5.89 -0.00717826
5.9 -0.00131512
5.91 0.00448184
5.92 0.0101018
5.93 0.0154403
5.94 0.0204015
5.95 0.0249022
5.96 0.028862
5.97 0.032186
5.98 0.0349033
5.99 0.0370141
6 0.0385411
6.01 0.0395293
6.02 0.0400445
6.03 0.0401497
6.04 0.0399744
6.05 0.03965
6.06 0.0392993
6.07 0.0390479
6.08 0.03902
6.09 0.0393384
6.1 0.0401649
6.11 0.0415489
6.12 0.0435596
6.13 0.0462444
6.14 0.049627
6.15 0.0537064
6.16 0.0584959
6.17 0.063926
6.18 0.0698814
6.19 0.0762624
6.2 0.0829523
6.21 0.0898212
6.22 0.0967305
6.23 0.103509
6.24 0.110012
6.25 0.116105
6.26 0.121664
6.27 0.126577
6.28 0.130752
6.29 0.134074
6.3 0.136479
6.31 0.138004
6.32 0.138656
6.33 0.138468
6.34 0.137492
6.35 0.135806
6.36 0.133447
6.37 0.130594
6.38 0.127376
6.39 0.123917
6.4 0.120344
6.41 0.11678
6.42 0.113353
6.43 0.11019
6.44 0.107368
6.45 0.104958
6.46 0.103013
6.47 0.101565
6.48 0.100626
6.49 0.100234
6.5 0.100319
6.51 0.100823
6.52 0.101683
6.53 0.102824
6.54 0.104164
6.55 0.105615
6.56 0.107076
6.57 0.108451
6.58 0.109655
6.59 0.110614
6.6 0.111262
6.61 0.111546
6.62 0.11139
6.63 0.110785
6.64 0.109739
6.65 0.108256
6.66 0.106356
6.67 0.10407
6.68 0.101431
6.69 0.0984738
6.7 0.0952865
6.71 0.0919285
6.72 0.0884602
6.73 0.0849408
6.74 0.0814265
6.75 0.0779762
6.76 0.0746391
6.77 0.0714484
6.78 0.0684323
6.79 0.065611
6.8 0.0629962
6.81 0.060594
6.82 0.0584214
6.83 0.056445
6.84 0.0546499
6.85 0.0530175
6.86 0.0515272
6.87 0.0501573
6.88 0.0488908
6.89 0.0477035
6.9 0.0465722
6.91 0.0454812
6.92 0.0444179
6.93 0.0433727
6.94 0.0423387
6.95 0.0413123
6.96 0.0402908
6.97 0.0392738
6.98 0.0382615
6.99 0.0372542
7 0.0362512
7.01 0.0352505
7.02 0.0342469
7.03 0.0332334
7.04 0.0322005
7.05 0.0311358
7.06 0.0300249
7.07 0.0288513
7.08 0.0275869
7.09 0.0262182
7.1 0.024728
7.11 0.0230993
7.12 0.021317
7.13 0.0193693
7.14 0.0172412
7.15 0.0149226
7.16 0.0124305
7.17 0.00977349
7.18 0.00696633
7.19 0.00402926
7.2 0.000987942
7.21 -0.00213061
7.22 -0.00528195
7.23 -0.00842557
7.24 -0.0115207
7.25 -0.0145259
7.26 -0.0173996
7.27 -0.0200963
7.28 -0.0225616
7.29 -0.0247789
7.3 -0.0267209
7.31 -0.0283657
7.32 -0.0296974
7.33 -0.0307069
7.34 -0.0313654
7.35 -0.031693
7.36 -0.031713
7.37 -0.0314429
7.38 -0.0309051
7.39 -0.0301263
7.4 -0.0291334
7.41 -0.0279487
7.42 -0.0266273
7.43 -0.0252043
7.44 -0.0237146
7.45 -0.022192
7.46 -0.020669
7.47 -0.0191802
7.48 -0.0177566
7.49 -0.0164212
7.5 -0.0151964
7.51 -0.0141016
7.52 -0.0131538
7.53 -0.0123689
7.54 -0.0117789
7.55 -0.0113759
7.56 -0.0111681
7.57 -0.0111626
7.58 -0.0113647
7.59 -0.0117785
7.6 -0.012419
7.61 -0.0132865
7.62 -0.0143667
7.63 -0.0156555
7.64 -0.0171464
7.65 -0.0188295
7.66 -0.0206923
7.67 -0.0227345
7.68 -0.0249164
7.69 -0.0272128
7.7 -0.029596
7.71 -0.032035
7.72 -0.0344962
7.73 -0.0369414
7.74 -0.039327
7.75 -0.0416167
7.76 -0.0437742
7.77 -0.0457649
7.78 -0.0475572
7.79 -0.049124
7.8 -0.0504163
7.81 -0.0514387
7.82 -0.0521881
7.83 -0.0526648
7.84 -0.0528769
7.85 -0.05284
7.86 -0.0525698
7.87 -0.0520926
7.88 -0.0514627
7.89 -0.0507212
7.9 -0.0499115
7.91 -0.0490782
7.92 -0.0482654
7.93 -0.0475236
7.94 -0.0468899
7.95 -0.0463919
7.96 -0.0460516
7.97 -0.0458822
7.98 -0.0458873
7.99 -0.046064
8 -0.0464022
8.01 -0.0468577
8.02 -0.0473926
8.03 -0.047962
8.04 -0.0485151
8.05 -0.0489975
8.06 -0.0493387
8.07 -0.049482
8.08 -0.0493822
8.09 -0.0489955
8.1 -0.0482869
8.11 -0.0472321
8.12 -0.0458141
8.13 -0.0440054
8.14 -0.0418634
8.15 -0.0394231
8.16 -0.0367339
8.17 -0.0338583
8.18 -0.03087
8.19 -0.0278568
8.2 -0.0249234
8.21 -0.0221649
8.22 -0.0196753
8.23 -0.0175449
8.24 -0.0158568
8.25 -0.0146854
8.26 -0.0141584
8.27 -0.0142535
8.28 -0.0149899
8.29 -0.0163663
8.3 -0.0183603
8.31 -0.0209286
8.32 -0.0240312
8.33 -0.0275714
8.34 -0.0314147
8.35 -0.0354442
8.36 -0.0395329
8.37 -0.0435478
8.38 -0.0473545
8.39 -0.0507697
8.4 -0.0536921
8.41 -0.0560141
8.42 -0.057641
8.43 -0.0584973
8.44 -0.0585289
8.45 -0.0576667
8.46 -0.0558853
8.47 -0.0532729
8.48 -0.0498805
8.49 -0.0457816
8.5 -0.0410703
8.51 -0.0358578
8.52 -0.0302461
8.53 -0.0244161
8.54 -0.0185153
8.55 -0.0126838
8.56 -0.00705652
8.57 -0.00175887
8.58 0.00307855
8.59 0.00732416
8.6 0.0109469
8.61 0.0139001
8.62 0.0161605
8.63 0.0177285
8.64 0.018628
8.65 0.0188563
8.66 0.0185255
8.67 0.0177403
8.68 0.0165993
8.69 0.0152094
8.7 0.0136817
8.71 0.0121297
8.72 0.010679
8.73 0.0094261
8.74 0.0084541
8.75 0.00783056
8.76 0.00760521
8.77 0.0078084
8.78 0.00848299
8.79 0.00959893
8.8 0.0111039
8.81 0.0129467
8.82 0.0150612
8.83 0.0173698
8.84 0.0197866
8.85 0.0222109
8.86 0.0245422
8.87 0.0266936
8.88 0.0285858
8.89 0.0301504
8.9 0.0313325
8.91 0.0320641
8.92 0.0323287
8.93 0.0321499
8.94 0.0315471
8.95 0.0305569
8.96 0.0292314
8.97 0.0276359
8.98 0.0258342
8.99 0.0239411
9 0.0220447
9.01 0.0202325
9.02 0.018588
9.03 0.0171872
9.04 0.0161151
9.05 0.0154328
9.06 0.0151527
9.07 0.01529
9.08 0.0158426
9.09 0.0167907
9.1 0.0180982
9.11 0.0197394
9.12 0.0216114
9.13 0.023634
9.14 0.0257236
9.15 0.0277936
9.16 0.0297578
9.17 0.0315224
9.18 0.0329945
9.19 0.0341274
9.2 0.0348728
9.21 0.0351978
9.22 0.0350857
9.23 0.0345373
9.24 0.0335331
9.25 0.0321452
9.26 0.0304347
9.27 0.0284663
9.28 0.0263139
9.29 0.0240582
9.3 0.021785
9.31 0.0195926
9.32 0.0175596
9.33 0.0157571
9.34 0.0142455
9.35 0.0130725
9.36 0.0122711
9.37 0.0118918
9.38 0.0119119
9.39 0.0122986
9.4 0.0130166
9.41 0.0140166
9.42 0.0152377
9.43 0.016611
9.44 0.0180556
9.45 0.0194784
9.46 0.0208011
9.47 0.0219495
9.48 0.0228573
9.49 0.0234681
9.5 0.0237106
9.51 0.0235643
9.52 0.023035
9.53 0.0221296
9.54 0.020871
9.55 0.0192971
9.56 0.0174578
9.57 0.0154053
9.58 0.0132409
9.59 0.0110441
9.6 0.00889617
9.61 0.00687718
9.62 0.00506283
9.63 0.00354218
9.64 0.0023778
9.65 0.00159567
9.66 0.00122228
9.67 0.00126814
9.68 0.0017273
9.69 0.00257755
9.7 0.00381603
9.71 0.00534333
9.72 0.00709227
9.73 0.00898746
9.74 0.0109477
9.75 0.0128892
9.76 0.0147189
9.77 0.0163439
9.78 0.0177017
9.79 0.0187331
9.8 0.0193914
9.81 0.019645
9.82 0.0194782
9.83 0.0188499
9.84 0.0178213
9.85 0.0164356
9.86 0.0147451
9.87 0.0128146
9.88 0.0107188
9.89 0.00854004
9.9 0.00637712
9.91 0.00432214
9.92 0.00245865
9.93 0.000863916
9.94 -0.000393884
9.95 -0.00125816
9.96 -0.00164259
9.97 -0.00154953
9.98 -0.000982524
9.99 4.887e-05
10 0.00151898
10.01 0.00338703
10.02 0.00560655
10.03 0.00811746
10.04 0.0108132
10.05 0.0136106
10.06 0.016424
10.07 0.0191676
10.08 0.021759
10.09 0.0240967
10.1 0.0261162
10.11 0.0277711
10.12 0.0290195
10.13 0.0298329
10.14 0.0301975
10.15 0.0301056
10.16 0.0295401
10.17 0.0285759
10.18 0.0272548
10.19 0.025628
10.2 0.023754
10.21 0.0216962
10.22 0.0195173
10.23 0.0172959
10.24 0.0151003
10.25 0.0129896
10.26 0.011016
10.27 0.00922418
10.28 0.00765168
10.29 0.00635165
10.3 0.00531284
10.31 0.00453897
10.32 0.00402461
10.33 0.00375602
10.34 0.00371225
10.35 0.00387639
10.36 0.00421123
10.37 0.00467104
10.38 0.00522016
10.39 0.00582335
10.4 0.00644703
10.41 0.00706036
10.42 0.00762911
10.43 0.00813287
10.44 0.00855434
10.45 0.00888054
10.46 0.0091027
10.47 0.00921583
10.48 0.00921273
10.49 0.00909227
10.5 0.00886463
10.51 0.00853302
10.52 0.00810057
10.53 0.00756969
10.54 0.00694161
10.55 0.00620599
10.56 0.005369
10.57 0.00442853
10.58 0.00338002
10.59 0.00221852
10.6 0.000939398
10.61 -0.000465438
10.62 -0.00200221
10.63 -0.00365864
10.64 -0.00542793
10.65 -0.00729841
10.66 -0.00925298
10.67 -0.0112688
10.68 -0.0133168
10.69 -0.0153554
10.7 -0.017343
10.71 -0.0192346
10.72 -0.0209826
10.73 -0.0225377
10.74 -0.023843
10.75 -0.0248276
10.76 -0.0254726
10.77 -0.0257427
10.78 -0.0256109
10.79 -0.0250602
10.8 -0.0240844
10.81 -0.0226581
10.82 -0.0208229
10.83 -0.0186305
10.84 -0.0161299
10.85 -0.0133817
10.86 -0.0104575
10.87 -0.00743792
10.88 -0.00442121
10.89 -0.00150783
10.9 0.0012091
10.91 0.00363872
10.92 0.00569539
10.93 0.00730162
10.94 0.00835161
10.95 0.00879765
10.96 0.00863259
10.97 0.00784153
10.98 0.00642831
10.99 0.00441594
11 0.00184417
11.01 -0.00127129
11.02 -0.00478766
11.03 -0.00860975
11.04 -0.0126311
11.05 -0.0167371
11.06 -0.0208083
11.07 -0.0247078
11.08 -0.0282992
11.09 -0.0314834
11.1 -0.0341616
11.11 -0.0362486
11.12 -0.037676
11.13 -0.0383939
11.14 -0.0382902
11.15 -0.0374369
11.16 -0.0358583
11.17 -0.0335946
11.18 -0.0307055
11.19 -0.0272684
11.2 -0.0233601
11.21 -0.019094
11.22 -0.0146167
11.23 -0.0100483
11.24 -0.00550891
11.25 -0.00111578
11.26 0.00302078
11.27 0.00675624
11.28 0.0100259
11.29 0.0127693
11.3 0.0149375
11.31 0.0165006
11.32 0.0174478
11.33 0.0177676
11.34 0.0174664
11.35 0.0166424
11.36 0.0153585
11.37 0.0136894
11.38 0.011719
11.39 0.00953683
11.4 0.00723293
11.41 0.0049167
11.42 0.00267748
11.43 0.00059404
11.44 -0.00126475
11.45 -0.00284195
11.46 -0.00408548
11.47 -0.0049404
11.48 -0.00542791
11.49 -0.00555314
11.5 -0.00533522
11.51 -0.004806
11.52 -0.0040084
11.53 -0.00298231
11.54 -0.00180312
11.55 -0.000542543
11.56 0.000735251
11.57 0.00196783
11.58 0.00309685
11.59 0.00406756
11.6 0.00481364
11.61 0.00532091
11.62 0.00556894
11.63 0.00554875
11.64 0.00526284
11.65 0.00472475
11.66 0.00394548
11.67 0.00296756
11.68 0.00184456
11.69 0.000623818
11.7 -0.000644189
11.71 -0.00190784
11.72 -0.00311623
11.73 -0.00420485
11.74 -0.00513978
11.75 -0.00588634
11.76 -0.00641774
11.77 -0.006716
11.78 -0.00677237
11.79 -0.00657484
11.8 -0.00613453
11.81 -0.00548701
11.82 -0.00466023
11.83 -0.00368816
11.84 -0.0026094
11.85 -0.0014655
