# xPDFsuite Configuration #
[PDF]
wavelength = 0.1
dataformat = QA
inputfile = BiMsol6_insitu_700 C-00732.xy
backgroundfile = Quartz2mm-dist500-00000.xy
mode = xray
bgscale = 0.0042
composition = Bi2Fe4O9
outputtype = gr
qmaxinst = 24.998449118
qmin = 0.1
qmax = 21.4986662415
rmax = 80.0
rmin = 0.0
rstep = 0.01
rpoly = 0.9

[Misc]
inputdir = C:/Data/Seafile/CPH/Beamtime/Desy Oct 20/In situ data/Processed/BiMsol6/PDF
savedir = C:/Data/Seafile/CPH/Beamtime/Desy Oct 20/In situ data/PDF/BiMsol6
backgroundfilefull = C:/Data/Seafile/CPH/Beamtime/Desy Oct 20/In situ data/Processed/Standard_Empty_Cap/Quartz2mm-dist500-00000.xy

#### start data
#S 1
#L r($\AA$)  G($\AA^{-2}$)
0 0
0.01 0.00606675
0.02 0.0117851
0.03 0.0168571
0.04 0.0210155
0.05 0.0240368
0.06 0.0257509
0.07 0.025973
0.08 0.0246511
0.09 0.0219257
0.1 0.0179133
0.11 0.0127932
0.12 0.00679902
0.13 0.000209049
0.14 -0.00666229
0.15 -0.0134262
0.16 -0.0197542
0.17 -0.0253387
0.18 -0.029906
0.19 -0.0332287
0.2 -0.0350746
0.21 -0.0352892
0.22 -0.0339759
0.23 -0.0312071
0.24 -0.0271315
0.25 -0.0219681
0.26 -0.0159985
0.27 -0.00954629
0.28 -0.00306209
0.29 0.00305298
0.3 0.00841054
0.31 0.0126439
0.32 0.0154261
0.33 0.0164279
0.34 0.0153305
0.35 0.0122008
0.36 0.00705095
0.37 -4.69873e-06
0.38 -0.00874854
0.39 -0.0188633
0.4 -0.0299776
0.41 -0.0414786
0.42 -0.0527671
0.43 -0.063235
0.44 -0.0722567
0.45 -0.0792124
0.46 -0.0834492
0.47 -0.0841258
0.48 -0.0810813
0.49 -0.0739905
0.5 -0.0626506
0.51 -0.0469947
0.52 -0.0271003
0.53 -0.00293088
0.54 0.0249479
0.55 0.0558052
0.56 0.0889609
0.57 0.123626
0.58 0.158925
0.59 0.19391
0.6 0.227361
0.61 0.258362
0.62 0.285978
0.63 0.30934
0.64 0.327672
0.65 0.340317
0.66 0.346353
0.67 0.345435
0.68 0.337774
0.69 0.323416
0.7 0.302584
0.71 0.275677
0.72 0.243255
0.73 0.20557
0.74 0.164095
0.75 0.119796
0.76 0.073688
0.77 0.0268207
0.78 -0.0197567
0.79 -0.0649083
0.8 -0.107508
0.81 -0.146814
0.82 -0.182105
0.83 -0.212798
0.84 -0.238462
0.85 -0.258826
0.86 -0.273232
0.87 -0.282261
0.88 -0.286239
0.89 -0.28556
0.9 -0.280738
0.91 -0.272386
0.92 -0.261115
0.93 -0.247695
0.94 -0.233103
0.95 -0.218093
0.96 -0.203386
0.97 -0.189642
0.98 -0.177445
0.99 -0.167507
1 -0.160097
1.01 -0.155396
1.02 -0.153519
1.03 -0.154465
1.04 -0.158121
1.05 -0.164339
1.06 -0.172903
1.07 -0.183212
1.08 -0.194836
1.09 -0.207318
1.1 -0.220196
1.11 -0.233018
1.12 -0.245291
1.13 -0.256622
1.14 -0.266731
1.15 -0.275388
1.16 -0.282443
1.17 -0.287819
1.18 -0.291496
1.19 -0.293434
1.2 -0.293959
1.21 -0.293282
1.22 -0.291651
1.23 -0.28934
1.24 -0.286634
1.25 -0.283824
1.26 -0.28121
1.27 -0.279017
1.28 -0.277422
1.29 -0.276551
1.3 -0.276474
1.31 -0.277205
1.32 -0.278764
1.33 -0.280943
1.34 -0.283578
1.35 -0.286468
1.36 -0.289386
1.37 -0.292089
1.38 -0.294291
1.39 -0.295726
1.4 -0.296223
1.41 -0.29562
1.42 -0.293802
1.43 -0.29071
1.44 -0.286341
1.45 -0.280634
1.46 -0.273864
1.47 -0.266228
1.48 -0.257968
1.49 -0.249361
1.5 -0.240715
1.51 -0.232382
1.52 -0.224745
1.53 -0.218084
1.54 -0.212673
1.55 -0.208742
1.56 -0.206468
1.57 -0.205965
1.58 -0.207458
1.59 -0.210743
1.6 -0.215669
1.61 -0.222039
1.62 -0.229592
1.63 -0.23801
1.64 -0.246932
1.65 -0.255905
1.66 -0.264476
1.67 -0.272228
1.68 -0.278762
1.69 -0.283708
1.7 -0.286743
1.71 -0.287392
1.72 -0.285583
1.73 -0.281282
1.74 -0.274474
1.75 -0.265229
1.76 -0.253695
1.77 -0.240055
1.78 -0.224533
1.79 -0.207677
1.8 -0.189892
1.81 -0.171607
1.82 -0.153262
1.83 -0.135288
1.84 -0.118188
1.85 -0.102346
1.86 -0.0880354
1.87 -0.0754997
1.88 -0.064909
1.89 -0.056356
1.9 -0.0498837
1.91 -0.0455833
1.92 -0.0430866
1.93 -0.0421703
1.94 -0.0425573
1.95 -0.0439289
1.96 -0.0459387
1.97 -0.0482214
1.98 -0.0503665
1.99 -0.0520336
2 -0.0529308
2.01 -0.0528159
2.02 -0.0515074
2.03 -0.0488875
2.04 -0.0447748
2.05 -0.03938
2.06 -0.0328389
2.07 -0.0253585
2.08 -0.0172094
2.09 -0.00871626
2.1 -0.000270311
2.11 0.00766857
2.12 0.0146974
2.13 0.0204159
2.14 0.0244467
2.15 0.0264501
2.16 0.0261376
2.17 0.0229879
2.18 0.0171072
2.19 0.00846337
2.2 -0.00291144
2.21 -0.0169017
2.22 -0.0333116
2.23 -0.0519519
2.24 -0.0724751
2.25 -0.0943262
2.26 -0.117062
2.27 -0.140217
2.28 -0.163317
2.29 -0.185893
2.3 -0.207363
2.31 -0.227361
2.32 -0.245562
2.33 -0.261684
2.34 -0.275517
2.35 -0.286928
2.36 -0.295777
2.37 -0.30198
2.38 -0.305861
2.39 -0.307606
2.4 -0.307458
2.41 -0.30571
2.42 -0.302692
2.43 -0.298711
2.44 -0.294229
2.45 -0.289631
2.46 -0.285257
2.47 -0.281418
2.48 -0.278384
2.49 -0.276405
2.5 -0.275747
2.51 -0.276403
2.52 -0.278409
2.53 -0.281739
2.54 -0.286315
2.55 -0.29201
2.56 -0.298711
2.57 -0.30615
2.58 -0.314058
2.59 -0.322194
2.6 -0.330315
2.61 -0.338188
2.62 -0.345589
2.63 -0.352245
2.64 -0.358061
2.65 -0.362926
2.66 -0.366769
2.67 -0.369559
2.68 -0.371307
2.69 -0.372001
2.7 -0.371751
2.71 -0.370725
2.72 -0.369057
2.73 -0.366896
2.74 -0.364395
2.75 -0.361704
2.76 -0.358978
2.77 -0.356355
2.78 -0.353939
2.79 -0.351804
2.8 -0.350001
2.81 -0.348548
2.82 -0.347457
2.83 -0.346686
2.84 -0.346152
2.85 -0.345773
2.86 -0.345456
2.87 -0.3451
2.88 -0.344599
2.89 -0.343818
2.9 -0.34268
2.91 -0.341113
2.92 -0.33906
2.93 -0.336483
2.94 -0.333366
2.95 -0.329691
2.96 -0.325472
2.97 -0.320797
2.98 -0.315722
2.99 -0.310315
3 -0.304646
3.01 -0.298781
3.02 -0.292771
3.03 -0.286673
3.04 -0.28051
3.05 -0.27428
3.06 -0.267951
3.07 -0.261465
3.08 -0.254722
3.09 -0.247566
3.1 -0.23987
3.11 -0.231465
3.12 -0.222163
3.13 -0.21177
3.14 -0.200087
3.15 -0.186779
3.16 -0.171725
3.17 -0.15482
3.18 -0.135943
3.19 -0.115009
3.2 -0.0919741
3.21 -0.0668009
3.22 -0.0394029
3.23 -0.0101009
3.24 0.020935
3.25 0.0534866
3.26 0.0872915
3.27 0.122048
3.28 0.157442
3.29 0.193043
3.3 0.228451
3.31 0.263284
3.32 0.297168
3.33 0.329743
3.34 0.360651
3.35 0.38936
3.36 0.415795
3.37 0.439742
3.38 0.461034
3.39 0.479552
3.4 0.49523
3.41 0.50787
3.42 0.517538
3.43 0.524469
3.44 0.528781
3.45 0.530622
3.46 0.530163
3.47 0.52759
3.48 0.522902
3.49 0.516536
3.5 0.508687
3.51 0.499538
3.52 0.489257
3.53 0.477994
3.54 0.465841
3.55 0.452908
3.56 0.439332
3.57 0.425178
3.58 0.410493
3.59 0.395313
3.6 0.379665
3.61 0.363527
3.62 0.346968
3.63 0.330025
3.64 0.31274
3.65 0.295169
3.66 0.277383
3.67 0.259476
3.68 0.241574
3.69 0.223821
3.7 0.20637
3.71 0.189388
3.72 0.173056
3.73 0.157559
3.74 0.143204
3.75 0.130127
3.76 0.118483
3.77 0.108437
3.78 0.100136
3.79 0.0937056
3.8 0.0893033
3.81 0.0871229
3.82 0.0870206
3.83 0.0889949
3.84 0.0930131
3.85 0.0990127
3.86 0.106904
3.87 0.116707
3.88 0.128182
3.89 0.141114
3.9 0.155338
3.91 0.170684
3.92 0.186982
3.93 0.204076
3.94 0.221839
3.95 0.240051
3.96 0.258582
3.97 0.277317
3.98 0.296158
3.99 0.315022
4 0.333833
4.01 0.352533
4.02 0.371081
4.03 0.389444
4.04 0.407589
4.05 0.425486
4.06 0.443098
4.07 0.460343
4.08 0.477202
4.09 0.493609
4.1 0.509486
4.11 0.524743
4.12 0.539274
4.13 0.552903
4.14 0.565485
4.15 0.576933
4.16 0.587107
4.17 0.595866
4.18 0.603075
4.19 0.608607
4.2 0.612133
4.21 0.613746
4.22 0.613379
4.23 0.610984
4.24 0.606537
4.25 0.600041
4.26 0.591427
4.27 0.580726
4.28 0.568161
4.29 0.553839
4.3 0.537886
4.31 0.520441
4.32 0.501653
4.33 0.481574
4.34 0.460479
4.35 0.438538
4.36 0.415893
4.37 0.392674
4.38 0.368999
4.39 0.344954
4.4 0.320619
4.41 0.296076
4.42 0.271365
4.43 0.246508
4.44 0.221514
4.45 0.196381
4.46 0.171082
4.47 0.145613
4.48 0.119964
4.49 0.0941288
4.5 0.0681085
4.51 0.0419175
4.52 0.0155822
4.53 -0.0108485
4.54 -0.0372929
4.55 -0.0636628
4.56 -0.0898527
4.57 -0.115741
4.58 -0.141193
4.59 -0.166006
4.6 -0.190032
4.61 -0.213142
4.62 -0.235189
4.63 -0.256035
4.64 -0.275556
4.65 -0.293621
4.66 -0.31001
4.67 -0.324819
4.68 -0.338025
4.69 -0.349635
4.7 -0.359685
4.71 -0.368241
4.72 -0.375306
4.73 -0.381047
4.74 -0.385673
4.75 -0.389342
4.76 -0.392222
4.77 -0.394486
4.78 -0.396307
4.79 -0.397843
4.8 -0.399292
4.81 -0.400792
4.82 -0.402461
4.83 -0.404393
4.84 -0.406656
4.85 -0.409316
4.86 -0.412387
4.87 -0.41583
4.88 -0.419603
4.89 -0.423644
4.9 -0.427872
4.91 -0.432192
4.92 -0.436486
4.93 -0.440633
4.94 -0.444523
4.95 -0.448049
4.96 -0.451113
4.97 -0.453626
4.98 -0.455485
4.99 -0.456609
5 -0.457008
5.01 -0.456666
5.02 -0.455583
5.03 -0.453774
5.04 -0.451269
5.05 -0.448051
5.06 -0.444231
5.07 -0.439878
5.08 -0.435051
5.09 -0.42981
5.1 -0.424209
5.11 -0.418287
5.12 -0.412077
5.13 -0.40563
5.14 -0.398966
5.15 -0.39209
5.16 -0.385001
5.17 -0.377689
5.18 -0.370115
5.19 -0.362268
5.2 -0.354134
5.21 -0.345694
5.22 -0.336934
5.23 -0.327848
5.24 -0.318431
5.25 -0.308683
5.26 -0.298668
5.27 -0.288435
5.28 -0.278047
5.29 -0.267582
5.3 -0.257131
5.31 -0.246812
5.32 -0.236748
5.33 -0.227047
5.34 -0.217826
5.35 -0.209196
5.36 -0.201264
5.37 -0.194135
5.38 -0.187976
5.39 -0.182761
5.4 -0.178526
5.41 -0.175288
5.42 -0.173037
5.43 -0.171742
5.44 -0.171405
5.45 -0.171923
5.46 -0.173152
5.47 -0.174979
5.48 -0.177278
5.49 -0.179919
5.5 -0.182765
5.51 -0.185674
5.52 -0.188497
5.53 -0.191115
5.54 -0.193423
5.55 -0.195331
5.56 -0.196767
5.57 -0.197646
5.58 -0.197928
5.59 -0.197636
5.6 -0.196778
5.61 -0.195375
5.62 -0.193465
5.63 -0.191093
5.64 -0.18827
5.65 -0.185098
5.66 -0.181632
5.67 -0.177917
5.68 -0.173992
5.69 -0.169881
5.7 -0.165588
5.71 -0.161103
5.72 -0.156416
5.73 -0.151487
5.74 -0.146265
5.75 -0.140685
5.76 -0.134673
5.77 -0.128093
5.78 -0.12089
5.79 -0.112997
5.8 -0.104339
5.81 -0.0948535
5.82 -0.0844922
5.83 -0.0731938
5.84 -0.0609024
5.85 -0.0477126
5.86 -0.0336663
5.87 -0.0188292
5.88 -0.00328986
5.89 0.0128416
5.9 0.0294633
5.91 0.0463845
5.92 0.0634323
5.93 0.0804416
5.94 0.0972459
5.95 0.113682
5.96 0.12958
5.97 0.144733
5.98 0.159072
5.99 0.172501
6 0.184942
6.01 0.196348
6.02 0.206694
6.03 0.215907
6.04 0.224057
6.05 0.231247
6.06 0.237551
6.07 0.243062
6.08 0.247884
6.09 0.25212
6.1 0.255853
6.11 0.259247
6.12 0.262403
6.13 0.265404
6.14 0.268321
6.15 0.271201
6.16 0.274072
6.17 0.276937
6.18 0.279769
6.19 0.282522
6.2 0.285128
6.21 0.287502
6.22 0.289542
6.23 0.291073
6.24 0.292015
6.25 0.29225
6.26 0.291662
6.27 0.290143
6.28 0.287599
6.29 0.28389
6.3 0.278938
6.31 0.272782
6.32 0.265414
6.33 0.256852
6.34 0.247135
6.35 0.236325
6.36 0.22441
6.37 0.211597
6.38 0.198017
6.39 0.183797
6.4 0.16907
6.41 0.15397
6.42 0.138625
6.43 0.123172
6.44 0.107738
6.45 0.0924201
6.46 0.0772985
6.47 0.0624359
6.48 0.0478762
6.49 0.0336761
6.5 0.0198166
6.51 0.00627641
6.52 -0.00697243
6.53 -0.019969
6.54 -0.0327606
6.55 -0.0453967
6.56 -0.0579327
6.57 -0.0704316
6.58 -0.0829382
6.59 -0.0954884
6.6 -0.108107
6.61 -0.120805
6.62 -0.133586
6.63 -0.146423
6.64 -0.159277
6.65 -0.172097
6.66 -0.18482
6.67 -0.197373
6.68 -0.209665
6.69 -0.22157
6.7 -0.233023
6.71 -0.243931
6.72 -0.254206
6.73 -0.263766
6.74 -0.272537
6.75 -0.280388
6.76 -0.287283
6.77 -0.293224
6.78 -0.298184
6.79 -0.302151
6.8 -0.305121
6.81 -0.307094
6.82 -0.30799
6.83 -0.307939
6.84 -0.306965
6.85 -0.305096
6.86 -0.302355
6.87 -0.298762
6.88 -0.29428
6.89 -0.288922
6.9 -0.282729
6.91 -0.275686
6.92 -0.267771
6.93 -0.258951
6.94 -0.249186
6.95 -0.238308
6.96 -0.226372
6.97 -0.213325
6.98 -0.199115
6.99 -0.183692
7 -0.167012
7.01 -0.148977
7.02 -0.129542
7.03 -0.108789
7.04 -0.0867311
7.05 -0.0634
7.06 -0.0388447
7.07 -0.0131337
7.08 0.0137457
7.09 0.0415785
7.1 0.0702249
7.11 0.0995456
7.12 0.12939
7.13 0.159597
7.14 0.190002
7.15 0.220413
7.16 0.250648
7.17 0.28054
7.18 0.309932
7.19 0.338673
7.2 0.366622
7.21 0.393556
7.22 0.419412
7.23 0.444116
7.24 0.467587
7.25 0.489755
7.26 0.510566
7.27 0.529935
7.28 0.54774
7.29 0.564084
7.3 0.578953
7.31 0.592335
7.32 0.604224
7.33 0.614613
7.34 0.623376
7.35 0.63057
7.36 0.636239
7.37 0.640372
7.38 0.642951
7.39 0.643957
7.4 0.643342
7.41 0.640946
7.42 0.636906
7.43 0.631199
7.44 0.623809
7.45 0.614721
7.46 0.603928
7.47 0.591312
7.48 0.576927
7.49 0.560877
7.5 0.5432
7.51 0.523947
7.52 0.503182
7.53 0.480976
7.54 0.457296
7.55 0.432407
7.56 0.406436
7.57 0.379516
7.58 0.351795
7.59 0.323426
7.6 0.294556
7.61 0.26538
7.62 0.236097
7.63 0.20688
7.64 0.177902
7.65 0.149334
7.66 0.12134
7.67 0.0941777
7.68 0.0679312
7.69 0.0427337
7.7 0.0187102
7.71 -0.00402717
7.72 -0.0253806
7.73 -0.0451938
7.74 -0.0633591
7.75 -0.0799326
7.76 -0.0948844
7.77 -0.108201
7.78 -0.119887
7.79 -0.129959
7.8 -0.1383
7.81 -0.1451
7.82 -0.150452
7.83 -0.154432
7.84 -0.157132
7.85 -0.15865
7.86 -0.159054
7.87 -0.158432
7.88 -0.156981
7.89 -0.154818
7.9 -0.152056
7.91 -0.148805
7.92 -0.14517
7.93 -0.14123
7.94 -0.137099
7.95 -0.13286
7.96 -0.128572
7.97 -0.124287
7.98 -0.120039
7.99 -0.115852
8 -0.111739
8.01 -0.107689
8.02 -0.103684
8.03 -0.0996976
8.04 -0.0956972
8.05 -0.0916439
8.06 -0.0874856
8.07 -0.0831792
8.08 -0.0786898
8.09 -0.0739843
8.1 -0.0690366
8.11 -0.0638302
8.12 -0.0583558
8.13 -0.0525995
8.14 -0.0466119
8.15 -0.0404294
8.16 -0.0341013
8.17 -0.0276888
8.18 -0.0212638
8.19 -0.0149173
8.2 -0.00874859
8.21 -0.00284459
8.22 0.00270364
8.23 0.00780817
8.24 0.0123872
8.25 0.0163658
8.26 0.0196048
8.27 0.0221316
8.28 0.0239209
8.29 0.0249654
8.3 0.0252767
8.31 0.0248852
8.32 0.023807
8.33 0.0221184
8.34 0.0199439
8.35 0.0173808
8.36 0.0145355
8.37 0.0115197
8.38 0.00844736
8.39 0.00544771
8.4 0.00262977
8.41 8.56273e-05
8.42 -0.00210627
8.43 -0.00388456
8.44 -0.00520734
8.45 -0.00603252
8.46 -0.00635304
8.47 -0.006234
8.48 -0.0057281
8.49 -0.00490849
8.5 -0.00386659
8.51 -0.00270931
8.52 -0.00156876
8.53 -0.000587061
8.54 0.00010459
8.55 0.00037626
8.56 0.00010394
8.57 -0.000826326
8.58 -0.00254356
8.59 -0.00518006
8.6 -0.00872813
8.61 -0.0132215
8.62 -0.0186699
8.63 -0.025059
8.64 -0.0323505
8.65 -0.0405496
8.66 -0.0495133
8.67 -0.0591129
8.68 -0.0692314
8.69 -0.0797419
8.7 -0.090512
8.71 -0.101407
8.72 -0.11228
8.73 -0.122999
8.74 -0.133453
8.75 -0.143548
8.76 -0.153204
8.77 -0.162363
8.78 -0.17094
8.79 -0.178937
8.8 -0.186381
8.81 -0.193295
8.82 -0.199719
8.83 -0.205704
8.84 -0.211311
8.85 -0.21659
8.86 -0.221653
8.87 -0.22657
8.88 -0.231409
8.89 -0.236228
8.9 -0.241076
8.91 -0.245993
8.92 -0.250998
8.93 -0.256088
8.94 -0.261245
8.95 -0.266438
8.96 -0.27162
8.97 -0.276733
8.98 -0.281682
8.99 -0.286401
9 -0.290808
9.01 -0.294822
9.02 -0.298368
9.03 -0.301374
9.04 -0.303745
9.05 -0.305422
9.06 -0.306414
9.07 -0.306705
9.08 -0.306301
9.09 -0.305219
9.1 -0.303497
9.11 -0.30113
9.12 -0.298247
9.13 -0.294931
9.14 -0.291267
9.15 -0.287343
9.16 -0.283249
9.17 -0.279071
9.18 -0.274902
9.19 -0.270818
9.2 -0.266878
9.21 -0.263128
9.22 -0.259599
9.23 -0.256309
9.24 -0.253282
9.25 -0.250483
9.26 -0.247878
9.27 -0.245427
9.28 -0.243083
9.29 -0.240791
9.3 -0.238494
9.31 -0.236123
9.32 -0.233628
9.33 -0.230963
9.34 -0.228091
9.35 -0.224988
9.36 -0.221639
9.37 -0.218025
9.38 -0.214176
9.39 -0.21013
9.4 -0.20593
9.41 -0.201625
9.42 -0.197277
9.43 -0.192951
9.44 -0.188729
9.45 -0.184672
9.46 -0.18084
9.47 -0.177284
9.48 -0.174044
9.49 -0.171147
9.5 -0.168627
9.51 -0.166465
9.52 -0.164616
9.53 -0.163032
9.54 -0.161647
9.55 -0.160383
9.56 -0.159141
9.57 -0.157795
9.58 -0.156227
9.59 -0.154316
9.6 -0.15194
9.61 -0.148983
9.62 -0.145331
9.63 -0.14083
9.64 -0.135385
9.65 -0.128974
9.66 -0.121548
9.67 -0.113078
9.68 -0.103555
9.69 -0.092991
9.7 -0.0813056
9.71 -0.0686718
9.72 -0.0551611
9.73 -0.0408567
9.74 -0.0258521
9.75 -0.0102482
9.76 0.00587008
9.77 0.0223869
9.78 0.0391689
9.79 0.0561201
9.8 0.0731527
9.81 0.090189
9.82 0.107163
9.83 0.124004
9.84 0.140679
9.85 0.157163
9.86 0.173442
9.87 0.189508
9.88 0.205362
9.89 0.221003
9.9 0.236433
9.91 0.251675
9.92 0.266734
9.93 0.281609
9.94 0.296293
9.95 0.31077
9.96 0.324988
9.97 0.338921
9.98 0.352524
9.99 0.365739
10 0.378499
10.01 0.390731
10.02 0.402337
10.03 0.413187
10.04 0.423258
10.05 0.432478
10.06 0.440782
10.07 0.448117
10.08 0.45444
10.09 0.45964
10.1 0.463755
10.11 0.466836
10.12 0.468913
10.13 0.470034
10.14 0.470264
10.15 0.469672
10.16 0.468306
10.17 0.466353
10.18 0.463926
10.19 0.461145
10.2 0.458127
10.21 0.454987
10.22 0.451843
10.23 0.448806
10.24 0.44596
10.25 0.443373
10.26 0.441099
10.27 0.439172
10.28 0.43761
10.29 0.436447
10.3 0.435617
10.31 0.435081
10.32 0.434785
10.33 0.434663
10.34 0.434641
10.35 0.434633
10.36 0.43454
10.37 0.434276
10.38 0.43376
10.39 0.432913
10.4 0.431664
10.41 0.429951
10.42 0.427659
10.43 0.4248
10.44 0.421347
10.45 0.417285
10.46 0.412603
10.47 0.407302
10.48 0.401361
10.49 0.394783
10.5 0.387627
10.51 0.37991
10.52 0.37165
10.53 0.362864
10.54 0.353564
10.55 0.343707
10.56 0.33334
10.57 0.322469
10.58 0.311086
10.59 0.29918
10.6 0.286738
10.61 0.273722
10.62 0.260092
10.63 0.24588
10.64 0.231077
10.65 0.215682
10.66 0.1997
10.67 0.183147
10.68 0.166002
10.69 0.148343
10.7 0.130236
10.71 0.111744
10.72 0.0929408
10.73 0.0739086
10.74 0.0547376
10.75 0.0355351
10.76 0.0164127
10.77 -0.00252871
10.78 -0.021191
10.79 -0.0394813
10.8 -0.0573148
10.81 -0.0745698
10.82 -0.0912016
10.83 -0.107188
10.84 -0.122502
10.85 -0.137135
10.86 -0.151095
10.87 -0.164396
10.88 -0.177034
10.89 -0.189132
10.9 -0.20076
10.91 -0.211995
10.92 -0.222923
10.93 -0.23363
10.94 -0.244201
10.95 -0.254732
10.96 -0.265303
10.97 -0.27598
10.98 -0.286811
10.99 -0.297834
11 -0.30907
11.01 -0.320543
11.02 -0.332209
11.03 -0.344031
11.04 -0.355956
11.05 -0.367915
11.06 -0.379829
11.07 -0.391591
11.08 -0.403088
11.09 -0.414222
11.1 -0.42489
11.11 -0.434988
11.12 -0.444418
11.13 -0.45309
11.14 -0.460821
11.15 -0.467627
11.16 -0.47346
11.17 -0.478284
11.18 -0.482075
11.19 -0.484825
11.2 -0.486492
11.21 -0.487074
11.22 -0.486676
11.23 -0.48534
11.24 -0.483113
11.25 -0.480048
11.26 -0.476198
11.27 -0.471554
11.28 -0.466231
11.29 -0.460292
11.3 -0.45378
11.31 -0.446731
11.32 -0.439174
11.33 -0.431116
11.34 -0.422551
11.35 -0.413524
11.36 -0.404036
11.37 -0.394083
11.38 -0.383659
11.39 -0.372757
11.4 -0.361324
11.41 -0.349384
11.42 -0.336949
11.43 -0.324025
11.44 -0.310621
11.45 -0.296756
11.46 -0.282447
11.47 -0.267705
11.48 -0.252615
11.49 -0.23723
11.5 -0.221609
11.51 -0.205817
11.52 -0.189922
11.53 -0.174002
11.54 -0.158141
11.55 -0.142414
11.56 -0.126892
11.57 -0.111642
11.58 -0.0967272
11.59 -0.0822101
11.6 -0.0681852
11.61 -0.0546502
11.62 -0.0416366
11.63 -0.0291674
11.64 -0.017258
11.65 -0.00591632
11.66 0.00481935
11.67 0.0149639
11.68 0.024557
11.69 0.0336129
11.7 0.0421481
11.71 0.0501805
11.72 0.0577272
11.73 0.0647552
11.74 0.0713358
11.75 0.0774831
11.76 0.0832092
11.77 0.088524
11.78 0.0934353
11.79 0.0979278
11.8 0.102004
11.81 0.105693
11.82 0.108999
11.83 0.111925
11.84 0.114479
11.85 0.116669
11.86 0.118466
11.87 0.119921
11.88 0.121053
11.89 0.12188
11.9 0.122421
11.91 0.122698
11.92 0.122725
11.93 0.122518
11.94 0.122116
11.95 0.121536
11.96 0.12079
11.97 0.119888
11.98 0.118831
11.99 0.117598
12 0.116186
12.01 0.114575
12.02 0.112734
12.03 0.110625
12.04 0.1082
12.05 0.105393
12.06 0.102112
12.07 0.0983247
12.08 0.0939657
12.09 0.0889677
12.1 0.0832656
12.11 0.0767982
12.12 0.0694355
12.13 0.0611708
12.14 0.0519954
12.15 0.041887
12.16 0.0308368
12.17 0.0188504
