# xPDFsuite Configuration #
[PDF]
wavelength = 0.1
dataformat = QA
inputfile = BiMsol6_insitu_700 C-00386.xy
backgroundfile = Quartz2mm-dist500-00000.xy
mode = xray
bgscale = 0.0042
composition = Bi2Fe4O9
outputtype = gr
qmaxinst = 24.998449118
qmin = 0.1
qmax = 21.4986662415
rmax = 80.0
rmin = 0.0
rstep = 0.01
rpoly = 0.9

[Misc]
inputdir = C:/Data/Seafile/CPH/Beamtime/Desy Oct 20/In situ data/Processed/BiMsol6/PDF
savedir = C:/Data/Seafile/CPH/Beamtime/Desy Oct 20/In situ data/PDF/BiMsol6
backgroundfilefull = C:/Data/Seafile/CPH/Beamtime/Desy Oct 20/In situ data/Processed/Standard_Empty_Cap/Quartz2mm-dist500-00000.xy

#### start data
#S 1
#L r($\AA$)  G($\AA^{-2}$)
0 0
0.01 0.0068481
0.02 0.0133152
0.03 0.0190751
0.04 0.0238347
0.05 0.0273473
0.06 0.0294244
0.07 0.0298585
0.08 0.0285868
0.09 0.0257572
0.1 0.0214904
0.11 0.0159751
0.12 0.0094602
0.13 0.00224383
0.14 -0.00534113
0.15 -0.0128673
0.16 -0.0199749
0.17 -0.0263251
0.18 -0.0316129
0.19 -0.035581
0.2 -0.0379644
0.21 -0.0385777
0.22 -0.0375143
0.23 -0.0348344
0.24 -0.0306803
0.25 -0.0252716
0.26 -0.0188969
0.27 -0.0118817
0.28 -0.00471086
0.29 0.00218404
0.3 0.00838257
0.31 0.0134824
0.32 0.0171187
0.33 0.0189203
0.34 0.0185203
0.35 0.0159551
0.36 0.0112052
0.37 0.00435917
0.38 -0.00438486
0.39 -0.0147212
0.4 -0.0262999
0.41 -0.0384879
0.42 -0.0506606
0.43 -0.0621821
0.44 -0.0723906
0.45 -0.0806222
0.46 -0.0861725
0.47 -0.0881349
0.48 -0.0862852
0.49 -0.0802367
0.5 -0.0697263
0.51 -0.0546298
0.52 -0.0349728
0.53 -0.0106449
0.54 0.0178163
0.55 0.0496848
0.56 0.0842888
0.57 0.120835
0.58 0.158429
0.59 0.196093
0.6 0.232589
0.61 0.266899
0.62 0.298016
0.63 0.324991
0.64 0.346962
0.65 0.36318
0.66 0.372618
0.67 0.374828
0.68 0.369948
0.69 0.357946
0.7 0.338983
0.71 0.313402
0.72 0.281729
0.73 0.244123
0.74 0.202121
0.75 0.156706
0.76 0.108929
0.77 0.0598869
0.78 0.0106907
0.79 -0.0374625
0.8 -0.0833529
0.81 -0.126122
0.82 -0.164953
0.83 -0.199168
0.84 -0.228243
0.85 -0.251822
0.86 -0.269135
0.87 -0.280718
0.88 -0.286855
0.89 -0.28791
0.9 -0.284381
0.91 -0.276886
0.92 -0.26604
0.93 -0.25264
0.94 -0.237747
0.95 -0.222182
0.96 -0.206737
0.97 -0.192151
0.98 -0.179088
0.99 -0.168356
1 -0.160301
1.01 -0.155171
1.02 -0.153136
1.03 -0.15424
1.04 -0.158399
1.05 -0.165486
1.06 -0.175304
1.07 -0.187193
1.08 -0.200685
1.09 -0.21527
1.1 -0.230422
1.11 -0.245616
1.12 -0.260274
1.13 -0.27391
1.14 -0.286164
1.15 -0.296731
1.16 -0.305393
1.17 -0.31202
1.18 -0.316542
1.19 -0.318858
1.2 -0.319331
1.21 -0.318186
1.22 -0.315703
1.23 -0.312205
1.24 -0.308041
1.25 -0.303573
1.26 -0.299203
1.27 -0.295259
1.28 -0.292016
1.29 -0.289695
1.3 -0.288452
1.31 -0.288385
1.32 -0.289631
1.33 -0.291985
1.34 -0.295311
1.35 -0.299416
1.36 -0.304056
1.37 -0.308956
1.38 -0.313796
1.39 -0.318223
1.4 -0.32195
1.41 -0.324713
1.42 -0.326285
1.43 -0.326493
1.44 -0.325223
1.45 -0.322257
1.46 -0.317799
1.47 -0.311969
1.48 -0.304946
1.49 -0.296968
1.5 -0.288324
1.51 -0.279345
1.52 -0.270441
1.53 -0.261995
1.54 -0.254364
1.55 -0.24788
1.56 -0.242836
1.57 -0.239473
1.58 -0.238168
1.59 -0.238867
1.6 -0.241544
1.61 -0.246124
1.62 -0.252452
1.63 -0.260296
1.64 -0.269388
1.65 -0.279348
1.66 -0.28967
1.67 -0.299913
1.68 -0.309628
1.69 -0.318369
1.7 -0.325715
1.71 -0.331091
1.72 -0.334252
1.73 -0.335004
1.74 -0.333182
1.75 -0.328706
1.76 -0.321587
1.77 -0.311862
1.78 -0.299596
1.79 -0.285304
1.8 -0.269338
1.81 -0.252103
1.82 -0.234045
1.83 -0.215634
1.84 -0.197396
1.85 -0.179851
1.86 -0.163422
1.87 -0.148495
1.88 -0.135394
1.89 -0.124374
1.9 -0.115647
1.91 -0.109511
1.92 -0.105714
1.93 -0.104156
1.94 -0.104654
1.95 -0.106959
1.96 -0.110758
1.97 -0.115742
1.98 -0.121439
1.99 -0.127385
2 -0.133173
2.01 -0.138418
2.02 -0.142767
2.03 -0.145911
2.04 -0.147427
2.05 -0.147302
2.06 -0.145458
2.07 -0.141898
2.08 -0.136701
2.09 -0.130023
2.1 -0.122037
2.11 -0.113077
2.12 -0.103564
2.13 -0.0938774
2.14 -0.0844144
2.15 -0.0755753
2.16 -0.0677488
2.17 -0.0614829
2.18 -0.0569817
2.19 -0.0544878
2.2 -0.0541907
2.21 -0.0562087
2.22 -0.0605855
2.23 -0.0673893
2.24 -0.076544
2.25 -0.0876877
2.26 -0.100563
2.27 -0.114862
2.28 -0.130235
2.29 -0.146305
2.3 -0.162673
2.31 -0.178882
2.32 -0.194555
2.33 -0.20935
2.34 -0.222966
2.35 -0.235153
2.36 -0.245657
2.37 -0.254255
2.38 -0.261041
2.39 -0.266035
2.4 -0.269321
2.41 -0.271044
2.42 -0.271397
2.43 -0.270543
2.44 -0.268854
2.45 -0.266659
2.46 -0.264258
2.47 -0.261947
2.48 -0.260008
2.49 -0.258715
2.5 -0.25837
2.51 -0.259076
2.52 -0.260949
2.53 -0.264052
2.54 -0.268398
2.55 -0.273947
2.56 -0.280686
2.57 -0.288418
2.58 -0.296922
2.59 -0.305991
2.6 -0.315401
2.61 -0.324918
2.62 -0.334303
2.63 -0.343268
2.64 -0.351624
2.65 -0.35919
2.66 -0.365813
2.67 -0.371376
2.68 -0.375795
2.69 -0.378947
2.7 -0.380845
2.71 -0.381582
2.72 -0.381222
2.73 -0.37985
2.74 -0.377572
2.75 -0.3745
2.76 -0.370694
2.77 -0.366357
2.78 -0.361597
2.79 -0.356504
2.8 -0.351149
2.81 -0.34558
2.82 -0.339808
2.83 -0.333823
2.84 -0.3276
2.85 -0.321078
2.86 -0.314178
2.87 -0.306805
2.88 -0.298852
2.89 -0.290126
2.9 -0.280573
2.91 -0.270103
2.92 -0.258635
2.93 -0.246105
2.94 -0.232476
2.95 -0.217691
2.96 -0.201746
2.97 -0.184781
2.98 -0.166889
2.99 -0.148189
3 -0.128825
3.01 -0.108965
3.02 -0.0887785
3.03 -0.068506
3.04 -0.0483501
3.05 -0.0285029
3.06 -0.00914552
3.07 0.00955753
3.08 0.0274349
3.09 0.0443115
3.1 0.0601819
3.11 0.0750046
3.12 0.0887724
3.13 0.101512
3.14 0.113283
3.15 0.124109
3.16 0.13417
3.17 0.143634
3.18 0.152652
3.19 0.161386
3.2 0.169997
3.21 0.178643
3.22 0.187497
3.23 0.196673
3.24 0.206269
3.25 0.216353
3.26 0.226965
3.27 0.238113
3.28 0.249806
3.29 0.261964
3.3 0.274473
3.31 0.287219
3.32 0.300069
3.33 0.312871
3.34 0.325464
3.35 0.337627
3.36 0.349227
3.37 0.360112
3.38 0.370148
3.39 0.379217
3.4 0.387224
3.41 0.394028
3.42 0.399597
3.43 0.403989
3.44 0.407229
3.45 0.409372
3.46 0.410496
3.47 0.410701
3.48 0.410032
3.49 0.408731
3.5 0.406946
3.51 0.404829
3.52 0.402533
3.53 0.400207
3.54 0.398003
3.55 0.396071
3.56 0.394513
3.57 0.39342
3.58 0.392869
3.59 0.392915
3.6 0.393596
3.61 0.395001
3.62 0.39707
3.63 0.399781
3.64 0.403107
3.65 0.407013
3.66 0.411457
3.67 0.416411
3.68 0.421835
3.69 0.427643
3.7 0.43379
3.71 0.440231
3.72 0.446926
3.73 0.453838
3.74 0.460947
3.75 0.468204
3.76 0.475576
3.77 0.483031
3.78 0.490533
3.79 0.498045
3.8 0.505521
3.81 0.512894
3.82 0.520107
3.83 0.527087
3.84 0.533751
3.85 0.540007
3.86 0.545754
3.87 0.55082
3.88 0.555103
3.89 0.558502
3.9 0.560894
3.91 0.562154
3.92 0.562164
3.93 0.560785
3.94 0.557782
3.95 0.553207
3.96 0.546987
3.97 0.539069
3.98 0.529416
3.99 0.518014
4 0.504746
4.01 0.48969
4.02 0.472977
4.03 0.454678
4.04 0.434881
4.05 0.413691
4.06 0.391216
4.07 0.367481
4.08 0.342763
4.09 0.317202
4.1 0.290943
4.11 0.264129
4.12 0.236902
4.13 0.20939
4.14 0.181744
4.15 0.154098
4.16 0.126566
4.17 0.0992524
4.18 0.072251
4.19 0.0456484
4.2 0.0195847
4.21 -0.00591661
4.22 -0.0307957
4.23 -0.0549968
4.24 -0.0784693
4.25 -0.101167
4.26 -0.123005
4.27 -0.143924
4.28 -0.163944
4.29 -0.183035
4.3 -0.201169
4.31 -0.218322
4.32 -0.234475
4.33 -0.24951
4.34 -0.263509
4.35 -0.276487
4.36 -0.288454
4.37 -0.299427
4.38 -0.30943
4.39 -0.318464
4.4 -0.326542
4.41 -0.333789
4.42 -0.340265
4.43 -0.346036
4.44 -0.351169
4.45 -0.355739
4.46 -0.35978
4.47 -0.363405
4.48 -0.366695
4.49 -0.369716
4.5 -0.372523
4.51 -0.375166
4.52 -0.377681
4.53 -0.380095
4.54 -0.382433
4.55 -0.3847
4.56 -0.38689
4.57 -0.388987
4.58 -0.390968
4.59 -0.392787
4.6 -0.394411
4.61 -0.395805
4.62 -0.396932
4.63 -0.397756
4.64 -0.398245
4.65 -0.39837
4.66 -0.398081
4.67 -0.397412
4.68 -0.396371
4.69 -0.394979
4.7 -0.393267
4.71 -0.39128
4.72 -0.389059
4.73 -0.386685
4.74 -0.384239
4.75 -0.381798
4.76 -0.379442
4.77 -0.37725
4.78 -0.375298
4.79 -0.373699
4.8 -0.372485
4.81 -0.371705
4.82 -0.371396
4.83 -0.371584
4.84 -0.372279
4.85 -0.373503
4.86 -0.375234
4.87 -0.377408
4.88 -0.379976
4.89 -0.38288
4.9 -0.386056
4.91 -0.389431
4.92 -0.392936
4.93 -0.396474
4.94 -0.399971
4.95 -0.403357
4.96 -0.406568
4.97 -0.409549
4.98 -0.412238
4.99 -0.414586
5 -0.416588
5.01 -0.418227
5.02 -0.419496
5.03 -0.420394
5.04 -0.420925
5.05 -0.421061
5.06 -0.420841
5.07 -0.420277
5.08 -0.419371
5.09 -0.418117
5.1 -0.416503
5.11 -0.414489
5.12 -0.412018
5.13 -0.409069
5.14 -0.405582
5.15 -0.401484
5.16 -0.396691
5.17 -0.391111
5.18 -0.384557
5.19 -0.376964
5.2 -0.368254
5.21 -0.358323
5.22 -0.347072
5.23 -0.334412
5.24 -0.320224
5.25 -0.304332
5.26 -0.286829
5.27 -0.267689
5.28 -0.246906
5.29 -0.224495
5.3 -0.20049
5.31 -0.174833
5.32 -0.147671
5.33 -0.119163
5.34 -0.0894232
5.35 -0.0585798
5.36 -0.0267722
5.37 0.00585959
5.38 0.0392006
5.39 0.0730098
5.4 0.107127
5.41 0.141394
5.42 0.175655
5.43 0.209757
5.44 0.243525
5.45 0.276804
5.46 0.309477
5.47 0.341419
5.48 0.372507
5.49 0.402625
5.5 0.431657
5.51 0.459343
5.52 0.485702
5.53 0.510624
5.54 0.533999
5.55 0.555717
5.56 0.575666
5.57 0.593624
5.58 0.609449
5.59 0.623149
5.6 0.634617
5.61 0.643752
5.62 0.650463
5.63 0.654666
5.64 0.656007
5.65 0.654687
5.66 0.650697
5.67 0.644028
5.68 0.634693
5.69 0.622731
5.7 0.608094
5.71 0.590816
5.72 0.571205
5.73 0.549403
5.74 0.525579
5.75 0.499917
5.76 0.472621
5.77 0.443791
5.78 0.41379
5.79 0.382877
5.8 0.351285
5.81 0.319243
5.82 0.286971
5.83 0.254685
5.84 0.222613
5.85 0.190926
5.86 0.159778
5.87 0.129298
5.88 0.0995972
5.89 0.0707645
5.9 0.0429536
5.91 0.0161659
5.92 -0.00959835
5.93 -0.0343226
5.94 -0.0580002
5.95 -0.0806309
5.96 -0.102195
5.97 -0.12262
5.98 -0.142003
5.99 -0.160337
6 -0.177606
6.01 -0.193784
6.02 -0.208833
6.03 -0.222616
6.04 -0.235103
6.05 -0.246275
6.06 -0.256058
6.07 -0.264374
6.08 -0.271145
6.09 -0.276275
6.1 -0.279529
6.11 -0.281023
6.12 -0.280718
6.13 -0.278591
6.14 -0.274639
6.15 -0.268883
6.16 -0.261261
6.17 -0.251877
6.18 -0.240925
6.19 -0.228532
6.2 -0.214845
6.21 -0.200033
6.22 -0.184279
6.23 -0.167715
6.24 -0.150652
6.25 -0.133298
6.26 -0.115855
6.27 -0.0985211
6.28 -0.0814787
6.29 -0.0649271
6.3 -0.0490382
6.31 -0.0338956
6.32 -0.0195876
6.33 -0.0061734
6.34 0.00631644
6.35 0.0178805
6.36 0.0284558
6.37 0.0381902
6.38 0.0471757
6.39 0.0555138
6.4 0.0633213
6.41 0.0707263
6.42 0.0778591
6.43 0.0848728
6.44 0.0919208
6.45 0.0991311
6.46 0.106621
6.47 0.114496
6.48 0.122843
6.49 0.131791
6.5 0.141354
6.51 0.151549
6.52 0.162384
6.53 0.173851
6.54 0.185927
6.55 0.198589
6.56 0.21181
6.57 0.22548
6.58 0.239536
6.59 0.25391
6.6 0.268536
6.61 0.283349
6.62 0.298295
6.63 0.313309
6.64 0.328343
6.65 0.343358
6.66 0.358325
6.67 0.373221
6.68 0.388026
6.69 0.402719
6.7 0.417295
6.71 0.431744
6.72 0.446051
6.73 0.460195
6.74 0.47415
6.75 0.487859
6.76 0.501273
6.77 0.51434
6.78 0.526983
6.79 0.539114
6.8 0.550631
6.81 0.561415
6.82 0.57124
6.83 0.580055
6.84 0.58772
6.85 0.594094
6.86 0.599037
6.87 0.602409
6.88 0.603969
6.89 0.603589
6.9 0.601258
6.91 0.596888
6.92 0.590408
6.93 0.581766
6.94 0.570932
6.95 0.557646
6.96 0.542171
6.97 0.524553
6.98 0.504852
6.99 0.483145
7 0.459529
7.01 0.43403
7.02 0.406763
7.03 0.377983
7.04 0.347832
7.05 0.316459
7.06 0.284012
7.07 0.250643
7.08 0.216436
7.09 0.181619
7.1 0.146343
7.11 0.110743
7.12 0.0749479
7.13 0.0390799
7.14 0.00326249
7.15 -0.032372
7.16 -0.0677235
7.17 -0.102692
7.18 -0.137179
7.19 -0.171091
7.2 -0.204336
7.21 -0.236745
7.22 -0.268272
7.23 -0.298847
7.24 -0.328386
7.25 -0.356807
7.26 -0.384029
7.27 -0.409938
7.28 -0.434372
7.29 -0.457383
7.3 -0.478915
7.31 -0.498922
7.32 -0.517367
7.33 -0.534225
7.34 -0.549355
7.35 -0.562833
7.36 -0.574733
7.37 -0.585088
7.38 -0.593944
7.39 -0.601359
7.4 -0.607381
7.41 -0.611994
7.42 -0.615427
7.43 -0.617777
7.44 -0.619147
7.45 -0.619639
7.46 -0.619358
7.47 -0.618365
7.48 -0.616782
7.49 -0.614726
7.5 -0.612274
7.51 -0.609491
7.52 -0.606428
7.53 -0.603124
7.54 -0.599583
7.55 -0.595837
7.56 -0.591881
7.57 -0.587698
7.58 -0.583258
7.59 -0.578521
7.6 -0.573419
7.61 -0.567889
7.62 -0.561896
7.63 -0.555383
7.64 -0.548293
7.65 -0.540575
7.66 -0.532182
7.67 -0.522995
7.68 -0.513057
7.69 -0.502359
7.7 -0.490896
7.71 -0.478677
7.72 -0.465724
7.73 -0.45204
7.74 -0.437667
7.75 -0.422713
7.76 -0.40725
7.77 -0.391358
7.78 -0.375124
7.79 -0.358643
7.8 -0.342007
7.81 -0.325342
7.82 -0.308752
7.83 -0.292337
7.84 -0.276196
7.85 -0.260424
7.86 -0.245129
7.87 -0.23043
7.88 -0.216362
7.89 -0.202993
7.9 -0.190382
7.91 -0.178576
7.92 -0.16762
7.93 -0.157626
7.94 -0.148565
7.95 -0.140429
7.96 -0.133223
7.97 -0.126948
7.98 -0.121598
7.99 -0.117182
8 -0.11374
8.01 -0.111163
8.02 -0.109425
8.03 -0.108493
8.04 -0.108333
8.05 -0.108909
8.06 -0.110233
8.07 -0.11223
8.08 -0.114831
8.09 -0.117993
8.1 -0.121672
8.11 -0.125822
8.12 -0.130404
8.13 -0.135399
8.14 -0.140721
8.15 -0.146321
8.16 -0.152156
8.17 -0.158177
8.18 -0.164339
8.19 -0.170596
8.2 -0.176893
8.21 -0.183176
8.22 -0.189395
8.23 -0.195498
8.24 -0.201433
8.25 -0.207143
8.26 -0.212534
8.27 -0.217574
8.28 -0.222202
8.29 -0.226353
8.3 -0.229963
8.31 -0.232964
8.32 -0.235246
8.33 -0.236726
8.34 -0.237374
8.35 -0.237122
8.36 -0.235901
8.37 -0.233644
8.38 -0.230287
8.39 -0.225636
8.4 -0.21975
8.41 -0.212588
8.42 -0.204109
8.43 -0.194278
8.44 -0.183068
8.45 -0.1704
8.46 -0.156228
8.47 -0.140656
8.48 -0.123698
8.49 -0.105379
8.5 -0.0857328
8.51 -0.064801
8.52 -0.04252
8.53 -0.0190553
8.54 0.00550208
8.55 0.031078
8.56 0.0575937
8.57 0.0849663
8.58 0.113133
8.59 0.142029
8.6 0.171501
8.61 0.201462
8.62 0.231825
8.63 0.262502
8.64 0.29341
8.65 0.324472
8.66 0.355587
8.67 0.386672
8.68 0.41765
8.69 0.448442
8.7 0.47897
8.71 0.509146
8.72 0.538848
8.73 0.568027
8.74 0.596596
8.75 0.624466
8.76 0.651541
8.77 0.677722
8.78 0.702823
8.79 0.726753
8.8 0.749443
8.81 0.770774
8.82 0.790628
8.83 0.808884
8.84 0.825399
8.85 0.839867
8.86 0.852356
8.87 0.862753
8.88 0.870954
8.89 0.876862
8.9 0.880389
8.91 0.881297
8.92 0.879546
8.93 0.875221
8.94 0.868291
8.95 0.858744
8.96 0.846582
8.97 0.831823
8.98 0.814216
8.99 0.794119
9 0.771607
9.01 0.746767
9.02 0.719704
9.03 0.690533
9.04 0.659283
9.05 0.626096
9.06 0.591247
9.07 0.55489
9.08 0.517188
9.09 0.478305
9.1 0.43841
9.11 0.397602
9.12 0.35615
9.13 0.314233
9.14 0.27202
9.15 0.229677
9.16 0.187368
9.17 0.145272
9.18 0.10358
9.19 0.0624288
9.2 0.0219692
9.21 -0.0176522
9.22 -0.0562925
9.23 -0.0938127
9.24 -0.129945
9.25 -0.164638
9.26 -0.197793
9.27 -0.22929
9.28 -0.259014
9.29 -0.286854
9.3 -0.312643
9.31 -0.336157
9.32 -0.35748
9.33 -0.376533
9.34 -0.393243
9.35 -0.407551
9.36 -0.419402
9.37 -0.428542
9.38 -0.435068
9.39 -0.439046
9.4 -0.440472
9.41 -0.439355
9.42 -0.435715
9.43 -0.429536
9.44 -0.420688
9.45 -0.409472
9.46 -0.395962
9.47 -0.380247
9.48 -0.362424
9.49 -0.342604
9.5 -0.320779
9.51 -0.297156
9.52 -0.271959
9.53 -0.245336
9.54 -0.217447
9.55 -0.188455
9.56 -0.158523
9.57 -0.127771
9.58 -0.0964744
9.59 -0.064811
9.6 -0.0329605
9.61 -0.00110104
9.62 0.0305913
9.63 0.061912
9.64 0.0926717
9.65 0.122731
9.66 0.151939
9.67 0.180152
9.68 0.20724
9.69 0.23308
9.7 0.257396
9.71 0.28024
9.72 0.301536
9.73 0.321217
9.74 0.339234
9.75 0.35555
9.76 0.370051
9.77 0.382704
9.78 0.393629
9.79 0.402844
9.8 0.410376
9.81 0.416263
9.82 0.420552
9.83 0.42314
9.84 0.424232
9.85 0.423911
9.86 0.422242
9.87 0.419291
9.88 0.415122
9.89 0.409758
9.9 0.403228
9.91 0.395679
9.92 0.387167
9.93 0.377744
9.94 0.367459
9.95 0.356359
9.96 0.344418
9.97 0.331737
9.98 0.318374
9.99 0.304368
10 0.28976
10.01 0.27459
10.02 0.25889
10.03 0.242684
10.04 0.226068
10.05 0.209096
10.06 0.191827
10.07 0.174323
10.08 0.15665
10.09 0.138874
10.1 0.121082
10.11 0.103349
10.12 0.0857502
10.13 0.0683573
10.14 0.051241
10.15 0.0344761
10.16 0.018165
10.17 0.00232742
10.18 -0.0129891
10.19 -0.0277449
10.2 -0.0419091
10.21 -0.0554602
10.22 -0.0683412
10.23 -0.0805659
10.24 -0.0921718
10.25 -0.103176
10.26 -0.113601
10.27 -0.12348
10.28 -0.132843
10.29 -0.141688
10.3 -0.150111
10.31 -0.158156
10.32 -0.165866
10.33 -0.173281
10.34 -0.180438
10.35 -0.187359
10.36 -0.194077
10.37 -0.200627
10.38 -0.207025
10.39 -0.213284
10.4 -0.219409
10.41 -0.225402
10.42 -0.231248
10.43 -0.236955
10.44 -0.242519
10.45 -0.247932
10.46 -0.25319
10.47 -0.258288
10.48 -0.26322
10.49 -0.267986
10.5 -0.272604
10.51 -0.277088
10.52 -0.281455
10.53 -0.285726
10.54 -0.289927
10.55 -0.294085
10.56 -0.298238
10.57 -0.302416
10.58 -0.306652
10.59 -0.310973
10.6 -0.315404
10.61 -0.319972
10.62 -0.324696
10.63 -0.329573
10.64 -0.334598
10.65 -0.339761
10.66 -0.345042
10.67 -0.350413
10.68 -0.355839
10.69 -0.361267
10.7 -0.366648
10.71 -0.371926
10.72 -0.377047
10.73 -0.381956
10.74 -0.38659
10.75 -0.390875
10.76 -0.394792
10.77 -0.398308
10.78 -0.4014
10.79 -0.404055
10.8 -0.406271
10.81 -0.408027
10.82 -0.409369
10.83 -0.410351
10.84 -0.411022
10.85 -0.411439
10.86 -0.411667
10.87 -0.411776
10.88 -0.411843
10.89 -0.411952
10.9 -0.412172
10.91 -0.412567
10.92 -0.413192
10.93 -0.414089
10.94 -0.415313
10.95 -0.416874
10.96 -0.418752
10.97 -0.420926
10.98 -0.42336
10.99 -0.425998
11 -0.428772
11.01 -0.431592
11.02 -0.434347
11.03 -0.43693
11.04 -0.439228
11.05 -0.441126
11.06 -0.442508
11.07 -0.44322
11.08 -0.443142
11.09 -0.442219
11.1 -0.440373
11.11 -0.437539
11.12 -0.433672
11.13 -0.428742
11.14 -0.422623
11.15 -0.415442
11.16 -0.407238
11.17 -0.398064
11.18 -0.387985
11.19 -0.377082
11.2 -0.365419
11.21 -0.353096
11.22 -0.340272
11.23 -0.327055
11.24 -0.313554
11.25 -0.299872
11.26 -0.286106
11.27 -0.272355
11.28 -0.258702
11.29 -0.245206
11.3 -0.231917
11.31 -0.218867
11.32 -0.206075
11.33 -0.193555
11.34 -0.181308
11.35 -0.16929
11.36 -0.157467
11.37 -0.145799
11.38 -0.134239
11.39 -0.122736
11.4 -0.111234
11.41 -0.0996736
11.42 -0.0880051
11.43 -0.0761828
11.44 -0.0641658
11.45 -0.0519196
11.46 -0.0394093
11.47 -0.0265927
11.48 -0.0134818
11.49 -7.02893e-05
11.5 0.0136423
11.51 0.0276519
11.52 0.0419507
11.53 0.0565488
11.54 0.0714223
11.55 0.0865483
11.56 0.101916
11.57 0.117515
11.58 0.13334
11.59 0.149389
11.6 0.16568
11.61 0.182191
11.62 0.198927
11.63 0.215891
11.64 0.233088
11.65 0.25052
11.66 0.268204
11.67 0.286132
11.68 0.304279
11.69 0.32263
11.7 0.341159
11.71 0.359831
11.72 0.378601
11.73 0.397414
11.74 0.41619
11.75 0.434854
11.76 0.453318
11.77 0.471488
11.78 0.489263
11.79 0.506503
11.8 0.523075
11.81 0.538901
11.82 0.55387
11.83 0.567876
11.84 0.580816
11.85 0.592597
11.86 0.602991
11.87 0.61204
11.88 0.619695
11.89 0.625909
11.9 0.630648
11.91 0.633891
11.92 0.635563
11.93 0.635627
11.94 0.634211
11.95 0.631344
11.96 0.627062
11.97 0.621408
11.98 0.614432
11.99 0.606068
12 0.596474
12.01 0.585731
12.02 0.573892
12.03 0.56101
12.04 0.547135
12.05 0.532284
12.06 0.51646
12.07 0.499783
12.08 0.482292
12.09 0.464023
12.1 0.445014
12.11 0.425304
12.12 0.40488
12.13 0.38383
12.14 0.362226
12.15 0.340127
12.16 0.317598
12.17 0.294714
12.18 0.271554
12.19 0.248213
12.2 0.224819
12.21 0.201486
12.22 0.178334
12.23 0.15549
12.24 0.133085
12.25 0.111309
12.26 0.0902947
