# xPDFsuite Configuration #
[PDF]
wavelength = 0.1
dataformat = QA
inputfile = BiMsol6_insitu_700 C-00297.xy
backgroundfile = Quartz2mm-dist500-00000.xy
mode = xray
bgscale = 0.0042
composition = Bi2Fe4O9
outputtype = gr
qmaxinst = 24.998449118
qmin = 0.1
qmax = 21.4986662415
rmax = 80.0
rmin = 0.0
rstep = 0.01
rpoly = 0.9

[Misc]
inputdir = C:/Data/Seafile/CPH/Beamtime/Desy Oct 20/In situ data/Processed/BiMsol6/PDF
savedir = C:/Data/Seafile/CPH/Beamtime/Desy Oct 20/In situ data/PDF/BiMsol6
backgroundfilefull = C:/Data/Seafile/CPH/Beamtime/Desy Oct 20/In situ data/Processed/Standard_Empty_Cap/Quartz2mm-dist500-00000.xy

#### start data
#S 1
#L r($\AA$)  G($\AA^{-2}$)
0 0
0.01 0.00662227
0.02 0.0128749
0.03 0.0184413
0.04 0.0230373
0.05 0.0264239
0.06 0.0284184
0.07 0.0288203
0.08 0.0275694
0.09 0.0248101
0.1 0.0206602
0.11 0.0153039
0.12 0.00898364
0.13 0.00198946
0.14 -0.00535422
0.15 -0.0126331
0.16 -0.019498
0.17 -0.0256208
0.18 -0.0307062
0.19 -0.034506
0.2 -0.0367646
0.21 -0.0373043
0.22 -0.0362185
0.23 -0.0335683
0.24 -0.0294946
0.25 -0.0242131
0.26 -0.0180066
0.27 -0.0111946
0.28 -0.00424839
0.29 0.00241235
0.3 0.00837947
0.31 0.0132631
0.32 0.0167108
0.33 0.0183646
0.34 0.0178718
0.35 0.0152733
0.36 0.0105557
0.37 0.00381065
0.38 -0.00476309
0.39 -0.0148623
0.4 -0.0261382
0.41 -0.0379707
0.42 -0.0497492
0.43 -0.0608522
0.44 -0.0706341
0.45 -0.0784488
0.46 -0.0836118
0.47 -0.0852416
0.48 -0.0831296
0.49 -0.0769067
0.5 -0.0663257
0.51 -0.0512759
0.52 -0.0317939
0.53 -0.00778694
0.54 0.0202071
0.55 0.0514688
0.56 0.0853312
0.57 0.121009
0.58 0.157621
0.59 0.194202
0.6 0.229529
0.61 0.262614
0.62 0.292475
0.63 0.318186
0.64 0.33891
0.65 0.353923
0.66 0.362227
0.67 0.363398
0.68 0.357591
0.69 0.34479
0.7 0.325169
0.71 0.299084
0.72 0.267064
0.73 0.229292
0.74 0.187285
0.75 0.142022
0.76 0.0945454
0.77 0.0459408
0.78 -0.00269198
0.79 -0.0501658
0.8 -0.0952773
0.81 -0.137192
0.82 -0.175108
0.83 -0.208365
0.84 -0.236453
0.85 -0.259029
0.86 -0.275338
0.87 -0.285924
0.88 -0.291082
0.89 -0.29118
0.9 -0.28672
0.91 -0.278323
0.92 -0.266605
0.93 -0.252364
0.94 -0.236657
0.95 -0.220302
0.96 -0.204088
0.97 -0.188754
0.98 -0.174961
0.99 -0.163517
1 -0.154767
1.01 -0.14896
1.02 -0.146268
1.03 -0.146736
1.04 -0.150286
1.05 -0.156795
1.06 -0.166073
1.07 -0.177464
1.08 -0.190504
1.09 -0.204686
1.1 -0.219487
1.11 -0.234384
1.12 -0.248804
1.13 -0.262255
1.14 -0.274372
1.15 -0.284845
1.16 -0.293448
1.17 -0.300042
1.18 -0.304546
1.19 -0.306846
1.2 -0.307293
1.21 -0.306097
1.22 -0.303529
1.23 -0.299898
1.24 -0.295545
1.25 -0.290818
1.26 -0.286116
1.27 -0.281768
1.28 -0.278049
1.29 -0.275184
1.3 -0.273336
1.31 -0.272614
1.32 -0.273163
1.33 -0.274802
1.34 -0.277411
1.35 -0.280815
1.36 -0.284791
1.37 -0.289081
1.38 -0.293388
1.39 -0.297379
1.4 -0.300775
1.41 -0.303321
1.42 -0.304797
1.43 -0.305033
1.44 -0.303911
1.45 -0.301221
1.46 -0.297141
1.47 -0.291775
1.48 -0.285282
1.49 -0.277878
1.5 -0.269829
1.51 -0.261437
1.52 -0.25308
1.53 -0.245118
1.54 -0.237883
1.55 -0.231684
1.56 -0.226797
1.57 -0.223448
1.58 -0.221987
1.59 -0.222368
1.6 -0.224572
1.61 -0.228528
1.62 -0.234094
1.63 -0.241056
1.64 -0.249161
1.65 -0.258056
1.66 -0.267269
1.67 -0.276389
1.68 -0.284992
1.69 -0.29266
1.7 -0.298998
1.71 -0.303463
1.72 -0.305821
1.73 -0.305888
1.74 -0.303505
1.75 -0.298591
1.76 -0.291151
1.77 -0.281213
1.78 -0.268826
1.79 -0.254472
1.8 -0.238477
1.81 -0.221214
1.82 -0.203101
1.83 -0.184574
1.84 -0.166121
1.85 -0.148236
1.86 -0.131326
1.87 -0.115758
1.88 -0.10185
1.89 -0.0898558
1.9 -0.0799908
1.91 -0.07256
1.92 -0.0673538
1.93 -0.0643048
1.94 -0.0632735
1.95 -0.0640563
1.96 -0.0663942
1.97 -0.0700454
1.98 -0.0746007
1.99 -0.0796472
2 -0.0848332
2.01 -0.0898219
2.02 -0.0943049
2.03 -0.0980103
2.04 -0.100592
2.05 -0.102002
2.06 -0.102164
2.07 -0.101068
2.08 -0.0987717
2.09 -0.0953972
2.1 -0.0910875
2.11 -0.0861136
2.12 -0.0808095
2.13 -0.0754827
2.14 -0.0704548
2.15 -0.0660483
2.16 -0.0625738
2.17 -0.0604795
2.18 -0.059909
2.19 -0.0610447
2.2 -0.0640233
2.21 -0.0689214
2.22 -0.0757522
2.23 -0.0845455
2.24 -0.0952095
2.25 -0.107425
2.26 -0.120958
2.27 -0.135533
2.28 -0.150845
2.29 -0.166568
2.3 -0.182343
2.31 -0.1978
2.32 -0.212629
2.33 -0.22655
2.34 -0.239319
2.35 -0.250739
2.36 -0.260606
2.37 -0.268745
2.38 -0.27526
2.39 -0.280185
2.4 -0.283605
2.41 -0.285651
2.42 -0.286497
2.43 -0.286282
2.44 -0.285326
2.45 -0.283903
2.46 -0.282262
2.47 -0.280647
2.48 -0.279281
2.49 -0.278384
2.5 -0.278189
2.51 -0.278775
2.52 -0.280228
2.53 -0.282591
2.54 -0.285867
2.55 -0.290019
2.56 -0.295025
2.57 -0.30073
2.58 -0.306965
2.59 -0.313572
2.6 -0.320384
2.61 -0.327231
2.62 -0.333938
2.63 -0.340303
2.64 -0.346204
2.65 -0.351524
2.66 -0.356169
2.67 -0.360072
2.68 -0.363193
2.69 -0.365468
2.7 -0.366923
2.71 -0.367637
2.72 -0.367665
2.73 -0.367072
2.74 -0.365931
2.75 -0.364316
2.76 -0.362258
2.77 -0.359868
2.78 -0.35719
2.79 -0.354252
2.8 -0.35106
2.81 -0.347602
2.82 -0.343824
2.83 -0.339658
2.84 -0.335049
2.85 -0.329907
2.86 -0.324136
2.87 -0.317633
2.88 -0.310298
2.89 -0.301928
2.9 -0.292526
2.91 -0.282039
2.92 -0.270429
2.93 -0.257681
2.94 -0.24381
2.95 -0.228815
2.96 -0.21275
2.97 -0.195802
2.98 -0.178103
2.99 -0.159805
3 -0.141078
3.01 -0.122102
3.02 -0.103078
3.03 -0.0842156
3.04 -0.0656943
3.05 -0.0476768
3.06 -0.0303069
3.07 -0.0137044
3.08 0.00200903
3.09 0.0167189
3.1 0.0304796
3.11 0.0433035
3.12 0.0552343
3.13 0.0663449
3.14 0.0767338
3.15 0.0864822
3.16 0.0957776
3.17 0.104788
3.18 0.113667
3.19 0.122563
3.2 0.131617
3.21 0.140966
3.22 0.150757
3.23 0.161039
3.24 0.171866
3.25 0.18326
3.26 0.195217
3.27 0.207706
3.28 0.220695
3.29 0.234075
3.3 0.247717
3.31 0.261501
3.32 0.275298
3.33 0.288973
3.34 0.302389
3.35 0.31537
3.36 0.327833
3.37 0.339683
3.38 0.350845
3.39 0.361266
3.4 0.370916
3.41 0.379739
3.42 0.387767
3.43 0.395085
3.44 0.401755
3.45 0.407854
3.46 0.413471
3.47 0.418699
3.48 0.423614
3.49 0.428349
3.5 0.432991
3.51 0.437611
3.52 0.442267
3.53 0.446998
3.54 0.451829
3.55 0.456758
3.56 0.461751
3.57 0.466762
3.58 0.471728
3.59 0.476572
3.6 0.481203
3.61 0.485484
3.62 0.48933
3.63 0.492649
3.64 0.495347
3.65 0.497342
3.66 0.498564
3.67 0.498925
3.68 0.498357
3.69 0.496913
3.7 0.494603
3.71 0.491456
3.72 0.487519
3.73 0.482855
3.74 0.47749
3.75 0.471567
3.76 0.465195
3.77 0.458471
3.78 0.451489
3.79 0.444335
3.8 0.437089
3.81 0.42982
3.82 0.422582
3.83 0.415403
3.84 0.408296
3.85 0.401253
3.86 0.394251
3.87 0.387244
3.88 0.38017
3.89 0.372962
3.9 0.365547
3.91 0.357846
3.92 0.349782
3.93 0.341273
3.94 0.332204
3.95 0.322569
3.96 0.312327
3.97 0.301457
3.98 0.289952
3.99 0.277824
4 0.265064
4.01 0.251741
4.02 0.237949
4.03 0.223765
4.04 0.209276
4.05 0.194577
4.06 0.179766
4.07 0.164951
4.08 0.150238
4.09 0.135713
4.1 0.121453
4.11 0.107525
4.12 0.0939815
4.13 0.0808871
4.14 0.0682652
4.15 0.056096
4.16 0.0443708
4.17 0.033069
4.18 0.0221598
4.19 0.011605
4.2 0.00139136
4.21 -0.0085649
4.22 -0.0183091
4.23 -0.0278813
4.24 -0.0373153
4.25 -0.0466367
4.26 -0.0558566
4.27 -0.0649771
4.28 -0.0739952
4.29 -0.0828903
4.3 -0.0916318
4.31 -0.10018
4.32 -0.10849
4.33 -0.116473
4.34 -0.124098
4.35 -0.131315
4.36 -0.138076
4.37 -0.144338
4.38 -0.150067
4.39 -0.155218
4.4 -0.159756
4.41 -0.16373
4.42 -0.167158
4.43 -0.170072
4.44 -0.172513
4.45 -0.174538
4.46 -0.176183
4.47 -0.177551
4.48 -0.178725
4.49 -0.179781
4.5 -0.180791
4.51 -0.181825
4.52 -0.182945
4.53 -0.184216
4.54 -0.185664
4.55 -0.187311
4.56 -0.189164
4.57 -0.191215
4.58 -0.193444
4.59 -0.195825
4.6 -0.198298
4.61 -0.200803
4.62 -0.203276
4.63 -0.205653
4.64 -0.207868
4.65 -0.209853
4.66 -0.211521
4.67 -0.21285
4.68 -0.213803
4.69 -0.21436
4.7 -0.214512
4.71 -0.214266
4.72 -0.213618
4.73 -0.212621
4.74 -0.211344
4.75 -0.209851
4.76 -0.208213
4.77 -0.206507
4.78 -0.204815
4.79 -0.203239
4.8 -0.201852
4.81 -0.200726
4.82 -0.199922
4.83 -0.199492
4.84 -0.199474
4.85 -0.199919
4.86 -0.200836
4.87 -0.20219
4.88 -0.203958
4.89 -0.206103
4.9 -0.208578
4.91 -0.211325
4.92 -0.214296
4.93 -0.217394
4.94 -0.220547
4.95 -0.223687
4.96 -0.22675
4.97 -0.229677
4.98 -0.232409
4.99 -0.234896
5 -0.237125
5.01 -0.239083
5.02 -0.240764
5.03 -0.242176
5.04 -0.243334
5.05 -0.244241
5.06 -0.244949
5.07 -0.245494
5.08 -0.245909
5.09 -0.246225
5.1 -0.246468
5.11 -0.246656
5.12 -0.2468
5.13 -0.246902
5.14 -0.24695
5.15 -0.246922
5.16 -0.246784
5.17 -0.246492
5.18 -0.245969
5.19 -0.245158
5.2 -0.243999
5.21 -0.242422
5.22 -0.240358
5.23 -0.237742
5.24 -0.234495
5.25 -0.230515
5.26 -0.225819
5.27 -0.220381
5.28 -0.214187
5.29 -0.207239
5.3 -0.199553
5.31 -0.19111
5.32 -0.181989
5.33 -0.172281
5.34 -0.162056
5.35 -0.151396
5.36 -0.140387
5.37 -0.129118
5.38 -0.117675
5.39 -0.106172
5.4 -0.0946947
5.41 -0.0833192
5.42 -0.0721149
5.43 -0.0611411
5.44 -0.0504676
5.45 -0.0401315
5.46 -0.0301421
5.47 -0.020513
5.48 -0.0112492
5.49 -0.00234817
5.5 0.00619762
5.51 0.0143632
5.52 0.0222025
5.53 0.029728
5.54 0.0369493
5.55 0.0438711
5.56 0.050492
5.57 0.0567858
5.58 0.0627303
5.59 0.0683186
5.6 0.0735173
5.61 0.0782866
5.62 0.0825816
5.63 0.0863541
5.64 0.0894877
5.65 0.0919862
5.66 0.093811
5.67 0.0949247
5.68 0.0952984
5.69 0.0949138
5.7 0.0937312
5.71 0.0917393
5.72 0.0890196
5.73 0.0856119
5.74 0.0815705
5.75 0.0769626
5.76 0.071867
5.77 0.0663433
5.78 0.0605302
5.79 0.0545372
5.8 0.0484669
5.81 0.0424204
5.82 0.0364937
5.83 0.0307855
5.84 0.0253983
5.85 0.0203764
5.86 0.0157688
5.87 0.0116096
5.88 0.00791758
5.89 0.00469633
5.9 0.00197268
5.91 -0.00030726
5.92 -0.0021949
5.93 -0.00373533
5.94 -0.00497879
5.95 -0.00597776
5.96 -0.00678094
5.97 -0.00743127
5.98 -0.00798537
5.99 -0.00847281
6 -0.00891158
6.01 -0.00930663
6.02 -0.00964911
6.03 -0.00990758
6.04 -0.0100407
6.05 -0.00999936
6.06 -0.00972112
6.07 -0.00913556
6.08 -0.00816728
6.09 -0.00673312
6.1 -0.00469751
6.11 -0.00204226
6.12 0.00129184
6.13 0.00535139
6.14 0.0101677
6.15 0.0157543
6.16 0.0221524
6.17 0.0293204
6.18 0.0371645
6.19 0.0456115
6.2 0.0545695
6.21 0.0639295
6.22 0.0735684
6.23 0.0833525
6.24 0.0931098
6.25 0.102696
6.26 0.111968
6.27 0.120791
6.28 0.129039
6.29 0.136561
6.3 0.143243
6.31 0.149064
6.32 0.153982
6.33 0.157976
6.34 0.161054
6.35 0.163247
6.36 0.164527
6.37 0.165061
6.38 0.164956
6.39 0.164325
6.4 0.163293
6.41 0.16199
6.42 0.160549
6.43 0.159118
6.44 0.157829
6.45 0.156793
6.46 0.156108
6.47 0.155855
6.48 0.156093
6.49 0.156917
6.5 0.158306
6.51 0.160238
6.52 0.162688
6.53 0.165608
6.54 0.168937
6.55 0.172606
6.56 0.176531
6.57 0.180589
6.58 0.184686
6.59 0.188727
6.6 0.192623
6.61 0.196291
6.62 0.19963
6.63 0.202594
6.64 0.205151
6.65 0.20728
6.66 0.208972
6.67 0.210234
6.68 0.211083
6.69 0.211529
6.7 0.211662
6.71 0.211537
6.72 0.211216
6.73 0.210761
6.74 0.210234
6.75 0.209697
6.76 0.209207
6.77 0.208804
6.78 0.208515
6.79 0.208356
6.8 0.208328
6.81 0.208419
6.82 0.208607
6.83 0.208836
6.84 0.209052
6.85 0.20919
6.86 0.20918
6.87 0.208944
6.88 0.20838
6.89 0.2074
6.9 0.205948
6.91 0.203955
6.92 0.201363
6.93 0.198121
6.94 0.194193
6.95 0.189472
6.96 0.184027
6.97 0.177866
6.98 0.17101
6.99 0.163489
7 0.155347
7.01 0.146609
7.02 0.137337
7.03 0.127635
7.04 0.117572
7.05 0.107217
7.06 0.0966387
7.07 0.085903
7.08 0.0750661
7.09 0.0641958
7.1 0.053339
7.11 0.0425336
7.12 0.0318098
7.13 0.0211901
7.14 0.0106952
7.15 0.000340061
7.16 -0.00988152
7.17 -0.0199695
7.18 -0.0299256
7.19 -0.0397517
7.2 -0.0494487
7.21 -0.0590022
7.22 -0.068414
7.23 -0.0776753
7.24 -0.0867688
7.25 -0.0956712
7.26 -0.104353
7.27 -0.112771
7.28 -0.120862
7.29 -0.128605
7.3 -0.135953
7.31 -0.142859
7.32 -0.149276
7.33 -0.155161
7.34 -0.160425
7.35 -0.165058
7.36 -0.169058
7.37 -0.17241
7.38 -0.175112
7.39 -0.177171
7.4 -0.178597
7.41 -0.179375
7.42 -0.179613
7.43 -0.179365
7.44 -0.178695
7.45 -0.177673
7.46 -0.176376
7.47 -0.174875
7.48 -0.173267
7.49 -0.171642
7.5 -0.170074
7.51 -0.168633
7.52 -0.167382
7.53 -0.166375
7.54 -0.165687
7.55 -0.165314
7.56 -0.165271
7.57 -0.165554
7.58 -0.166151
7.59 -0.167033
7.6 -0.168173
7.61 -0.169511
7.62 -0.170971
7.63 -0.172486
7.64 -0.173982
7.65 -0.175385
7.66 -0.176618
7.67 -0.177575
7.68 -0.178207
7.69 -0.178455
7.7 -0.17827
7.71 -0.177611
7.72 -0.176449
7.73 -0.174745
7.74 -0.172486
7.75 -0.169723
7.76 -0.166484
7.77 -0.162808
7.78 -0.158748
7.79 -0.154363
7.8 -0.149706
7.81 -0.144881
7.82 -0.139975
7.83 -0.135068
7.84 -0.130241
7.85 -0.125573
7.86 -0.121148
7.87 -0.117053
7.88 -0.113324
7.89 -0.110005
7.9 -0.107129
7.91 -0.104718
7.92 -0.102779
7.93 -0.101349
7.94 -0.100377
7.95 -0.0998211
7.96 -0.0996387
7.97 -0.0997801
7.98 -0.100188
7.99 -0.100803
8 -0.101561
8.01 -0.102375
8.02 -0.10318
8.03 -0.103914
8.04 -0.10452
8.05 -0.104948
8.06 -0.105136
8.07 -0.105059
8.08 -0.104709
8.09 -0.104078
8.1 -0.103174
8.11 -0.102012
8.12 -0.100619
8.13 -0.0990202
8.14 -0.0972889
8.15 -0.0954806
8.16 -0.0936559
8.17 -0.0918785
8.18 -0.0902129
8.19 -0.0887379
8.2 -0.0875177
8.21 -0.0865946
8.22 -0.086012
8.23 -0.0858029
8.24 -0.0859891
8.25 -0.0865807
8.26 -0.087615
8.27 -0.0890235
8.28 -0.0907696
8.29 -0.0928038
8.3 -0.0950635
8.31 -0.0974753
8.32 -0.0999545
8.33 -0.102395
8.34 -0.104696
8.35 -0.106758
8.36 -0.10848
8.37 -0.109766
8.38 -0.110522
8.39 -0.11059
8.4 -0.109951
8.41 -0.108549
8.42 -0.106338
8.43 -0.103286
8.44 -0.0993782
8.45 -0.0945747
8.46 -0.0888735
8.47 -0.0823708
8.48 -0.0751151
8.49 -0.0671676
8.5 -0.0585999
8.51 -0.0494925
8.52 -0.0398974
8.53 -0.0299523
8.54 -0.0197585
8.55 -0.0094079
8.56 0.00101151
8.57 0.0114172
8.58 0.0217287
8.59 0.0318647
8.6 0.0417812
8.61 0.0514365
8.62 0.0608011
8.63 0.0698564
8.64 0.0785952
8.65 0.0869943
8.66 0.0950866
8.67 0.102903
8.68 0.11047
8.69 0.11782
8.7 0.124983
8.71 0.131989
8.72 0.138863
8.73 0.145644
8.74 0.152351
8.75 0.158996
8.76 0.165582
8.77 0.172106
8.78 0.178546
8.79 0.184879
8.8 0.191076
8.81 0.197096
8.82 0.202894
8.83 0.208418
8.84 0.21361
8.85 0.218371
8.86 0.22268
8.87 0.226483
8.88 0.22973
8.89 0.232376
8.9 0.234382
8.91 0.235671
8.92 0.236227
8.93 0.236072
8.94 0.235203
8.95 0.233626
8.96 0.231354
8.97 0.228408
8.98 0.224745
8.99 0.220478
9 0.215645
9.01 0.210289
9.02 0.204452
9.03 0.198178
9.04 0.191491
9.05 0.184433
9.06 0.177066
9.07 0.169425
9.08 0.161537
9.09 0.153431
9.1 0.145128
9.11 0.136629
9.12 0.127971
9.13 0.119168
9.14 0.110235
9.15 0.101183
9.16 0.0920292
9.17 0.082786
9.18 0.073475
9.19 0.0641272
9.2 0.0547719
9.21 0.0454434
9.22 0.0361811
9.23 0.0270295
9.24 0.0180579
9.25 0.00931443
9.26 0.000852615
9.27 -0.00726845
9.28 -0.0149889
9.29 -0.0222493
9.3 -0.028974
9.31 -0.0350711
9.32 -0.0405375
9.33 -0.0453311
9.34 -0.0494172
9.35 -0.0527691
9.36 -0.0553689
9.37 -0.0571437
9.38 -0.0581359
9.39 -0.0583828
9.4 -0.0579059
9.41 -0.0567348
9.42 -0.0549067
9.43 -0.0524532
9.44 -0.0493868
9.45 -0.0458186
9.46 -0.0418039
9.47 -0.0373983
9.48 -0.0326572
9.49 -0.027634
9.5 -0.0223661
9.51 -0.0169134
9.52 -0.0113274
9.53 -0.00564458
9.54 0.000103061
9.55 0.00588866
9.56 0.0116899
9.57 0.0174865
9.58 0.0232637
9.59 0.0290101
9.6 0.0347161
9.61 0.0403731
9.62 0.045972
9.63 0.0514982
9.64 0.0569385
9.65 0.0622823
9.66 0.0675122
9.67 0.0726076
9.68 0.0775452
9.69 0.0822982
9.7 0.0868093
9.71 0.0910682
9.72 0.0950422
9.73 0.0986982
9.74 0.102003
9.75 0.104927
9.76 0.107417
9.77 0.109439
9.78 0.111002
9.79 0.112092
9.8 0.112699
9.81 0.112824
9.82 0.11247
9.83 0.111602
9.84 0.110285
9.85 0.10855
9.86 0.106426
9.87 0.103951
9.88 0.101163
9.89 0.0980932
9.9 0.0947833
9.91 0.0912964
9.92 0.0876743
9.93 0.0839568
9.94 0.0801808
9.95 0.0763789
9.96 0.072582
9.97 0.0688151
9.98 0.0650946
9.99 0.0614314
10 0.0578316
10.01 0.0542959
10.02 0.0508222
10.03 0.0474047
10.04 0.0440265
10.05 0.0406741
10.06 0.0373324
10.07 0.033986
10.08 0.0306197
10.09 0.0272158
10.1 0.0237624
10.11 0.0202517
10.12 0.0166777
10.13 0.0130374
10.14 0.00933154
10.15 0.00556304
10.16 0.00173621
10.17 -0.00213173
10.18 -0.00602688
10.19 -0.00993314
10.2 -0.0138327
10.21 -0.0177064
10.22 -0.0215299
10.23 -0.0252815
10.24 -0.028944
10.25 -0.0324991
10.26 -0.0359293
10.27 -0.0392191
10.28 -0.0423533
10.29 -0.0453018
10.3 -0.0480725
10.31 -0.0506583
10.32 -0.0530541
10.33 -0.0552567
10.34 -0.0572649
10.35 -0.0590677
10.36 -0.0606689
10.37 -0.0620836
10.38 -0.063318
10.39 -0.0643795
10.4 -0.0652773
10.41 -0.0660219
10.42 -0.0666114
10.43 -0.0670769
10.44 -0.0674352
10.45 -0.0677046
10.46 -0.067905
10.47 -0.0680584
10.48 -0.0681884
10.49 -0.0683242
10.5 -0.0684938
10.51 -0.0687247
10.52 -0.0690448
10.53 -0.0694816
10.54 -0.0700617
10.55 -0.0708299
10.56 -0.0717959
10.57 -0.0729758
10.58 -0.0743837
10.59 -0.0760291
10.6 -0.0779157
10.61 -0.0800499
10.62 -0.0824299
10.63 -0.0850194
10.64 -0.0877936
10.65 -0.0907215
10.66 -0.0937656
10.67 -0.0968828
10.68 -0.100023
10.69 -0.103126
10.7 -0.106137
10.71 -0.109002
10.72 -0.111666
10.73 -0.114077
10.74 -0.11618
10.75 -0.117905
10.76 -0.119247
10.77 -0.120184
10.78 -0.120701
10.79 -0.120794
10.8 -0.120471
10.81 -0.11972
10.82 -0.118594
10.83 -0.117151
10.84 -0.115442
10.85 -0.113527
10.86 -0.111475
10.87 -0.109355
10.88 -0.107252
10.89 -0.105247
10.9 -0.103412
10.91 -0.101815
10.92 -0.100518
10.93 -0.0995736
10.94 -0.0990551
10.95 -0.0989881
10.96 -0.0993682
10.97 -0.100197
10.98 -0.101461
10.99 -0.103133
11 -0.105177
11.01 -0.107564
11.02 -0.110188
11.03 -0.112975
11.04 -0.115841
11.05 -0.118699
11.06 -0.12146
11.07 -0.124019
11.08 -0.126274
11.09 -0.128158
11.1 -0.129597
11.11 -0.130529
11.12 -0.130901
11.13 -0.130674
11.14 -0.129752
11.15 -0.12819
11.16 -0.125997
11.17 -0.123196
11.18 -0.119817
11.19 -0.115908
11.2 -0.111505
11.21 -0.106673
11.22 -0.101518
11.23 -0.0961191
11.24 -0.0905547
11.25 -0.0849049
11.26 -0.0792475
11.27 -0.0736696
11.28 -0.0682399
11.29 -0.0630152
11.3 -0.0580449
11.31 -0.0533682
11.32 -0.0490142
11.33 -0.0450134
11.34 -0.0413891
11.35 -0.0381077
11.36 -0.0351544
11.37 -0.0325056
11.38 -0.0301305
11.39 -0.0279923
11.4 -0.0260624
11.41 -0.0242783
11.42 -0.0225877
11.43 -0.0209434
11.44 -0.0192995
11.45 -0.0176125
11.46 -0.0158393
11.47 -0.0139317
11.48 -0.0118682
11.49 -0.00962442
11.5 -0.00718147
11.51 -0.00452589
11.52 -0.0016496
11.53 0.00146763
11.54 0.00481496
11.55 0.00837683
11.56 0.0121433
11.57 0.0161018
11.58 0.0202376
11.59 0.0245365
11.6 0.0289923
11.61 0.033571
11.62 0.0382551
11.63 0.0430275
11.64 0.0478714
11.65 0.0527709
11.66 0.0577123
11.67 0.062678
11.68 0.0676519
11.69 0.07262
11.7 0.0775686
11.71 0.0824837
11.72 0.0873509
11.73 0.0921468
11.74 0.0968619
11.75 0.10148
11.76 0.105985
11.77 0.11036
11.78 0.114587
11.79 0.118639
11.8 0.122494
11.81 0.126147
11.82 0.12958
11.83 0.132778
11.84 0.135729
11.85 0.138418
11.86 0.140808
11.87 0.142914
11.88 0.144735
11.89 0.146266
11.9 0.147507
11.91 0.14846
11.92 0.149113
11.93 0.149465
11.94 0.149543
11.95 0.149355
11.96 0.148906
11.97 0.148207
11.98 0.147265
11.99 0.146064
12 0.144631
12.01 0.142975
12.02 0.141101
12.03 0.139011
12.04 0.136708
12.05 0.134184
