# xPDFsuite Configuration #
[PDF]
wavelength = 0.1
dataformat = QA
inputfile = BiMsol6_insitu_700 C-00450.xy
backgroundfile = Quartz2mm-dist500-00000.xy
mode = xray
bgscale = 0.0042
composition = Bi2Fe4O9
outputtype = gr
qmaxinst = 24.998449118
qmin = 0.1
qmax = 21.4986662415
rmax = 80.0
rmin = 0.0
rstep = 0.01
rpoly = 0.9

[Misc]
inputdir = C:/Data/Seafile/CPH/Beamtime/Desy Oct 20/In situ data/Processed/BiMsol6/PDF
savedir = C:/Data/Seafile/CPH/Beamtime/Desy Oct 20/In situ data/PDF/BiMsol6
backgroundfilefull = C:/Data/Seafile/CPH/Beamtime/Desy Oct 20/In situ data/Processed/Standard_Empty_Cap/Quartz2mm-dist500-00000.xy

#### start data
#S 1
#L r($\AA$)  G($\AA^{-2}$)
0 0
0.01 0.0063744
0.02 0.012391
0.03 0.0177434
0.04 0.0221565
0.05 0.0253994
0.06 0.0272952
0.07 0.0276504
0.08 0.0264073
0.09 0.0237062
0.1 0.0196616
0.11 0.0144525
0.12 0.008314
0.13 0.00152735
0.14 -0.00559262
0.15 -0.0126452
0.16 -0.0192927
0.17 -0.0252178
0.18 -0.0301354
0.19 -0.0338063
0.2 -0.0359842
0.21 -0.036499
0.22 -0.0354427
0.23 -0.0328763
0.24 -0.0289379
0.25 -0.0238381
0.26 -0.0178521
0.27 -0.0112916
0.28 -0.00461315
0.29 0.00177686
0.3 0.00748339
0.31 0.0121296
0.32 0.0153755
0.33 0.0168758
0.34 0.0162913
0.35 0.0136651
0.36 0.00898715
0.37 0.00234958
0.38 -0.00605187
0.39 -0.0159202
0.4 -0.026913
0.41 -0.0384272
0.42 -0.0498694
0.43 -0.0606358
0.44 -0.0700994
0.45 -0.0776338
0.46 -0.0825748
0.47 -0.0840673
0.48 -0.081912
0.49 -0.0757528
0.5 -0.0653515
0.51 -0.0506023
0.52 -0.0315421
0.53 -0.00808154
0.54 0.0192565
0.55 0.0497738
0.56 0.0828235
0.57 0.117645
0.58 0.153384
0.59 0.189108
0.6 0.223633
0.61 0.256002
0.62 0.285263
0.63 0.31052
0.64 0.330961
0.65 0.345885
0.66 0.354321
0.67 0.355855
0.68 0.350631
0.69 0.338627
0.7 0.320002
0.71 0.29509
0.72 0.264395
0.73 0.228073
0.74 0.187584
0.75 0.143863
0.76 0.0979059
0.77 0.0507522
0.78 0.00345516
0.79 -0.0428518
0.8 -0.0870135
0.81 -0.128216
0.82 -0.165685
0.83 -0.198773
0.84 -0.226982
0.85 -0.249966
0.86 -0.266984
0.87 -0.278533
0.88 -0.28487
0.89 -0.286323
0.9 -0.283351
0.91 -0.27652
0.92 -0.266391
0.93 -0.253695
0.94 -0.239435
0.95 -0.224374
0.96 -0.209256
0.97 -0.194778
0.98 -0.181569
0.99 -0.170386
1 -0.161584
1.01 -0.155422
1.02 -0.152086
1.03 -0.151647
1.04 -0.154064
1.05 -0.159257
1.06 -0.16709
1.07 -0.176984
1.08 -0.188538
1.09 -0.201316
1.1 -0.214855
1.11 -0.228696
1.12 -0.242346
1.13 -0.255353
1.14 -0.267375
1.15 -0.278124
1.16 -0.287383
1.17 -0.295008
1.18 -0.300902
1.19 -0.304942
1.2 -0.307392
1.21 -0.308404
1.22 -0.308177
1.23 -0.306947
1.24 -0.304974
1.25 -0.302509
1.26 -0.299864
1.27 -0.297299
1.28 -0.295022
1.29 -0.293202
1.3 -0.291958
1.31 -0.291367
1.32 -0.29151
1.33 -0.292266
1.34 -0.29354
1.35 -0.295196
1.36 -0.297067
1.37 -0.298964
1.38 -0.300662
1.39 -0.301931
1.4 -0.302599
1.41 -0.302508
1.42 -0.301531
1.43 -0.299587
1.44 -0.296641
1.45 -0.292604
1.46 -0.287666
1.47 -0.281965
1.48 -0.275676
1.49 -0.269014
1.5 -0.262221
1.51 -0.255582
1.52 -0.249415
1.53 -0.243971
1.54 -0.239493
1.55 -0.236193
1.56 -0.234241
1.57 -0.233757
1.58 -0.234958
1.59 -0.237703
1.6 -0.241884
1.61 -0.247356
1.62 -0.253914
1.63 -0.2613
1.64 -0.269217
1.65 -0.277282
1.66 -0.285095
1.67 -0.292286
1.68 -0.298492
1.69 -0.303375
1.7 -0.306628
1.71 -0.307804
1.72 -0.306806
1.73 -0.303569
1.74 -0.298046
1.75 -0.290263
1.76 -0.280322
1.77 -0.268349
1.78 -0.254505
1.79 -0.239274
1.8 -0.223005
1.81 -0.206078
1.82 -0.188888
1.83 -0.171835
1.84 -0.155377
1.85 -0.139897
1.86 -0.125684
1.87 -0.112998
1.88 -0.102039
1.89 -0.0929378
1.9 -0.0857858
1.91 -0.0807309
1.92 -0.0774779
1.93 -0.0758662
1.94 -0.0756792
1.95 -0.0766545
1.96 -0.0784948
1.97 -0.0808947
1.98 -0.0834686
1.99 -0.0858729
2 -0.087811
2.01 -0.0890204
2.02 -0.0892835
2.03 -0.0884323
2.04 -0.0862259
2.05 -0.0827745
2.06 -0.0781256
2.07 -0.0723918
2.08 -0.0657465
2.09 -0.0584178
2.1 -0.0506744
2.11 -0.0428773
2.12 -0.0353851
2.13 -0.0285412
2.14 -0.0226829
2.15 -0.0181284
2.16 -0.0151647
2.17 -0.0142595
2.18 -0.0154263
2.19 -0.0187679
2.2 -0.0243354
2.21 -0.0321127
2.22 -0.0420163
2.23 -0.0539783
2.24 -0.067799
2.25 -0.0830664
2.26 -0.0994678
2.27 -0.116661
2.28 -0.134287
2.29 -0.15198
2.3 -0.169317
2.31 -0.185949
2.32 -0.20158
2.33 -0.215952
2.34 -0.228854
2.35 -0.24013
2.36 -0.249621
2.37 -0.257209
2.38 -0.263073
2.39 -0.267306
2.4 -0.270049
2.41 -0.271486
2.42 -0.271834
2.43 -0.271288
2.44 -0.270185
2.45 -0.268814
2.46 -0.267429
2.47 -0.266267
2.48 -0.265541
2.49 -0.265449
2.5 -0.266202
2.51 -0.267829
2.52 -0.270374
2.53 -0.273842
2.54 -0.278194
2.55 -0.283353
2.56 -0.289252
2.57 -0.295706
2.58 -0.302526
2.59 -0.309538
2.6 -0.316566
2.61 -0.323437
2.62 -0.329981
2.63 -0.335994
2.64 -0.341394
2.65 -0.34609
2.66 -0.350017
2.67 -0.353141
2.68 -0.355457
2.69 -0.356938
2.7 -0.35765
2.71 -0.357704
2.72 -0.357186
2.73 -0.356188
2.74 -0.354807
2.75 -0.353138
2.76 -0.351256
2.77 -0.349263
2.78 -0.347215
2.79 -0.345148
2.8 -0.343079
2.81 -0.341001
2.82 -0.338884
2.83 -0.336673
2.84 -0.334305
2.85 -0.331702
2.86 -0.32878
2.87 -0.325451
2.88 -0.32163
2.89 -0.317167
2.9 -0.312045
2.91 -0.306221
2.92 -0.299665
2.93 -0.292365
2.94 -0.284334
2.95 -0.275576
2.96 -0.266136
2.97 -0.25614
2.98 -0.24568
2.99 -0.234854
3 -0.223769
3.01 -0.21253
3.02 -0.201243
3.03 -0.190008
3.04 -0.1789
3.05 -0.167967
3.06 -0.157239
3.07 -0.146715
3.08 -0.136375
3.09 -0.126163
3.1 -0.115979
3.11 -0.105715
3.12 -0.095246
3.13 -0.084431
3.14 -0.0731217
3.15 -0.0610994
3.16 -0.0482345
3.17 -0.0344162
3.18 -0.0195318
3.19 -0.00349314
3.2 0.013758
3.21 0.0322711
3.22 0.0521182
3.23 0.0731161
3.24 0.0951615
3.25 0.118112
3.26 0.141791
3.27 0.165987
3.28 0.190465
3.29 0.214919
3.3 0.239063
3.31 0.262617
3.32 0.285304
3.33 0.306857
3.34 0.327012
3.35 0.345364
3.36 0.361882
3.37 0.376418
3.38 0.388868
3.39 0.399168
3.4 0.407296
3.41 0.413149
3.42 0.416824
3.43 0.418554
3.44 0.418485
3.45 0.416795
3.46 0.413682
3.47 0.40936
3.48 0.403966
3.49 0.39786
3.5 0.391264
3.51 0.384389
3.52 0.377428
3.53 0.370554
3.54 0.363936
3.55 0.357717
3.56 0.35197
3.57 0.346756
3.58 0.34211
3.59 0.338044
3.6 0.334549
3.61 0.331649
3.62 0.329247
3.63 0.327281
3.64 0.325694
3.65 0.324429
3.66 0.323429
3.67 0.322655
3.68 0.32207
3.69 0.321635
3.7 0.321338
3.71 0.321184
3.72 0.321189
3.73 0.321381
3.74 0.321825
3.75 0.32256
3.76 0.323633
3.77 0.325102
3.78 0.32702
3.79 0.329439
3.8 0.332419
3.81 0.336031
3.82 0.340245
3.83 0.345064
3.84 0.350479
3.85 0.356462
3.86 0.362973
3.87 0.369987
3.88 0.377401
3.89 0.385115
3.9 0.393034
3.91 0.40106
3.92 0.409086
3.93 0.417002
3.94 0.424675
3.95 0.432014
3.96 0.438926
3.97 0.445324
3.98 0.451129
3.99 0.456273
4 0.460644
4.01 0.464207
4.02 0.466961
4.03 0.468881
4.04 0.469949
4.05 0.470155
4.06 0.469487
4.07 0.467858
4.08 0.465365
4.09 0.462014
4.1 0.457811
4.11 0.45276
4.12 0.446867
4.13 0.440087
4.14 0.432425
4.15 0.423934
4.16 0.414618
4.17 0.404482
4.18 0.393534
4.19 0.381785
4.2 0.369164
4.21 0.355781
4.22 0.341666
4.23 0.326853
4.24 0.311383
4.25 0.295304
4.26 0.278644
4.27 0.261462
4.28 0.243858
4.29 0.2259
4.3 0.207654
4.31 0.189188
4.32 0.170566
4.33 0.151848
4.34 0.133102
4.35 0.114379
4.36 0.0957175
4.37 0.0771508
4.38 0.0587017
4.39 0.0403902
4.4 0.0222278
4.41 0.00420077
4.42 -0.0136999
4.43 -0.0314878
4.44 -0.049179
4.45 -0.0667903
4.46 -0.0843326
4.47 -0.101823
4.48 -0.119269
4.49 -0.136668
4.5 -0.15401
4.51 -0.171276
4.52 -0.18843
4.53 -0.205417
4.54 -0.222195
4.55 -0.238701
4.56 -0.254867
4.57 -0.27062
4.58 -0.28588
4.59 -0.300518
4.6 -0.31447
4.61 -0.327685
4.62 -0.3401
4.63 -0.351657
4.64 -0.362314
4.65 -0.372024
4.66 -0.380689
4.67 -0.388408
4.68 -0.395199
4.69 -0.401095
4.7 -0.406146
4.71 -0.410411
4.72 -0.413921
4.73 -0.416784
4.74 -0.419123
4.75 -0.42103
4.76 -0.422599
4.77 -0.423918
4.78 -0.425075
4.79 -0.426145
4.8 -0.427213
4.81 -0.428334
4.82 -0.42955
4.83 -0.430892
4.84 -0.432378
4.85 -0.434022
4.86 -0.435814
4.87 -0.437727
4.88 -0.439734
4.89 -0.441801
4.9 -0.443888
4.91 -0.445956
4.92 -0.447952
4.93 -0.449839
4.94 -0.451581
4.95 -0.453145
4.96 -0.454506
4.97 -0.455642
4.98 -0.456526
4.99 -0.45714
5 -0.457499
5.01 -0.457599
5.02 -0.457441
5.03 -0.457026
5.04 -0.456353
5.05 -0.45539
5.06 -0.45415
5.07 -0.452621
5.08 -0.45078
5.09 -0.448598
5.1 -0.446037
5.11 -0.443034
5.12 -0.439509
5.13 -0.435438
5.14 -0.43076
5.15 -0.42541
5.16 -0.419327
5.17 -0.41245
5.18 -0.404646
5.19 -0.395914
5.2 -0.386245
5.21 -0.375617
5.22 -0.364021
5.23 -0.351464
5.24 -0.337945
5.25 -0.323447
5.26 -0.308112
5.27 -0.292007
5.28 -0.275215
5.29 -0.257823
5.3 -0.23993
5.31 -0.221612
5.32 -0.203
5.33 -0.184211
5.34 -0.165338
5.35 -0.146469
5.36 -0.127681
5.37 -0.109043
5.38 -0.0906328
5.39 -0.0724705
5.4 -0.0545801
5.41 -0.0369737
5.42 -0.0196528
5.43 -0.00260992
5.44 0.0141525
5.45 0.030659
5.46 0.0469408
5.47 0.0630127
5.48 0.0788832
5.49 0.0945523
5.5 0.110008
5.51 0.125195
5.52 0.140093
5.53 0.154646
5.54 0.168779
5.55 0.182404
5.56 0.195421
5.57 0.207675
5.58 0.219022
5.59 0.229389
5.6 0.238654
5.61 0.246705
5.62 0.253438
5.63 0.258762
5.64 0.26244
5.65 0.264567
5.66 0.265137
5.67 0.264157
5.68 0.26166
5.69 0.257708
5.7 0.252335
5.71 0.245638
5.72 0.237857
5.73 0.229152
5.74 0.219695
5.75 0.209669
5.76 0.199259
5.77 0.188648
5.78 0.178046
5.79 0.167618
5.8 0.157508
5.81 0.147838
5.82 0.138706
5.83 0.130204
5.84 0.12241
5.85 0.115279
5.86 0.108791
5.87 0.102901
5.88 0.0975432
5.89 0.0926332
5.9 0.088094
5.91 0.0837862
5.92 0.0795904
5.93 0.0754014
5.94 0.0711232
5.95 0.0666734
5.96 0.0619816
5.97 0.0569825
5.98 0.0516885
5.99 0.0461147
6 0.0403029
6.01 0.0343209
6.02 0.0282602
6.03 0.0222467
6.04 0.0164301
6.05 0.0109542
6.06 0.00597158
6.07 0.00163508
6.08 -0.00190741
6.09 -0.00450725
6.1 -0.00593112
6.11 -0.006188
6.12 -0.00521201
6.13 -0.00296726
6.14 0.00055001
6.15 0.00531019
6.16 0.0113192
6.17 0.0184498
6.18 0.0265065
6.19 0.0353305
6.2 0.0447416
6.21 0.0545434
6.22 0.0645292
6.23 0.0744598
6.24 0.0841107
6.25 0.0932834
6.26 0.101795
6.27 0.109482
6.28 0.116208
6.29 0.121801
6.3 0.126164
6.31 0.12933
6.32 0.131295
6.33 0.132091
6.34 0.131775
6.35 0.130435
6.36 0.1281
6.37 0.125004
6.38 0.121304
6.39 0.117157
6.4 0.112721
6.41 0.108153
6.42 0.103608
6.43 0.0992445
6.44 0.0951743
6.45 0.0914927
6.46 0.0882728
6.47 0.0855647
6.48 0.0833949
6.49 0.0818164
6.5 0.0807664
6.51 0.0801908
6.52 0.080032
6.53 0.0802204
6.54 0.0806782
6.55 0.0813261
6.56 0.0820762
6.57 0.0828358
6.58 0.0835349
6.59 0.0841142
6.6 0.0845271
6.61 0.0847418
6.62 0.0847243
6.63 0.0844877
6.64 0.0840589
6.65 0.083471
6.66 0.0827697
6.67 0.08201
6.68 0.0812558
6.69 0.0805877
6.7 0.080071
6.71 0.0797698
6.72 0.079742
6.73 0.080037
6.74 0.0806934
6.75 0.0817662
6.76 0.0832562
6.77 0.0851395
6.78 0.0873955
6.79 0.0899897
6.8 0.0928754
6.81 0.0959961
6.82 0.0992935
6.83 0.10267
6.84 0.106048
6.85 0.109353
6.86 0.112509
6.87 0.115449
6.88 0.11809
6.89 0.120377
6.9 0.122288
6.91 0.123797
6.92 0.124894
6.93 0.125577
6.94 0.12586
6.95 0.125727
6.96 0.12526
6.97 0.124503
6.98 0.123505
6.99 0.12232
7 0.121001
7.01 0.1196
7.02 0.118172
7.03 0.116766
7.04 0.115418
7.05 0.114156
7.06 0.112999
7.07 0.111956
7.08 0.111041
7.09 0.110232
7.1 0.109509
7.11 0.108848
7.12 0.108219
7.13 0.107589
7.14 0.10692
7.15 0.106167
7.16 0.105301
7.17 0.104292
7.18 0.103113
7.19 0.101745
7.2 0.100172
7.21 0.0983664
7.22 0.0963429
7.23 0.094113
7.24 0.0916884
7.25 0.0890855
7.26 0.086324
7.27 0.0834224
7.28 0.0803992
7.29 0.0772871
7.3 0.0741047
7.31 0.0708665
7.32 0.0675819
7.33 0.0642544
7.34 0.0608763
7.35 0.0574365
7.36 0.0539174
7.37 0.0502925
7.38 0.0465291
7.39 0.0425889
7.4 0.0384247
7.41 0.0339624
7.42 0.0291769
7.43 0.0240207
7.44 0.0184478
7.45 0.012416
7.46 0.00588754
7.47 -0.00120743
7.48 -0.00888259
7.49 -0.0171255
7.5 -0.0259392
7.51 -0.0353164
7.52 -0.0452397
7.53 -0.0556836
7.54 -0.0666545
7.55 -0.0780444
7.56 -0.0897933
7.57 -0.101833
7.58 -0.114087
7.59 -0.126474
7.6 -0.138905
7.61 -0.151273
7.62 -0.163483
7.63 -0.17544
7.64 -0.187051
7.65 -0.198221
7.66 -0.208862
7.67 -0.21881
7.68 -0.228042
7.69 -0.236488
7.7 -0.244083
7.71 -0.25077
7.72 -0.2565
7.73 -0.261185
7.74 -0.264773
7.75 -0.26732
7.76 -0.268822
7.77 -0.269289
7.78 -0.268744
7.79 -0.267218
7.8 -0.26467
7.81 -0.261243
7.82 -0.257023
7.83 -0.25209
7.84 -0.246533
7.85 -0.240448
7.86 -0.233927
7.87 -0.227076
7.88 -0.220038
7.89 -0.212922
7.9 -0.205835
7.91 -0.198879
7.92 -0.192151
7.93 -0.185774
7.94 -0.179813
7.95 -0.174324
7.96 -0.169356
7.97 -0.164944
7.98 -0.16111
7.99 -0.157876
8 -0.155268
8.01 -0.153208
8.02 -0.151657
8.03 -0.150568
8.04 -0.149882
8.05 -0.149536
8.06 -0.149476
8.07 -0.149611
8.08 -0.14986
8.09 -0.150156
8.1 -0.150438
8.11 -0.150652
8.12 -0.150751
8.13 -0.150686
8.14 -0.150447
8.15 -0.150027
8.16 -0.149428
8.17 -0.148665
8.18 -0.147759
8.19 -0.146735
8.2 -0.145638
8.21 -0.144513
8.22 -0.143399
8.23 -0.142334
8.24 -0.141351
8.25 -0.140476
8.26 -0.139737
8.27 -0.139124
8.28 -0.138622
8.29 -0.138207
8.3 -0.137838
8.31 -0.137459
8.32 -0.136994
8.33 -0.136349
8.34 -0.135439
8.35 -0.134166
8.36 -0.132429
8.37 -0.130126
8.38 -0.127161
8.39 -0.123347
8.4 -0.118675
8.41 -0.113083
8.42 -0.106521
8.43 -0.0989572
8.44 -0.0903776
8.45 -0.0807452
8.46 -0.0700689
8.47 -0.0584743
8.48 -0.0460331
8.49 -0.0328338
8.5 -0.0189794
8.51 -0.00458405
8.52 0.0102584
8.53 0.0253732
8.54 0.0406254
8.55 0.0558914
8.56 0.0710546
8.57 0.0860089
8.58 0.100648
8.59 0.114866
8.6 0.128633
8.61 0.141909
8.62 0.154675
8.63 0.166925
8.64 0.17867
8.65 0.189898
8.66 0.200679
8.67 0.211074
8.68 0.221133
8.69 0.230908
8.7 0.240448
8.71 0.249793
8.72 0.258969
8.73 0.268013
8.74 0.276928
8.75 0.285705
8.76 0.294316
8.77 0.302717
8.78 0.310824
8.79 0.318558
8.8 0.325842
8.81 0.332578
8.82 0.33866
8.83 0.34398
8.84 0.348419
8.85 0.351772
8.86 0.354039
8.87 0.355138
8.88 0.355003
8.89 0.353582
8.9 0.350843
8.91 0.346687
8.92 0.341141
8.93 0.334303
8.94 0.326221
8.95 0.316958
8.96 0.30659
8.97 0.295203
8.98 0.282795
8.99 0.269582
9 0.255661
9.01 0.241128
9.02 0.22607
9.03 0.210568
9.04 0.194674
9.05 0.178448
9.06 0.161954
9.07 0.145219
9.08 0.128258
9.09 0.111074
9.1 0.0936632
9.11 0.0759864
9.12 0.0580499
9.13 0.0398408
9.14 0.0213476
9.15 0.00256575
9.16 -0.0164996
9.17 -0.0358404
9.18 -0.0554243
9.19 -0.0751777
9.2 -0.0950288
9.21 -0.114888
9.22 -0.134648
9.23 -0.154187
9.24 -0.173319
9.25 -0.191905
9.26 -0.209795
9.27 -0.226829
9.28 -0.242849
9.29 -0.257701
9.3 -0.271194
9.31 -0.283106
9.32 -0.293441
9.33 -0.302114
9.34 -0.309059
9.35 -0.31424
9.36 -0.317643
9.37 -0.319136
9.38 -0.318862
9.39 -0.316946
9.4 -0.313479
9.41 -0.30857
9.42 -0.30234
9.43 -0.294901
9.44 -0.28633
9.45 -0.276878
9.46 -0.266681
9.47 -0.255866
9.48 -0.244549
9.49 -0.232833
9.5 -0.220783
9.51 -0.208482
9.52 -0.195984
9.53 -0.183313
9.54 -0.170472
9.55 -0.15745
9.56 -0.144218
9.57 -0.130708
9.58 -0.116897
9.59 -0.102733
9.6 -0.0881686
9.61 -0.0731564
9.62 -0.0576591
9.63 -0.0416169
9.64 -0.0250213
9.65 -0.0079079
9.66 0.00969816
9.67 0.0277534
9.68 0.0461963
9.69 0.064948
9.7 0.083926
9.71 0.102985
9.72 0.122004
9.73 0.140854
9.74 0.159404
9.75 0.177524
9.76 0.195051
9.77 0.21184
9.78 0.227824
9.79 0.242912
9.8 0.25703
9.81 0.270122
9.82 0.28215
9.83 0.292983
9.84 0.302722
9.85 0.311403
9.86 0.319062
9.87 0.325749
9.88 0.331522
9.89 0.336416
9.9 0.340483
9.91 0.343856
9.92 0.346601
9.93 0.34878
9.94 0.350445
9.95 0.351636
9.96 0.352346
9.97 0.352625
9.98 0.352484
9.99 0.351915
10 0.3509
10.01 0.349411
10.02 0.347399
10.03 0.344787
10.04 0.341581
10.05 0.337745
10.06 0.333248
10.07 0.328063
10.08 0.322178
10.09 0.315531
10.1 0.30817
10.11 0.300148
10.12 0.291508
10.13 0.282306
10.14 0.272612
10.15 0.262502
10.16 0.252054
10.17 0.241407
10.18 0.230665
10.19 0.219933
10.2 0.209314
10.21 0.198907
10.22 0.18883
10.23 0.179165
10.24 0.169964
10.25 0.161277
10.26 0.153139
10.27 0.145572
10.28 0.138582
10.29 0.132213
10.3 0.126374
10.31 0.121022
10.32 0.116106
10.33 0.111565
10.34 0.107334
10.35 0.103353
10.36 0.0995414
10.37 0.0958166
10.38 0.0921145
10.39 0.0883765
10.4 0.0845508
10.41 0.0805934
10.42 0.0764471
10.43 0.0721021
10.44 0.0675429
10.45 0.0627601
10.46 0.0577509
10.47 0.0525172
10.48 0.0470539
10.49 0.0413655
10.5 0.035474
10.51 0.029385
10.52 0.0231015
10.53 0.0166223
10.54 0.00994197
10.55 0.00302693
10.56 -0.00412223
10.57 -0.0115231
10.58 -0.0192
10.59 -0.0271795
10.6 -0.0354889
10.61 -0.0441696
10.62 -0.0532648
10.63 -0.0627645
10.64 -0.0726816
10.65 -0.0830208
10.66 -0.0937783
10.67 -0.10494
10.68 -0.116514
10.69 -0.128433
10.7 -0.140641
10.71 -0.153081
10.72 -0.165688
10.73 -0.17839
10.74 -0.19111
10.75 -0.203758
10.76 -0.216254
10.77 -0.228527
10.78 -0.240509
10.79 -0.252139
10.8 -0.26337
10.81 -0.274126
10.82 -0.284401
10.83 -0.294204
10.84 -0.303544
10.85 -0.312441
10.86 -0.320929
10.87 -0.32905
10.88 -0.336837
10.89 -0.344392
10.9 -0.351781
10.91 -0.35907
10.92 -0.366326
10.93 -0.373608
10.94 -0.380975
10.95 -0.388473
10.96 -0.39612
10.97 -0.403926
10.98 -0.411884
10.99 -0.41997
11 -0.428143
11.01 -0.436342
11.02 -0.444483
11.03 -0.452479
11.04 -0.460233
11.05 -0.467641
11.06 -0.474595
11.07 -0.480947
11.08 -0.486577
11.09 -0.49142
11.1 -0.495389
11.11 -0.498411
11.12 -0.500426
11.13 -0.501391
11.14 -0.501162
11.15 -0.499847
11.16 -0.49747
11.17 -0.494067
11.18 -0.489687
11.19 -0.484396
11.2 -0.478235
11.21 -0.471284
11.22 -0.463694
11.23 -0.455558
11.24 -0.446967
11.25 -0.438008
11.26 -0.428762
11.27 -0.419282
11.28 -0.409645
11.29 -0.399896
11.3 -0.390058
11.31 -0.38014
11.32 -0.370135
11.33 -0.360018
11.34 -0.349741
11.35 -0.339268
11.36 -0.328541
11.37 -0.317501
11.38 -0.306083
11.39 -0.294225
11.4 -0.281816
11.41 -0.268827
11.42 -0.255229
11.43 -0.240988
11.44 -0.226086
11.45 -0.210515
11.46 -0.194268
11.47 -0.177328
11.48 -0.159796
11.49 -0.141724
11.5 -0.123175
11.51 -0.104223
11.52 -0.0849472
11.53 -0.065421
11.54 -0.0457524
11.55 -0.0260367
11.56 -0.00635726
11.57 0.0132083
11.58 0.0325897
11.59 0.0517213
11.6 0.0705197
11.61 0.0889744
11.62 0.107059
11.63 0.124759
11.64 0.142069
11.65 0.158993
11.66 0.175521
11.67 0.19168
11.68 0.207513
11.69 0.223045
11.7 0.238302
11.71 0.253307
11.72 0.268077
11.73 0.282602
11.74 0.296912
11.75 0.311002
11.76 0.324858
11.77 0.338458
11.78 0.351769
11.79 0.364728
11.8 0.377276
11.81 0.389376
11.82 0.400965
11.83 0.411978
11.84 0.422347
11.85 0.432004
11.86 0.440793
11.87 0.448724
11.88 0.455747
11.89 0.461813
11.9 0.46688
11.91 0.470915
11.92 0.473845
11.93 0.475621
11.94 0.476316
11.95 0.47593
11.96 0.474473
11.97 0.471959
11.98 0.468409
11.99 0.46375
12 0.45809
12.01 0.451475
12.02 0.443932
12.03 0.435488
12.04 0.426166
12.05 0.41596
12.06 0.404846
12.07 0.392912
12.08 0.380168
12.09 0.366623
12.1 0.352286
12.11 0.337164
12.12 0.321197
12.13 0.30444
12.14 0.286929
12.15 0.268682
12.16 0.249723
12.17 0.230083
12.18 0.209788
12.19 0.188848
12.2 0.167385
12.21 0.145469
12.22 0.12318
12.23 0.10061
12.24 0.0778565
