# xPDFsuite Configuration #
[PDF]
wavelength = 0.1
dataformat = QA
inputfile = BiMsol6_insitu_700 C-00383.xy
backgroundfile = Quartz2mm-dist500-00000.xy
mode = xray
bgscale = 0.0042
composition = Bi2Fe4O9
outputtype = gr
qmaxinst = 24.998449118
qmin = 0.1
qmax = 21.4986662415
rmax = 80.0
rmin = 0.0
rstep = 0.01
rpoly = 0.9

[Misc]
inputdir = C:/Data/Seafile/CPH/Beamtime/Desy Oct 20/In situ data/Processed/BiMsol6/PDF
savedir = C:/Data/Seafile/CPH/Beamtime/Desy Oct 20/In situ data/PDF/BiMsol6
backgroundfilefull = C:/Data/Seafile/CPH/Beamtime/Desy Oct 20/In situ data/Processed/Standard_Empty_Cap/Quartz2mm-dist500-00000.xy

#### start data
#S 1
#L r($\AA$)  G($\AA^{-2}$)
0 0
0.01 0.006173
0.02 0.0119952
0.03 0.0171665
0.04 0.0214176
0.05 0.0245229
0.06 0.0263103
0.07 0.0265922
0.08 0.0253148
0.09 0.022618
0.1 0.0186173
0.11 0.0134911
0.12 0.00747326
0.13 0.000842291
0.14 -0.00608787
0.15 -0.012925
0.16 -0.0193378
0.17 -0.0250159
0.18 -0.0296817
0.19 -0.0331042
0.2 -0.0350464
0.21 -0.0353486
0.22 -0.0341103
0.23 -0.0314003
0.24 -0.027364
0.25 -0.0222181
0.26 -0.0162431
0.27 -0.00976015
0.28 -0.00322347
0.29 0.00296229
0.3 0.00840429
0.31 0.01273
0.32 0.0156058
0.33 0.0166939
0.34 0.0156654
0.35 0.0125795
0.36 0.00744022
0.37 0.00035509
0.38 -0.00846392
0.39 -0.0187031
0.4 -0.0299966
0.41 -0.0417264
0.42 -0.0532861
0.43 -0.0640586
0.44 -0.0734055
0.45 -0.0806913
0.46 -0.0852434
0.47 -0.086193
0.48 -0.0833561
0.49 -0.0763823
0.5 -0.0650425
0.51 -0.0492444
0.52 -0.0290414
0.53 -0.00436071
0.54 0.0242463
0.55 0.0560521
0.56 0.0903826
0.57 0.126449
0.58 0.163367
0.59 0.200177
0.6 0.235652
0.61 0.268824
0.62 0.29872
0.63 0.324427
0.64 0.345122
0.65 0.360098
0.66 0.368369
0.67 0.36953
0.68 0.363745
0.69 0.35101
0.7 0.331505
0.71 0.30559
0.72 0.273796
0.73 0.236309
0.74 0.194633
0.75 0.149737
0.76 0.10265
0.77 0.0544421
0.78 0.00619547
0.79 -0.0409248
0.8 -0.0857397
0.81 -0.127433
0.82 -0.165222
0.83 -0.198465
0.84 -0.226667
0.85 -0.249501
0.86 -0.266233
0.87 -0.277403
0.88 -0.283302
0.89 -0.284293
0.9 -0.280871
0.91 -0.273643
0.92 -0.26321
0.93 -0.25035
0.94 -0.236087
0.95 -0.221211
0.96 -0.206483
0.97 -0.192611
0.98 -0.180229
0.99 -0.170107
1 -0.162568
1.01 -0.15784
1.02 -0.156079
1.03 -0.157316
1.04 -0.161465
1.05 -0.168396
1.06 -0.17791
1.07 -0.189377
1.08 -0.202347
1.09 -0.216332
1.1 -0.230832
1.11 -0.245348
1.12 -0.259335
1.13 -0.272338
1.14 -0.284022
1.15 -0.294107
1.16 -0.302395
1.17 -0.308771
1.18 -0.313176
1.19 -0.315527
1.2 -0.316171
1.21 -0.315324
1.22 -0.313253
1.23 -0.310262
1.24 -0.306679
1.25 -0.30284
1.26 -0.299115
1.27 -0.2958
1.28 -0.293143
1.29 -0.291334
1.3 -0.290509
1.31 -0.290742
1.32 -0.292136
1.33 -0.294494
1.34 -0.297675
1.35 -0.301487
1.36 -0.305697
1.37 -0.310044
1.38 -0.314222
1.39 -0.317909
1.4 -0.320855
1.41 -0.322826
1.42 -0.323631
1.43 -0.32313
1.44 -0.321242
1.45 -0.317798
1.46 -0.313015
1.47 -0.307035
1.48 -0.30005
1.49 -0.292309
1.5 -0.2841
1.51 -0.275758
1.52 -0.267678
1.53 -0.260211
1.54 -0.253684
1.55 -0.248395
1.56 -0.244601
1.57 -0.242501
1.58 -0.242422
1.59 -0.244266
1.6 -0.247966
1.61 -0.25341
1.62 -0.260408
1.63 -0.268702
1.64 -0.277992
1.65 -0.287873
1.66 -0.297856
1.67 -0.307504
1.68 -0.31638
1.69 -0.324061
1.7 -0.330154
1.71 -0.33411
1.72 -0.335737
1.73 -0.334893
1.74 -0.33146
1.75 -0.325408
1.76 -0.316794
1.77 -0.305706
1.78 -0.292266
1.79 -0.277012
1.8 -0.260322
1.81 -0.242625
1.82 -0.224377
1.83 -0.206052
1.84 -0.188192
1.85 -0.171288
1.86 -0.155731
1.87 -0.141874
1.88 -0.130006
1.89 -0.120341
1.9 -0.113045
1.91 -0.108366
1.92 -0.106
1.93 -0.1058
1.94 -0.107542
1.95 -0.110937
1.96 -0.115643
1.97 -0.121309
1.98 -0.127446
1.99 -0.133594
2 -0.139346
2.01 -0.144325
2.02 -0.148194
2.03 -0.150665
2.04 -0.151331
2.05 -0.150235
2.06 -0.147339
2.07 -0.142683
2.08 -0.13639
2.09 -0.128657
2.1 -0.119698
2.11 -0.10989
2.12 -0.0996772
2.13 -0.0894613
2.14 -0.0796567
2.15 -0.0706734
2.16 -0.0629027
2.17 -0.0569085
2.18 -0.0528612
2.19 -0.0509833
2.2 -0.0514398
2.21 -0.0543205
2.22 -0.0596376
2.23 -0.0674256
2.24 -0.0775691
2.25 -0.0896698
2.26 -0.103439
2.27 -0.118538
2.28 -0.134595
2.29 -0.151212
2.3 -0.16796
2.31 -0.184384
2.32 -0.200111
2.33 -0.214802
2.34 -0.228167
2.35 -0.239971
2.36 -0.249977
2.37 -0.257984
2.38 -0.26412
2.39 -0.268434
2.4 -0.271037
2.41 -0.2721
2.42 -0.27184
2.43 -0.27045
2.44 -0.268319
2.45 -0.265785
2.46 -0.263156
2.47 -0.260734
2.48 -0.258797
2.49 -0.257615
2.5 -0.257486
2.51 -0.258486
2.52 -0.260713
2.53 -0.264212
2.54 -0.268972
2.55 -0.274932
2.56 -0.282055
2.57 -0.290124
2.58 -0.298901
2.59 -0.308166
2.6 -0.317688
2.61 -0.327225
2.62 -0.336536
2.63 -0.345329
2.64 -0.353433
2.65 -0.36068
2.66 -0.36693
2.67 -0.372084
2.68 -0.376077
2.69 -0.378809
2.7 -0.380311
2.71 -0.380698
2.72 -0.380048
2.73 -0.378461
2.74 -0.376052
2.75 -0.372941
2.76 -0.369197
2.77 -0.365014
2.78 -0.360488
2.79 -0.355701
2.8 -0.350707
2.81 -0.345537
2.82 -0.340181
2.83 -0.334605
2.84 -0.32876
2.85 -0.322566
2.86 -0.315922
2.87 -0.308718
2.88 -0.300834
2.89 -0.292053
2.9 -0.28233
2.91 -0.271575
2.92 -0.259715
2.93 -0.246696
2.94 -0.232498
2.95 -0.217083
2.96 -0.200471
2.97 -0.182836
2.98 -0.164296
2.99 -0.144998
3 -0.125116
3.01 -0.104841
3.02 -0.0843797
3.03 -0.0639819
3.04 -0.0438593
3.05 -0.02421
3.06 -0.00521514
3.07 0.0129675
3.08 0.0301756
3.09 0.0462496
3.1 0.0612224
3.11 0.0750829
3.12 0.087858
3.13 0.0996113
3.14 0.11044
3.15 0.120415
3.16 0.129752
3.17 0.138647
3.18 0.14728
3.19 0.155834
3.2 0.164482
3.21 0.173397
3.22 0.182766
3.23 0.19267
3.24 0.203185
3.25 0.214355
3.26 0.226185
3.27 0.238642
3.28 0.251694
3.29 0.265202
3.3 0.279004
3.31 0.292935
3.32 0.306816
3.33 0.320456
3.34 0.333652
3.35 0.346127
3.36 0.357755
3.37 0.368376
3.38 0.377856
3.39 0.386088
3.4 0.393
3.41 0.39847
3.42 0.402514
3.43 0.405255
3.44 0.406773
3.45 0.407182
3.46 0.406621
3.47 0.405255
3.48 0.403215
3.49 0.400782
3.5 0.398154
3.51 0.395523
3.52 0.393072
3.53 0.390969
3.54 0.389393
3.55 0.388493
3.56 0.388322
3.57 0.388941
3.58 0.39038
3.59 0.392642
3.6 0.395701
3.61 0.399578
3.62 0.404123
3.63 0.409237
3.64 0.414817
3.65 0.420755
3.66 0.426942
3.67 0.433274
3.68 0.439641
3.69 0.44595
3.7 0.452131
3.71 0.45813
3.72 0.463913
3.73 0.469459
3.74 0.474744
3.75 0.479802
3.76 0.484663
3.77 0.489362
3.78 0.493938
3.79 0.498429
3.8 0.502869
3.81 0.507286
3.82 0.511696
3.83 0.516095
3.84 0.520462
3.85 0.524756
3.86 0.528917
3.87 0.532838
3.88 0.536411
3.89 0.539522
3.9 0.542034
3.91 0.543799
3.92 0.544663
3.93 0.544447
3.94 0.542878
3.95 0.539918
3.96 0.535434
3.97 0.52931
3.98 0.52145
3.99 0.511781
4 0.500125
4.01 0.486512
4.02 0.471045
4.03 0.453771
4.04 0.434765
4.05 0.414127
4.06 0.391968
4.07 0.368312
4.08 0.343485
4.09 0.31766
4.1 0.291018
4.11 0.263745
4.12 0.236023
4.13 0.208024
4.14 0.179943
4.15 0.15195
4.16 0.124185
4.17 0.0967725
4.18 0.069821
4.19 0.0434216
4.2 0.0177263
4.21 -0.00727235
4.22 -0.0315365
4.23 -0.0550384
4.24 -0.0777603
4.25 -0.0996928
4.26 -0.120793
4.27 -0.141047
4.28 -0.16051
4.29 -0.179185
4.3 -0.19707
4.31 -0.214162
4.32 -0.230456
4.33 -0.245858
4.34 -0.260424
4.35 -0.274151
4.36 -0.287022
4.37 -0.299021
4.38 -0.310134
4.39 -0.320315
4.4 -0.329521
4.41 -0.337824
4.42 -0.345234
4.43 -0.351769
4.44 -0.357456
4.45 -0.362333
4.46 -0.366382
4.47 -0.369714
4.48 -0.372415
4.49 -0.374556
4.5 -0.376213
4.51 -0.377463
4.52 -0.37838
4.53 -0.379034
4.54 -0.379526
4.55 -0.379923
4.56 -0.380283
4.57 -0.380655
4.58 -0.381078
4.59 -0.381588
4.6 -0.382196
4.61 -0.3829
4.62 -0.383692
4.63 -0.384551
4.64 -0.385448
4.65 -0.386349
4.66 -0.387205
4.67 -0.387972
4.68 -0.388607
4.69 -0.389069
4.7 -0.389321
4.71 -0.389332
4.72 -0.38906
4.73 -0.388495
4.74 -0.38765
4.75 -0.386534
4.76 -0.385169
4.77 -0.383586
4.78 -0.381826
4.79 -0.379934
4.8 -0.377988
4.81 -0.376053
4.82 -0.374197
4.83 -0.372491
4.84 -0.371001
4.85 -0.369815
4.86 -0.369001
4.87 -0.368593
4.88 -0.368632
4.89 -0.369151
4.9 -0.370168
4.91 -0.371691
4.92 -0.373768
4.93 -0.376324
4.94 -0.379323
4.95 -0.382717
4.96 -0.386452
4.97 -0.39046
4.98 -0.394674
4.99 -0.399001
5 -0.403343
5.01 -0.407607
5.02 -0.411703
5.03 -0.415537
5.04 -0.419019
5.05 -0.422008
5.06 -0.424447
5.07 -0.426262
5.08 -0.427382
5.09 -0.427736
5.1 -0.427261
5.11 -0.425869
5.12 -0.423459
5.13 -0.420059
5.14 -0.415633
5.15 -0.410148
5.16 -0.403575
5.17 -0.39589
5.18 -0.386973
5.19 -0.376872
5.2 -0.36561
5.21 -0.353176
5.22 -0.339565
5.23 -0.324773
5.24 -0.308771
5.25 -0.29148
5.26 -0.273017
5.27 -0.253389
5.28 -0.232611
5.29 -0.210697
5.3 -0.187668
5.31 -0.163466
5.32 -0.138168
5.33 -0.111853
5.34 -0.0845627
5.35 -0.0563464
5.36 -0.0272593
5.37 0.00264581
5.38 0.0333555
5.39 0.0647068
5.4 0.0966107
5.41 0.128969
5.42 0.161676
5.43 0.194614
5.44 0.227658
5.45 0.260649
5.46 0.293438
5.47 0.325872
5.48 0.357789
5.49 0.389022
5.5 0.419395
5.51 0.448592
5.52 0.476535
5.53 0.503042
5.54 0.527932
5.55 0.551029
5.56 0.572162
5.57 0.591041
5.58 0.607479
5.59 0.621473
5.6 0.632906
5.61 0.641676
5.62 0.647704
5.63 0.650934
5.64 0.651024
5.65 0.648252
5.66 0.642666
5.67 0.634317
5.68 0.623282
5.69 0.609659
5.7 0.593472
5.71 0.574822
5.72 0.554058
5.73 0.531364
5.74 0.506938
5.75 0.480987
5.76 0.453725
5.77 0.425284
5.78 0.395985
5.79 0.366061
5.8 0.33571
5.81 0.305124
5.82 0.274479
5.83 0.243945
5.84 0.213697
5.85 0.183847
5.86 0.154499
5.87 0.125742
5.88 0.0976474
5.89 0.0702723
5.9 0.0437291
5.91 0.0180116
5.92 -0.00688133
5.93 -0.0309317
5.94 -0.0541241
5.95 -0.0764432
5.96 -0.097851
5.97 -0.118255
5.98 -0.137709
5.99 -0.156176
6 -0.173609
6.01 -0.189952
6.02 -0.205144
6.03 -0.219016
6.04 -0.231522
6.05 -0.242633
6.06 -0.25227
6.07 -0.260353
6.08 -0.26681
6.09 -0.271557
6.1 -0.274367
6.11 -0.275385
6.12 -0.274592
6.13 -0.271988
6.14 -0.267594
6.15 -0.261453
6.16 -0.253528
6.17 -0.243941
6.18 -0.232895
6.19 -0.220525
6.2 -0.206981
6.21 -0.192431
6.22 -0.177051
6.23 -0.160974
6.24 -0.144482
6.25 -0.127763
6.26 -0.111002
6.27 -0.0943719
6.28 -0.0780346
6.29 -0.0621654
6.3 -0.0469126
6.31 -0.0323448
6.32 -0.0185362
6.33 -0.00553609
6.34 0.0066311
6.35 0.0179659
6.36 0.028412
6.37 0.0381013
6.38 0.0471145
6.39 0.0555399
6.4 0.063479
6.41 0.0710439
6.42 0.0783477
6.43 0.0855249
6.44 0.0927136
6.45 0.100029
6.46 0.10758
6.47 0.115464
6.48 0.123767
6.49 0.13261
6.5 0.14202
6.51 0.15202
6.52 0.16263
6.53 0.173855
6.54 0.185684
6.55 0.198112
6.56 0.211127
6.57 0.224633
6.58 0.238575
6.59 0.252896
6.6 0.267532
6.61 0.282421
6.62 0.29751
6.63 0.312722
6.64 0.327995
6.65 0.343277
6.66 0.358521
6.67 0.373683
6.68 0.388721
6.69 0.403586
6.7 0.418257
6.71 0.432704
6.72 0.446898
6.73 0.460805
6.74 0.47439
6.75 0.487585
6.76 0.500347
6.77 0.512638
6.78 0.524397
6.79 0.535554
6.8 0.546029
6.81 0.555729
6.82 0.564461
6.83 0.572205
6.84 0.578855
6.85 0.584298
6.86 0.58842
6.87 0.591107
6.88 0.592146
6.89 0.591425
6.9 0.588932
6.91 0.58458
6.92 0.578293
6.93 0.570009
6.94 0.55968
6.95 0.547038
6.96 0.532304
6.97 0.515494
6.98 0.496638
6.99 0.475783
7 0.452995
7.01 0.428271
7.02 0.401696
7.03 0.373513
7.04 0.34385
7.05 0.312848
7.06 0.280658
7.07 0.247436
7.08 0.213268
7.09 0.178413
7.1 0.143048
7.11 0.107333
7.12 0.0714268
7.13 0.035482
7.14 -0.000344148
7.15 -0.035884
7.16 -0.0710188
7.17 -0.105629
7.18 -0.139603
7.19 -0.172839
7.2 -0.205246
7.21 -0.23665
7.22 -0.26703
7.23 -0.296346
7.24 -0.324542
7.25 -0.35157
7.26 -0.377389
7.27 -0.401928
7.28 -0.425076
7.29 -0.446922
7.3 -0.46745
7.31 -0.486645
7.32 -0.5045
7.33 -0.521012
7.34 -0.536072
7.35 -0.549749
7.36 -0.562101
7.37 -0.573145
7.38 -0.582902
7.39 -0.591397
7.4 -0.59864
7.41 -0.604574
7.42 -0.609362
7.43 -0.613052
7.44 -0.615692
7.45 -0.617339
7.46 -0.618049
7.47 -0.617827
7.48 -0.616764
7.49 -0.614964
7.5 -0.61249
7.51 -0.609404
7.52 -0.605765
7.53 -0.601627
7.54 -0.597
7.55 -0.591983
7.56 -0.586614
7.57 -0.580924
7.58 -0.574937
7.59 -0.568667
7.6 -0.562104
7.61 -0.555248
7.62 -0.548103
7.63 -0.54065
7.64 -0.532866
7.65 -0.524721
7.66 -0.516181
7.67 -0.50716
7.68 -0.497662
7.69 -0.487655
7.7 -0.477107
7.71 -0.46599
7.72 -0.454285
7.73 -0.441949
7.74 -0.428968
7.75 -0.415394
7.76 -0.40125
7.77 -0.386572
7.78 -0.371407
7.79 -0.355816
7.8 -0.339845
7.81 -0.32362
7.82 -0.307243
7.83 -0.290821
7.84 -0.274465
7.85 -0.258293
7.86 -0.242441
7.87 -0.227061
7.88 -0.212245
7.89 -0.198102
7.9 -0.184736
7.91 -0.172239
7.92 -0.160692
7.93 -0.15026
7.94 -0.140937
7.95 -0.132727
7.96 -0.125649
7.97 -0.119704
7.98 -0.114878
7.99 -0.111169
8 -0.108598
8.01 -0.107008
8.02 -0.106333
8.03 -0.106499
8.04 -0.107429
8.05 -0.10904
8.06 -0.111292
8.07 -0.11407
8.08 -0.117277
8.09 -0.120843
8.1 -0.124706
8.11 -0.128813
8.12 -0.13312
8.13 -0.137605
8.14 -0.142221
8.15 -0.146953
8.16 -0.15179
8.17 -0.156729
8.18 -0.161767
8.19 -0.166913
8.2 -0.172164
8.21 -0.177513
8.22 -0.18295
8.23 -0.18846
8.24 -0.194019
8.25 -0.199592
8.26 -0.205122
8.27 -0.210547
8.28 -0.215795
8.29 -0.220781
8.3 -0.22541
8.31 -0.229575
8.32 -0.233126
8.33 -0.235922
8.34 -0.237878
8.35 -0.238871
8.36 -0.238782
8.37 -0.2375
8.38 -0.234919
8.39 -0.230784
8.4 -0.225153
8.41 -0.217976
8.42 -0.209209
8.43 -0.198828
8.44 -0.186828
8.45 -0.173149
8.46 -0.157789
8.47 -0.140916
8.48 -0.122598
8.49 -0.102915
8.5 -0.08196
8.51 -0.0598335
8.52 -0.0365475
8.53 -0.012308
8.54 0.0127566
8.55 0.0385407
8.56 0.0649439
8.57 0.091873
8.58 0.119256
8.59 0.147025
8.6 0.175085
8.61 0.203382
8.62 0.231874
8.63 0.260526
8.64 0.289311
8.65 0.318213
8.66 0.347204
8.67 0.37626
8.68 0.405358
8.69 0.43447
8.7 0.463559
8.71 0.492577
8.72 0.521448
8.73 0.550104
8.74 0.578458
8.75 0.606406
8.76 0.63383
8.77 0.660599
8.78 0.686497
8.79 0.711374
8.8 0.7351
8.81 0.757504
8.82 0.778415
8.83 0.79766
8.84 0.81505
8.85 0.830219
8.86 0.843217
8.87 0.853912
8.88 0.862187
8.89 0.867945
8.9 0.871108
8.91 0.871445
8.92 0.868953
8.93 0.863765
8.94 0.855895
8.95 0.845378
8.96 0.832268
8.97 0.816633
8.98 0.798291
8.99 0.777634
9 0.754776
9.01 0.729836
9.02 0.702939
9.03 0.674214
9.04 0.643706
9.05 0.611551
9.06 0.577983
9.07 0.543127
9.08 0.507106
9.09 0.47004
9.1 0.432049
9.11 0.393173
9.12 0.353619
9.13 0.313512
9.14 0.272968
9.15 0.232109
9.16 0.191061
9.17 0.149958
9.18 0.10896
9.19 0.0682155
9.2 0.0278768
9.21 -0.0118964
9.22 -0.0509383
9.23 -0.0890777
9.24 -0.126019
9.25 -0.161643
9.26 -0.195795
9.27 -0.2283
9.28 -0.258987
9.29 -0.28769
9.3 -0.314183
9.31 -0.338184
9.32 -0.359754
9.33 -0.378785
9.34 -0.395191
9.35 -0.408904
9.36 -0.419875
9.37 -0.427847
9.38 -0.432962
9.39 -0.435335
9.4 -0.435009
9.41 -0.432047
9.42 -0.42653
9.43 -0.418505
9.44 -0.40792
9.45 -0.395135
9.46 -0.380281
9.47 -0.363498
9.48 -0.344928
9.49 -0.324717
9.5 -0.302911
9.51 -0.279719
9.52 -0.255345
9.53 -0.229927
9.54 -0.203597
9.55 -0.176484
9.56 -0.148707
9.57 -0.120346
9.58 -0.0915846
9.59 -0.0625349
9.6 -0.033307
9.61 -0.00400962
9.62 0.025249
9.63 0.0543438
9.64 0.0831496
9.65 0.111564
9.66 0.139475
9.67 0.166768
9.68 0.193326
9.69 0.219036
9.7 0.243654
9.71 0.267168
9.72 0.289466
9.73 0.310441
9.74 0.329993
9.75 0.348026
9.76 0.364369
9.77 0.378913
9.78 0.391703
9.79 0.402692
9.8 0.411847
9.81 0.419148
9.82 0.424592
9.83 0.428
9.84 0.429573
9.85 0.429378
9.86 0.427474
9.87 0.423929
9.88 0.418825
9.89 0.412196
9.9 0.404107
9.91 0.394773
9.92 0.384305
9.93 0.372813
9.94 0.36041
9.95 0.347206
9.96 0.333253
9.97 0.318716
9.98 0.303707
9.99 0.288318
10 0.272632
10.01 0.256727
10.02 0.240668
10.03 0.224521
10.04 0.208348
10.05 0.192196
10.06 0.176103
10.07 0.160102
10.08 0.14422
10.09 0.128493
10.1 0.112935
10.11 0.0975543
10.12 0.0823636
10.13 0.0673727
10.14 0.0525898
10.15 0.0380267
10.16 0.0237092
10.17 0.00962275
10.18 -0.00422565
10.19 -0.0178285
10.2 -0.0311779
10.21 -0.0442653
10.22 -0.0570614
10.23 -0.0695616
10.24 -0.0817675
10.25 -0.093668
10.26 -0.105251
10.27 -0.116505
10.28 -0.127413
10.29 -0.137927
10.3 -0.148071
10.31 -0.157833
10.32 -0.167202
10.33 -0.176168
10.34 -0.184721
10.35 -0.192829
10.36 -0.200487
10.37 -0.207716
10.38 -0.214517
10.39 -0.220894
10.4 -0.226855
10.41 -0.23241
10.42 -0.237535
10.43 -0.242292
10.44 -0.246711
10.45 -0.25082
10.46 -0.254654
10.47 -0.25825
10.48 -0.261641
10.49 -0.264877
10.5 -0.268016
10.51 -0.271104
10.52 -0.274191
10.53 -0.277321
10.54 -0.280539
10.55 -0.283903
10.56 -0.287442
10.57 -0.291183
10.58 -0.29515
10.59 -0.299359
10.6 -0.303819
10.61 -0.30854
10.62 -0.313521
10.63 -0.318725
10.64 -0.324124
10.65 -0.329686
10.66 -0.335371
10.67 -0.341132
10.68 -0.346918
10.69 -0.352667
10.7 -0.358325
10.71 -0.363836
10.72 -0.36915
10.73 -0.374218
10.74 -0.378986
10.75 -0.383392
10.76 -0.387436
10.77 -0.391096
10.78 -0.394362
10.79 -0.397232
10.8 -0.399712
10.81 -0.401791
10.82 -0.403512
10.83 -0.404924
10.84 -0.406064
10.85 -0.406977
10.86 -0.407708
10.87 -0.408305
10.88 -0.408814
10.89 -0.409293
10.9 -0.409783
10.91 -0.41032
10.92 -0.410933
10.93 -0.411644
10.94 -0.412474
10.95 -0.413423
10.96 -0.414479
10.97 -0.415623
10.98 -0.41683
10.99 -0.418064
11 -0.419282
11.01 -0.420422
11.02 -0.421432
11.03 -0.422251
11.04 -0.42282
11.05 -0.423075
11.06 -0.422956
11.07 -0.422375
11.08 -0.421269
11.09 -0.419615
11.1 -0.417369
11.11 -0.414496
11.12 -0.410964
11.13 -0.406754
11.14 -0.401773
11.15 -0.396089
11.16 -0.389709
11.17 -0.382643
11.18 -0.374908
11.19 -0.366527
11.2 -0.357499
11.21 -0.347849
11.22 -0.337655
11.23 -0.326958
11.24 -0.315799
11.25 -0.30422
11.26 -0.292265
11.27 -0.279949
11.28 -0.267348
11.29 -0.25451
11.3 -0.241476
11.31 -0.228287
11.32 -0.214983
11.33 -0.201597
11.34 -0.188168
11.35 -0.174732
11.36 -0.161318
11.37 -0.147953
11.38 -0.134657
11.39 -0.121448
11.4 -0.10835
11.41 -0.0953669
11.42 -0.0824973
11.43 -0.0697385
11.44 -0.0570821
11.45 -0.0445137
11.46 -0.0320144
11.47 -0.019557
11.48 -0.00710321
11.49 0.00538435
11.5 0.0179471
11.51 0.0306297
11.52 0.0434792
11.53 0.0565642
11.54 0.0699311
11.55 0.083617
11.56 0.0976648
11.57 0.112112
11.58 0.126992
11.59 0.142334
11.6 0.1582
11.61 0.174545
11.62 0.191362
11.63 0.208635
11.64 0.226336
11.65 0.244426
11.66 0.262873
11.67 0.281604
11.68 0.30053
11.69 0.319575
11.7 0.338657
11.71 0.357687
11.72 0.376575
11.73 0.395197
11.74 0.413481
11.75 0.431342
11.76 0.4487
11.77 0.46548
11.78 0.481615
11.79 0.497002
11.8 0.511576
11.81 0.52534
11.82 0.538257
11.83 0.5503
11.84 0.561446
11.85 0.571677
11.86 0.580876
11.87 0.589121
11.88 0.596409
11.89 0.602725
11.9 0.608052
11.91 0.61237
11.92 0.615606
11.93 0.617694
11.94 0.618671
11.95 0.618495
11.96 0.617119
11.97 0.614493
11.98 0.610565
11.99 0.605146
12 0.598286
12.01 0.589968
12.02 0.580156
12.03 0.568822
12.04 0.555954
12.05 0.5415
12.06 0.525406
12.07 0.507839
12.08 0.488861
12.09 0.46855
12.1 0.447006
12.11 0.42435
12.12 0.400649
12.13 0.376133
12.14 0.351006
12.15 0.325452
12.16 0.299664
12.17 0.273838
12.18 0.248181
12.19 0.222938
12.2 0.198277
12.21 0.174371
12.22 0.151383
12.23 0.129454
12.24 0.108709
12.25 0.0893505
12.26 0.071424
12.27 0.0549229
12.28 0.0398727
12.29 0.0262761
