# xPDFsuite Configuration #
[PDF]
wavelength = 0.1
dataformat = QA
inputfile = BiMsol6_insitu_700 C-00400.xy
backgroundfile = Quartz2mm-dist500-00000.xy
mode = xray
bgscale = 0.0042
composition = Bi2Fe4O9
outputtype = gr
qmaxinst = 24.998449118
qmin = 0.1
qmax = 21.4986662415
rmax = 80.0
rmin = 0.0
rstep = 0.01
rpoly = 0.9

[Misc]
inputdir = C:/Data/Seafile/CPH/Beamtime/Desy Oct 20/In situ data/Processed/BiMsol6/PDF
savedir = C:/Data/Seafile/CPH/Beamtime/Desy Oct 20/In situ data/PDF/BiMsol6
backgroundfilefull = C:/Data/Seafile/CPH/Beamtime/Desy Oct 20/In situ data/Processed/Standard_Empty_Cap/Quartz2mm-dist500-00000.xy

#### start data
#S 1
#L r($\AA$)  G($\AA^{-2}$)
0 0
0.01 0.0069063
0.02 0.0134249
0.03 0.019224
0.04 0.0240057
0.05 0.02752
0.06 0.0295761
0.07 0.0299651
0.08 0.0286257
0.09 0.0257109
0.1 0.021346
0.11 0.0157263
0.12 0.00910778
0.13 0.00179619
0.14 -0.00586535
0.15 -0.0134431
0.16 -0.0205714
0.17 -0.0269069
0.18 -0.0321417
0.19 -0.0360182
0.2 -0.0382714
0.21 -0.0387198
0.22 -0.0374664
0.23 -0.0345803
0.24 -0.0302143
0.25 -0.0245995
0.26 -0.0180368
0.27 -0.0108678
0.28 -0.00358754
0.29 0.00336332
0.3 0.00955705
0.31 0.0145867
0.32 0.0180859
0.33 0.0196836
0.34 0.0190166
0.35 0.0161369
0.36 0.0110388
0.37 0.00382692
0.38 -0.00528171
0.39 -0.0159612
0.4 -0.0278352
0.41 -0.0402496
0.42 -0.0525623
0.43 -0.0641212
0.44 -0.0742512
0.45 -0.0822801
0.46 -0.0874971
0.47 -0.0889888
0.48 -0.0865526
0.49 -0.0798173
0.5 -0.0685405
0.51 -0.0526238
0.52 -0.0321229
0.53 -0.0069646
0.54 0.022273
0.55 0.0548279
0.56 0.0899929
0.57 0.126942
0.58 0.164751
0.59 0.202417
0.6 0.238662
0.61 0.272482
0.62 0.302873
0.63 0.328895
0.64 0.349706
0.65 0.364584
0.66 0.372532
0.67 0.373153
0.68 0.366642
0.69 0.35302
0.7 0.332503
0.71 0.30549
0.72 0.272556
0.73 0.233942
0.74 0.191203
0.75 0.145354
0.76 0.0974669
0.77 0.0486491
0.78 1.20898e-05
0.79 -0.0472448
0.8 -0.0919268
0.81 -0.133235
0.82 -0.1704
0.83 -0.202801
0.84 -0.229975
0.85 -0.251635
0.86 -0.267091
0.87 -0.276948
0.88 -0.281554
0.89 -0.281328
0.9 -0.27682
0.91 -0.268685
0.92 -0.257578
0.93 -0.244325
0.94 -0.229954
0.95 -0.215267
0.96 -0.201023
0.97 -0.187919
0.98 -0.176562
0.99 -0.167704
1 -0.161599
1.01 -0.158416
1.02 -0.158249
1.03 -0.161063
1.04 -0.166708
1.05 -0.174984
1.06 -0.185613
1.07 -0.197927
1.08 -0.211434
1.09 -0.225618
1.1 -0.239957
1.11 -0.25395
1.12 -0.267033
1.13 -0.278793
1.14 -0.288946
1.15 -0.297261
1.16 -0.3036
1.17 -0.307914
1.18 -0.310217
1.19 -0.310511
1.2 -0.30922
1.21 -0.306629
1.22 -0.303068
1.23 -0.298898
1.24 -0.294488
1.25 -0.290236
1.26 -0.286521
1.27 -0.283621
1.28 -0.281769
1.29 -0.281128
1.3 -0.281792
1.31 -0.283783
1.32 -0.28716
1.33 -0.291623
1.34 -0.296958
1.35 -0.302899
1.36 -0.30914
1.37 -0.315348
1.38 -0.321141
1.39 -0.326137
1.4 -0.330058
1.41 -0.332646
1.42 -0.333697
1.43 -0.33307
1.44 -0.3307
1.45 -0.326411
1.46 -0.320502
1.47 -0.313166
1.48 -0.304655
1.49 -0.295279
1.5 -0.285395
1.51 -0.275407
1.52 -0.265785
1.53 -0.256933
1.54 -0.249227
1.55 -0.243007
1.56 -0.238555
1.57 -0.23609
1.58 -0.235973
1.59 -0.238069
1.6 -0.242286
1.61 -0.248479
1.62 -0.256418
1.63 -0.265796
1.64 -0.276262
1.65 -0.28735
1.66 -0.298509
1.67 -0.309249
1.68 -0.319086
1.69 -0.327555
1.7 -0.33423
1.71 -0.338516
1.72 -0.340225
1.73 -0.339218
1.74 -0.335391
1.75 -0.328733
1.76 -0.319332
1.77 -0.307308
1.78 -0.292828
1.79 -0.27649
1.8 -0.25872
1.81 -0.239994
1.82 -0.220815
1.83 -0.201696
1.84 -0.183227
1.85 -0.165924
1.86 -0.150181
1.87 -0.13636
1.88 -0.124742
1.89 -0.115527
1.9 -0.108862
1.91 -0.104971
1.92 -0.103493
1.93 -0.104239
1.94 -0.106941
1.95 -0.111265
1.96 -0.116825
1.97 -0.123219
1.98 -0.129924
1.99 -0.13646
2 -0.142402
2.01 -0.147366
2.02 -0.151016
2.03 -0.153075
2.04 -0.153138
2.05 -0.1513
2.06 -0.147557
2.07 -0.141992
2.08 -0.134768
2.09 -0.126126
2.1 -0.116331
2.11 -0.105804
2.12 -0.0950182
2.13 -0.0844018
2.14 -0.0743868
2.15 -0.0653922
2.16 -0.057808
2.17 -0.0522058
2.18 -0.0487127
2.19 -0.0475181
2.2 -0.0487485
2.21 -0.0524491
2.22 -0.0585834
2.23 -0.0671308
2.24 -0.0779158
2.25 -0.0904978
2.26 -0.104546
2.27 -0.119688
2.28 -0.135525
2.29 -0.151643
2.3 -0.167581
2.31 -0.182916
2.32 -0.1973
2.33 -0.210427
2.34 -0.22205
2.35 -0.231982
2.36 -0.240044
2.37 -0.246107
2.38 -0.250367
2.39 -0.252938
2.4 -0.253992
2.41 -0.253755
2.42 -0.252494
2.43 -0.250471
2.44 -0.248085
2.45 -0.245675
2.46 -0.243548
2.47 -0.241991
2.48 -0.241254
2.49 -0.241575
2.5 -0.243209
2.51 -0.246144
2.52 -0.250412
2.53 -0.255984
2.54 -0.262779
2.55 -0.270664
2.56 -0.279516
2.57 -0.289057
2.58 -0.299007
2.59 -0.309109
2.6 -0.319103
2.61 -0.328737
2.62 -0.337766
2.63 -0.345883
2.64 -0.352989
2.65 -0.358957
2.66 -0.363704
2.67 -0.367192
2.68 -0.369424
2.69 -0.370375
2.7 -0.370162
2.71 -0.36897
2.72 -0.366944
2.73 -0.364244
2.74 -0.361034
2.75 -0.357475
2.76 -0.353712
2.77 -0.349906
2.78 -0.346155
2.79 -0.342525
2.8 -0.339046
2.81 -0.33571
2.82 -0.332476
2.83 -0.329247
2.84 -0.325897
2.85 -0.322281
2.86 -0.318237
2.87 -0.313589
2.88 -0.30816
2.89 -0.301657
2.9 -0.294001
2.91 -0.285068
2.92 -0.274759
2.93 -0.263004
2.94 -0.249778
2.95 -0.235032
2.96 -0.218796
2.97 -0.201286
2.98 -0.182651
2.99 -0.16307
3 -0.142754
3.01 -0.121932
3.02 -0.100846
3.03 -0.0797891
3.04 -0.059007
3.05 -0.0387243
3.06 -0.0191429
3.07 -0.000435318
3.08 0.0172254
3.09 0.0336753
3.1 0.048959
3.11 0.063077
3.12 0.0760717
3.13 0.0880256
3.14 0.0990563
3.15 0.109261
3.16 0.118876
3.17 0.128115
3.18 0.137173
3.19 0.146241
3.2 0.1555
3.21 0.165122
3.22 0.175293
3.23 0.186071
3.24 0.197514
3.25 0.209641
3.26 0.222431
3.27 0.23582
3.28 0.249737
3.29 0.26401
3.3 0.278447
3.31 0.292859
3.32 0.307042
3.33 0.320783
3.34 0.333867
3.35 0.345987
3.36 0.357041
3.37 0.366877
3.38 0.375372
3.39 0.382442
3.4 0.388037
3.41 0.392059
3.42 0.394561
3.43 0.395706
3.44 0.395609
3.45 0.394415
3.46 0.392296
3.47 0.389445
3.48 0.386029
3.49 0.382341
3.5 0.37859
3.51 0.374979
3.52 0.371693
3.53 0.368898
3.54 0.366777
3.55 0.365467
3.56 0.365002
3.57 0.36543
3.58 0.366767
3.59 0.369004
3.6 0.372102
3.61 0.376082
3.62 0.380781
3.63 0.386097
3.64 0.391933
3.65 0.398187
3.66 0.404761
3.67 0.411567
3.68 0.41852
3.69 0.425537
3.7 0.432568
3.71 0.439578
3.72 0.446547
3.73 0.453471
3.74 0.460355
3.75 0.467222
3.76 0.474098
3.77 0.481011
3.78 0.487985
3.79 0.495039
3.8 0.502186
3.81 0.509423
3.82 0.51672
3.83 0.524033
3.84 0.5313
3.85 0.538439
3.86 0.545348
3.87 0.551867
3.88 0.557856
3.89 0.563178
3.9 0.567672
3.91 0.571175
3.92 0.573522
3.93 0.574529
3.94 0.573912
3.95 0.571672
3.96 0.567698
3.97 0.5619
3.98 0.554213
3.99 0.544599
4 0.532909
4.01 0.519216
4.02 0.50366
4.03 0.486317
4.04 0.467284
4.05 0.446681
4.06 0.424632
4.07 0.401174
4.08 0.376618
4.09 0.351128
4.1 0.324867
4.11 0.297996
4.12 0.270668
4.13 0.243021
4.14 0.215208
4.15 0.187369
4.16 0.159609
4.17 0.132025
4.18 0.104699
4.19 0.0777027
4.2 0.0511488
4.21 0.0250515
4.22 -0.000544969
4.23 -0.0255991
4.24 -0.0500716
4.25 -0.0739243
4.26 -0.0970839
4.27 -0.119491
4.28 -0.141148
4.29 -0.16201
4.3 -0.182032
4.31 -0.201166
4.32 -0.219367
4.33 -0.236486
4.34 -0.252565
4.35 -0.267586
4.36 -0.281523
4.37 -0.294362
4.38 -0.306099
4.39 -0.316702
4.4 -0.326153
4.41 -0.334579
4.42 -0.342033
4.43 -0.348579
4.44 -0.354295
4.45 -0.359269
4.46 -0.363544
4.47 -0.367275
4.48 -0.370581
4.49 -0.373562
4.5 -0.376316
4.51 -0.378931
4.52 -0.381488
4.53 -0.384062
4.54 -0.386706
4.55 -0.389455
4.56 -0.392325
4.57 -0.395317
4.58 -0.398418
4.59 -0.401598
4.6 -0.404805
4.61 -0.407978
4.62 -0.411054
4.63 -0.413963
4.64 -0.416634
4.65 -0.418992
4.66 -0.420933
4.67 -0.422436
4.68 -0.423455
4.69 -0.423961
4.7 -0.423937
4.71 -0.423383
4.72 -0.422282
4.73 -0.420684
4.74 -0.418664
4.75 -0.416288
4.76 -0.413633
4.77 -0.410785
4.78 -0.407838
4.79 -0.404901
4.8 -0.402081
4.81 -0.399474
4.82 -0.397169
4.83 -0.395249
4.84 -0.393785
4.85 -0.392867
4.86 -0.392547
4.87 -0.392818
4.88 -0.393692
4.89 -0.395162
4.9 -0.397209
4.91 -0.399797
4.92 -0.402929
4.93 -0.406488
4.94 -0.410399
4.95 -0.414588
4.96 -0.418974
4.97 -0.423471
4.98 -0.427991
4.99 -0.432437
5 -0.436725
5.01 -0.440775
5.02 -0.444511
5.03 -0.447863
5.04 -0.450763
5.05 -0.45309
5.06 -0.454822
5.07 -0.455912
5.08 -0.456308
5.09 -0.455958
5.1 -0.454811
5.11 -0.452787
5.12 -0.449788
5.13 -0.445834
5.14 -0.440873
5.15 -0.434857
5.16 -0.427735
5.17 -0.419457
5.18 -0.409868
5.19 -0.398988
5.2 -0.386814
5.21 -0.373311
5.22 -0.358452
5.23 -0.342217
5.24 -0.324561
5.25 -0.305388
5.26 -0.284836
5.27 -0.262929
5.28 -0.239696
5.29 -0.21518
5.3 -0.189433
5.31 -0.16243
5.32 -0.134295
5.33 -0.105154
5.34 -0.0750907
5.35 -0.044194
5.36 -0.0125572
5.37 0.019731
5.38 0.0526099
5.39 0.0859153
5.4 0.119547
5.41 0.153405
5.42 0.187387
5.43 0.221391
5.44 0.255299
5.45 0.288991
5.46 0.32236
5.47 0.35529
5.48 0.387661
5.49 0.419346
5.5 0.450209
5.51 0.479982
5.52 0.508615
5.53 0.53595
5.54 0.561824
5.55 0.586072
5.56 0.608525
5.57 0.628894
5.58 0.646972
5.59 0.662724
5.6 0.675998
5.61 0.686656
5.62 0.694574
5.63 0.699651
5.64 0.701483
5.65 0.700303
5.66 0.696117
5.67 0.688935
5.68 0.678796
5.69 0.665771
5.7 0.649842
5.71 0.631087
5.72 0.609873
5.73 0.586387
5.74 0.560837
5.75 0.53345
5.76 0.504462
5.77 0.474011
5.78 0.442478
5.79 0.410135
5.8 0.37722
5.81 0.343958
5.82 0.310562
5.83 0.277233
5.84 0.244178
5.85 0.211536
5.86 0.179429
5.87 0.147959
5.88 0.117206
5.89 0.0872304
5.9 0.0581498
5.91 0.0299501
5.92 0.00262208
5.93 -0.023824
5.94 -0.0493806
5.95 -0.0740394
5.96 -0.0977677
5.97 -0.120475
5.98 -0.142215
5.99 -0.162947
6 -0.182615
6.01 -0.201153
6.02 -0.21848
6.03 -0.234405
6.04 -0.248859
6.05 -0.261794
6.06 -0.273108
6.07 -0.282699
6.08 -0.290475
6.09 -0.296331
6.1 -0.300006
6.11 -0.301659
6.12 -0.301269
6.13 -0.298839
6.14 -0.294398
6.15 -0.288005
6.16 -0.279631
6.17 -0.269431
6.18 -0.257646
6.19 -0.244441
6.2 -0.230001
6.21 -0.214524
6.22 -0.198219
6.23 -0.181255
6.24 -0.163935
6.25 -0.146469
6.26 -0.129053
6.27 -0.111867
6.28 -0.0950751
6.29 -0.0788497
6.3 -0.0633259
6.31 -0.048547
6.32 -0.0345638
6.33 -0.0213987
6.34 -0.00904709
6.35 0.00252135
6.36 0.0132908
6.37 0.0234147
6.38 0.0329953
6.39 0.0421383
6.4 0.0509569
6.41 0.0595676
6.42 0.068088
6.43 0.0766458
6.44 0.0853486
6.45 0.0942874
6.46 0.10354
6.47 0.113171
6.48 0.123227
6.49 0.133788
6.5 0.144838
6.51 0.156368
6.52 0.168365
6.53 0.18081
6.54 0.193674
6.55 0.206933
6.56 0.220565
6.57 0.234498
6.58 0.248697
6.59 0.26313
6.6 0.277766
6.61 0.292584
6.62 0.307576
6.63 0.32272
6.64 0.338003
6.65 0.353419
6.66 0.368963
6.67 0.384629
6.68 0.400409
6.69 0.416293
6.7 0.432247
6.71 0.448235
6.72 0.46421
6.73 0.480114
6.74 0.495872
6.75 0.511373
6.76 0.526504
6.77 0.541158
6.78 0.555205
6.79 0.568504
6.8 0.580908
6.81 0.592255
6.82 0.602253
6.83 0.610867
6.84 0.617953
6.85 0.623373
6.86 0.627003
6.87 0.628733
6.88 0.628342
6.89 0.625758
6.9 0.621045
6.91 0.614174
6.92 0.605138
6.93 0.593952
6.94 0.580648
6.95 0.565051
6.96 0.547467
6.97 0.52799
6.98 0.506715
6.99 0.483748
7 0.459202
7.01 0.433124
7.02 0.405628
7.03 0.376926
7.04 0.347132
7.05 0.316355
7.06 0.284702
7.07 0.252274
7.08 0.219105
7.09 0.185359
7.1 0.151132
7.11 0.116508
7.12 0.081574
7.13 0.0464128
7.14 0.0111095
7.15 -0.0242358
7.16 -0.0595194
7.17 -0.0946429
7.18 -0.129503
7.19 -0.163991
7.2 -0.197994
7.21 -0.231329
7.22 -0.263903
7.23 -0.295611
7.24 -0.326334
7.25 -0.355957
7.26 -0.384369
7.27 -0.411431
7.28 -0.436953
7.29 -0.460979
7.3 -0.483448
7.31 -0.504314
7.32 -0.52355
7.33 -0.541146
7.34 -0.55698
7.35 -0.571156
7.36 -0.58378
7.37 -0.594914
7.38 -0.604631
7.39 -0.613015
7.4 -0.620142
7.41 -0.626026
7.42 -0.630891
7.43 -0.634836
7.44 -0.637956
7.45 -0.64034
7.46 -0.642067
7.47 -0.64317
7.48 -0.643724
7.49 -0.643795
7.5 -0.64341
7.51 -0.642581
7.52 -0.641305
7.53 -0.639568
7.54 -0.637291
7.55 -0.634492
7.56 -0.63113
7.57 -0.627163
7.58 -0.622547
7.59 -0.617239
7.6 -0.611156
7.61 -0.60426
7.62 -0.596571
7.63 -0.588078
7.64 -0.578775
7.65 -0.568673
7.66 -0.55779
7.67 -0.54608
7.68 -0.533669
7.69 -0.520617
7.7 -0.506986
7.71 -0.492846
7.72 -0.47827
7.73 -0.463324
7.74 -0.448093
7.75 -0.432681
7.76 -0.417166
7.77 -0.401621
7.78 -0.386117
7.79 -0.37072
7.8 -0.355511
7.81 -0.340535
7.82 -0.325835
7.83 -0.311453
7.84 -0.297425
7.85 -0.283784
7.86 -0.270574
7.87 -0.257845
7.88 -0.245587
7.89 -0.233826
7.9 -0.222584
7.91 -0.211886
7.92 -0.201759
7.93 -0.192285
7.94 -0.183459
7.95 -0.175292
7.96 -0.167813
7.97 -0.16105
7.98 -0.15503
7.99 -0.149797
8 -0.145426
8.01 -0.141861
8.02 -0.139111
8.03 -0.137179
8.04 -0.136062
8.05 -0.135746
8.06 -0.136274
8.07 -0.137579
8.08 -0.139597
8.09 -0.142282
8.1 -0.145585
8.11 -0.14945
8.12 -0.153824
8.13 -0.158672
8.14 -0.163877
8.15 -0.169374
8.16 -0.175094
8.17 -0.18097
8.18 -0.18694
8.19 -0.192938
8.2 -0.198897
8.21 -0.20476
8.22 -0.210473
8.23 -0.215987
8.24 -0.221253
8.25 -0.226222
8.26 -0.230805
8.27 -0.234987
8.28 -0.238721
8.29 -0.241954
8.3 -0.244634
8.31 -0.246701
8.32 -0.248054
8.33 -0.248612
8.34 -0.248349
8.35 -0.247192
8.36 -0.245066
8.37 -0.241896
8.38 -0.237607
8.39 -0.231988
8.4 -0.225084
8.41 -0.216842
8.42 -0.207208
8.43 -0.196133
8.44 -0.183583
8.45 -0.169466
8.46 -0.153731
8.47 -0.136491
8.48 -0.117768
8.49 -0.0975959
8.5 -0.0760224
8.51 -0.053108
8.52 -0.0288085
8.53 -0.00331796
8.54 0.0232474
8.55 0.0507889
8.56 0.0792038
8.57 0.108387
8.58 0.138254
8.59 0.168713
8.6 0.199614
8.61 0.230862
8.62 0.262369
8.63 0.294056
8.64 0.325845
8.65 0.357667
8.66 0.38945
8.67 0.421135
8.68 0.452667
8.69 0.483995
8.7 0.515063
8.71 0.545808
8.72 0.576133
8.73 0.606001
8.74 0.635337
8.75 0.664056
8.76 0.692062
8.77 0.719252
8.78 0.745427
8.79 0.770478
8.8 0.794307
8.81 0.81677
8.82 0.837718
8.83 0.856999
8.84 0.874437
8.85 0.88968
8.86 0.90278
8.87 0.913602
8.88 0.922023
8.89 0.927933
8.9 0.93124
8.91 0.93169
8.92 0.929258
8.93 0.924056
8.94 0.916074
8.95 0.905327
8.96 0.891847
8.97 0.875685
8.98 0.856621
8.99 0.835058
9 0.811098
9.01 0.784858
9.02 0.756463
9.03 0.726043
9.04 0.693641
9.05 0.6594
9.06 0.623578
9.07 0.586312
9.08 0.547739
9.09 0.507995
9.1 0.46721
9.11 0.425432
9.12 0.382891
9.13 0.339724
9.14 0.296061
9.15 0.252034
9.16 0.207779
9.17 0.16344
9.18 0.119186
9.19 0.0751797
9.2 0.0315838
9.21 -0.0114301
9.22 -0.0536828
9.23 -0.0949886
9.24 -0.135028
9.25 -0.173667
9.26 -0.210734
9.27 -0.246032
9.28 -0.27937
9.29 -0.310563
9.3 -0.339356
9.31 -0.365436
9.32 -0.388862
9.33 -0.409514
9.34 -0.427292
9.35 -0.442121
9.36 -0.453949
9.37 -0.462497
9.38 -0.467929
9.39 -0.470376
9.4 -0.469896
9.41 -0.466572
9.42 -0.460503
9.43 -0.451758
9.44 -0.440304
9.45 -0.426539
9.46 -0.410623
9.47 -0.392718
9.48 -0.372987
9.49 -0.351596
9.5 -0.328604
9.51 -0.304232
9.52 -0.27869
9.53 -0.252115
9.54 -0.224633
9.55 -0.196365
9.56 -0.167415
9.57 -0.137843
9.58 -0.107815
9.59 -0.0774233
9.6 -0.0467583
9.61 -0.0159102
9.62 0.0150287
9.63 0.0459557
9.64 0.0767539
9.65 0.107315
9.66 0.137523
9.67 0.167254
9.68 0.196379
9.69 0.224758
9.7 0.252133
9.71 0.278445
9.72 0.303548
9.73 0.327299
9.74 0.34956
9.75 0.370198
9.76 0.388998
9.77 0.405811
9.78 0.420668
9.79 0.433498
9.8 0.444256
9.81 0.452916
9.82 0.459472
9.83 0.463732
9.84 0.465934
9.85 0.466173
9.86 0.464533
9.87 0.461117
9.88 0.45604
9.89 0.449372
9.9 0.441216
9.91 0.431827
9.92 0.421344
9.93 0.409904
9.94 0.397636
9.95 0.384663
9.96 0.371051
9.97 0.356949
9.98 0.342456
9.99 0.32764
10 0.312557
10.01 0.29725
10.02 0.281746
10.03 0.266056
10.04 0.250209
10.05 0.234207
10.06 0.218054
10.07 0.201747
10.08 0.185288
10.09 0.168668
10.1 0.151903
10.11 0.135015
10.12 0.118024
10.13 0.100961
10.14 0.0838624
10.15 0.0667745
10.16 0.0497599
10.17 0.0328742
10.18 0.016178
10.19 -0.000266212
10.2 -0.0163961
10.21 -0.0321514
10.22 -0.0474413
10.23 -0.0622196
10.24 -0.0764649
10.25 -0.0901446
10.26 -0.103235
10.27 -0.115724
10.28 -0.127603
10.29 -0.138819
10.3 -0.149458
10.31 -0.159547
10.32 -0.169117
10.33 -0.178208
10.34 -0.186862
10.35 -0.1951
10.36 -0.202975
10.37 -0.21055
10.38 -0.217862
10.39 -0.224946
10.4 -0.231828
10.41 -0.238531
10.42 -0.245055
10.43 -0.251425
10.44 -0.257647
10.45 -0.263719
10.46 -0.269637
10.47 -0.275393
10.48 -0.280972
10.49 -0.286364
10.5 -0.291577
10.51 -0.296613
10.52 -0.301477
10.53 -0.30618
10.54 -0.31074
10.55 -0.315173
10.56 -0.319524
10.57 -0.32383
10.58 -0.328133
10.59 -0.332476
10.6 -0.336905
10.61 -0.34147
10.62 -0.346225
10.63 -0.351192
10.64 -0.356402
10.65 -0.361871
10.66 -0.367609
10.67 -0.373613
10.68 -0.379888
10.69 -0.386386
10.7 -0.393058
10.71 -0.399851
10.72 -0.406702
10.73 -0.413541
10.74 -0.420285
10.75 -0.426836
10.76 -0.433123
10.77 -0.439069
10.78 -0.444606
10.79 -0.449671
10.8 -0.454216
10.81 -0.458156
10.82 -0.461495
10.83 -0.464251
10.84 -0.466441
10.85 -0.468097
10.86 -0.469265
10.87 -0.470002
10.88 -0.470362
10.89 -0.470469
10.9 -0.470415
10.91 -0.47029
10.92 -0.470183
10.93 -0.470178
10.94 -0.470365
10.95 -0.470811
10.96 -0.471546
10.97 -0.472595
10.98 -0.47396
10.99 -0.475623
11 -0.477545
11.01 -0.479675
11.02 -0.4819
11.03 -0.484115
11.04 -0.486204
11.05 -0.488037
11.06 -0.489478
11.07 -0.490351
11.08 -0.490495
11.09 -0.489815
11.1 -0.488194
11.11 -0.485528
11.12 -0.481734
11.13 -0.476751
11.14 -0.470404
11.15 -0.462809
11.16 -0.453996
11.17 -0.444009
11.18 -0.432918
11.19 -0.420812
11.2 -0.407768
11.21 -0.393911
11.22 -0.379444
11.23 -0.364512
11.24 -0.349264
11.25 -0.333843
11.26 -0.318386
11.27 -0.303039
11.28 -0.287914
11.29 -0.273096
11.3 -0.258651
11.31 -0.24462
11.32 -0.231025
11.33 -0.217876
11.34 -0.205159
11.35 -0.192787
11.36 -0.180693
11.37 -0.168793
11.38 -0.156994
11.39 -0.145195
11.4 -0.133275
11.41 -0.121126
11.42 -0.108655
11.43 -0.0957786
11.44 -0.0824217
11.45 -0.0685263
11.46 -0.0540355
11.47 -0.0388827
11.48 -0.0231213
11.49 -0.00676785
11.5 0.010145
11.51 0.0275697
11.52 0.0454465
11.53 0.0637295
11.54 0.0823174
11.55 0.101116
11.56 0.120046
11.57 0.139033
11.58 0.158009
11.59 0.176913
11.6 0.195683
11.61 0.214295
11.62 0.232733
11.63 0.250992
11.64 0.269081
11.65 0.287021
11.66 0.304836
11.67 0.322574
11.68 0.340282
11.69 0.358006
11.7 0.375788
11.71 0.393662
11.72 0.411658
11.73 0.429807
11.74 0.448091
11.75 0.466492
11.76 0.484972
11.77 0.503476
11.78 0.52193
11.79 0.540227
11.8 0.558238
11.81 0.575845
11.82 0.59291
11.83 0.609285
11.84 0.624819
11.85 0.639358
11.86 0.65261
11.87 0.664531
11.88 0.674998
11.89 0.683891
11.9 0.691106
11.91 0.69656
11.92 0.700103
11.93 0.701635
11.94 0.701272
11.95 0.699021
11.96 0.694906
11.97 0.68897
11.98 0.681275
11.99 0.671741
12 0.660597
12.01 0.647975
12.02 0.63398
12.03 0.618719
12.04 0.602298
12.05 0.584793
12.06 0.566268
12.07 0.546906
12.08 0.526791
12.09 0.506004
12.1 0.484618
12.11 0.462696
12.12 0.440262
12.13 0.417403
12.14 0.394183
12.15 0.370653
12.16 0.346861
12.17 0.322863
12.18 0.298713
12.19 0.274478
12.2 0.250245
12.21 0.226096
12.22 0.20212
12.23 0.178419
12.24 0.155098
12.25 0.132318
12.26 0.1102
12.27 0.0888461
