# xPDFsuite Configuration #
[PDF]
wavelength = 0.1
dataformat = QA
inputfile = BiMsol6_insitu_700 C-00100.xy
backgroundfile = Quartz2mm-dist500-00000.xy
mode = xray
bgscale = 0.0042
composition = Bi2Fe4O9
outputtype = gr
qmaxinst = 24.998449118
qmin = 0.1
qmax = 21.4986662415
rmax = 80.0
rmin = 0.0
rstep = 0.01
rpoly = 0.9

[Misc]
inputdir = C:/Data/Seafile/CPH/Beamtime/Desy Oct 20/In situ data/Processed/BiMsol6/PDF
savedir = C:/Data/Seafile/CPH/Beamtime/Desy Oct 20/In situ data/PDF/BiMsol6
backgroundfilefull = C:/Data/Seafile/CPH/Beamtime/Desy Oct 20/In situ data/Processed/Standard_Empty_Cap/Quartz2mm-dist500-00000.xy

#### start data
#S 1
#L r($\AA$)  G($\AA^{-2}$)
0 0
0.01 0.0070327
0.02 0.0136759
0.03 0.019596
0.04 0.0244937
0.05 0.0281169
0.06 0.0302732
0.07 0.0307513
0.08 0.0294877
0.09 0.0266344
0.1 0.0223153
0.11 0.0167243
0.12 0.0101166
0.13 0.00279724
0.14 -0.00489247
0.15 -0.0125163
0.16 -0.019707
0.17 -0.0261192
0.18 -0.031442
0.19 -0.0354142
0.2 -0.0377665
0.21 -0.0383117
0.22 -0.0371469
0.23 -0.0343354
0.24 -0.0300238
0.25 -0.0244373
0.26 -0.0178709
0.27 -0.0106569
0.28 -0.00328807
0.29 0.00379752
0.3 0.0101743
0.31 0.0154363
0.32 0.0192162
0.33 0.0211424
0.34 0.0208488
0.35 0.0183777
0.36 0.0137154
0.37 0.0069575
0.38 -0.00168954
0.39 -0.0119115
0.4 -0.0233471
0.41 -0.0353562
0.42 -0.0473096
0.43 -0.0585682
0.44 -0.06847
0.45 -0.0763544
0.46 -0.0815238
0.47 -0.0830835
0.48 -0.080829
0.49 -0.0743948
0.5 -0.0635424
0.51 -0.0481753
0.52 -0.0283493
0.53 -0.00399782
0.54 0.024309
0.55 0.0558206
0.56 0.0898369
0.57 0.12554
0.58 0.162017
0.59 0.198274
0.6 0.233037
0.61 0.265325
0.62 0.294145
0.63 0.318568
0.64 0.337765
0.65 0.351027
0.66 0.357369
0.67 0.356408
0.68 0.348352
0.69 0.333236
0.7 0.311285
0.71 0.282913
0.72 0.24871
0.73 0.208942
0.74 0.165168
0.75 0.118419
0.76 0.0697792
0.77 0.0203729
0.78 -0.0286748
0.79 -0.0761403
0.8 -0.120811
0.81 -0.161889
0.82 -0.198596
0.83 -0.230303
0.84 -0.256545
0.85 -0.27703
0.86 -0.291048
0.87 -0.299232
0.88 -0.301944
0.89 -0.299619
0.9 -0.292823
0.91 -0.282236
0.92 -0.268534
0.93 -0.252574
0.94 -0.235427
0.95 -0.217929
0.96 -0.200877
0.97 -0.185003
0.98 -0.170951
0.99 -0.159517
1 -0.150987
1.01 -0.145552
1.02 -0.14333
1.03 -0.144305
1.04 -0.148338
1.05 -0.155243
1.06 -0.164757
1.07 -0.176184
1.08 -0.189018
1.09 -0.202723
1.1 -0.216755
1.11 -0.230583
1.12 -0.243619
1.13 -0.255406
1.14 -0.265621
1.15 -0.273999
1.16 -0.280366
1.17 -0.284643
1.18 -0.286814
1.19 -0.286847
1.2 -0.285159
1.21 -0.282025
1.22 -0.277772
1.23 -0.272762
1.24 -0.267376
1.25 -0.262018
1.26 -0.257095
1.27 -0.25292
1.28 -0.249752
1.29 -0.24779
1.3 -0.24716
1.31 -0.247921
1.32 -0.250173
1.33 -0.253641
1.34 -0.258135
1.35 -0.263406
1.36 -0.269161
1.37 -0.275077
1.38 -0.280779
1.39 -0.285876
1.4 -0.290063
1.41 -0.293059
1.42 -0.29463
1.43 -0.294604
1.44 -0.292877
1.45 -0.28923
1.46 -0.283918
1.47 -0.277093
1.48 -0.268971
1.49 -0.259828
1.5 -0.249992
1.51 -0.239833
1.52 -0.229799
1.53 -0.220303
1.54 -0.211724
1.55 -0.204408
1.56 -0.198659
1.57 -0.194718
1.58 -0.192966
1.59 -0.193323
1.6 -0.19574
1.61 -0.200117
1.62 -0.206266
1.63 -0.213926
1.64 -0.222791
1.65 -0.232443
1.66 -0.242352
1.67 -0.25205
1.68 -0.261069
1.69 -0.268949
1.7 -0.275262
1.71 -0.279418
1.72 -0.281191
1.73 -0.280406
1.74 -0.276918
1.75 -0.270674
1.76 -0.261712
1.77 -0.250097
1.78 -0.235931
1.79 -0.219759
1.8 -0.201958
1.81 -0.182957
1.82 -0.163215
1.83 -0.143213
1.84 -0.123485
1.85 -0.104539
1.86 -0.0867802
1.87 -0.0705717
1.88 -0.0562104
1.89 -0.0439185
1.9 -0.0338697
1.91 -0.026313
1.92 -0.020965
1.93 -0.0176897
1.94 -0.016277
1.95 -0.0164529
1.96 -0.0178916
1.97 -0.020263
1.98 -0.0231078
1.99 -0.0259953
2 -0.0285527
2.01 -0.0304384
2.02 -0.0313568
2.03 -0.0310652
2.04 -0.0292318
2.05 -0.0259264
2.06 -0.0211574
2.07 -0.0150136
2.08 -0.00766109
2.09 0.000662904
2.1 0.00967574
2.11 0.018967
2.12 0.0281033
2.13 0.0366709
2.14 0.0442541
2.15 0.0504512
2.16 0.0548901
2.17 0.0569839
2.18 0.0566607
2.19 0.0537538
2.2 0.0481591
2.21 0.0398547
2.22 0.028903
2.23 0.0153463
2.24 -0.000607392
2.25 -0.0184682
2.26 -0.0378655
2.27 -0.0583833
2.28 -0.0795742
2.29 -0.100974
2.3 -0.122048
2.31 -0.142319
2.32 -0.161382
2.33 -0.178873
2.34 -0.194484
2.35 -0.207972
2.36 -0.219087
2.37 -0.22762
2.38 -0.233767
2.39 -0.237611
2.4 -0.239303
2.41 -0.239055
2.42 -0.237135
2.43 -0.233761
2.44 -0.229397
2.45 -0.224436
2.46 -0.219236
2.47 -0.214139
2.48 -0.209464
2.49 -0.205515
2.5 -0.202623
2.51 -0.200886
2.52 -0.200422
2.53 -0.201284
2.54 -0.203472
2.55 -0.206925
2.56 -0.211612
2.57 -0.21731
2.58 -0.223771
2.59 -0.230774
2.6 -0.238078
2.61 -0.24544
2.62 -0.252615
2.63 -0.259317
2.64 -0.265374
2.65 -0.270624
2.66 -0.274941
2.67 -0.278238
2.68 -0.280472
2.69 -0.281572
2.7 -0.2816
2.71 -0.280694
2.72 -0.278965
2.73 -0.276547
2.74 -0.273591
2.75 -0.270256
2.76 -0.266696
2.77 -0.2631
2.78 -0.259605
2.79 -0.256325
2.8 -0.253349
2.81 -0.250738
2.82 -0.248543
2.83 -0.246759
2.84 -0.245323
2.85 -0.244168
2.86 -0.243202
2.87 -0.242319
2.88 -0.241396
2.89 -0.240275
2.9 -0.238832
2.91 -0.236949
2.92 -0.234521
2.93 -0.231461
2.94 -0.227704
2.95 -0.22318
2.96 -0.217856
2.97 -0.211811
2.98 -0.205098
2.99 -0.197791
3 -0.18999
3.01 -0.181807
3.02 -0.173357
3.03 -0.164809
3.04 -0.156298
3.05 -0.147949
3.06 -0.139873
3.07 -0.132164
3.08 -0.124909
3.09 -0.118181
3.1 -0.111951
3.11 -0.106201
3.12 -0.100883
3.13 -0.0959197
3.14 -0.0912138
3.15 -0.0866451
3.16 -0.0820517
3.17 -0.0772821
3.18 -0.0721857
3.19 -0.0666148
3.2 -0.0604303
3.21 -0.0534893
3.22 -0.0456112
3.23 -0.0367933
3.24 -0.0269861
3.25 -0.0161692
3.26 -0.004351
3.27 0.00843133
3.28 0.0221732
3.29 0.0367426
3.3 0.0519868
3.31 0.0677769
3.32 0.0839741
3.33 0.100435
3.34 0.117017
3.35 0.133568
3.36 0.149955
3.37 0.166076
3.38 0.181844
3.39 0.197199
3.4 0.212101
3.41 0.226507
3.42 0.240433
3.43 0.253941
3.44 0.267084
3.45 0.279927
3.46 0.292548
3.47 0.305025
3.48 0.317441
3.49 0.329883
3.5 0.342411
3.51 0.355069
3.52 0.367881
3.53 0.380851
3.54 0.393961
3.55 0.407152
3.56 0.420338
3.57 0.433416
3.58 0.446262
3.59 0.458735
3.6 0.470681
3.61 0.481846
3.62 0.492109
3.63 0.501315
3.64 0.509309
3.65 0.515949
3.66 0.521111
3.67 0.524627
3.68 0.526355
3.69 0.526377
3.7 0.524685
3.71 0.521297
3.72 0.516265
3.73 0.509666
3.74 0.501478
3.75 0.491946
3.76 0.481251
3.77 0.469552
3.78 0.457016
3.79 0.443812
3.8 0.4301
3.81 0.41604
3.82 0.401823
3.83 0.387583
3.84 0.373434
3.85 0.359477
3.86 0.345788
3.87 0.332455
3.88 0.319503
3.89 0.306936
3.9 0.294752
3.91 0.282936
3.92 0.271464
3.93 0.260306
3.94 0.24944
3.95 0.238796
3.96 0.228333
3.97 0.218016
3.98 0.207815
3.99 0.197707
4 0.18768
4.01 0.177726
4.02 0.167846
4.03 0.158049
4.04 0.148354
4.05 0.13878
4.06 0.129355
4.07 0.120125
4.08 0.111099
4.09 0.102297
4.1 0.0937379
4.11 0.0854336
4.12 0.0773898
4.13 0.0696201
4.14 0.062113
4.15 0.0548372
4.16 0.0477702
4.17 0.0408853
4.18 0.0341529
4.19 0.0275422
4.2 0.0210299
4.21 0.0145762
4.22 0.00815869
4.23 0.0017613
4.24 -0.00462442
4.25 -0.0109986
4.26 -0.0173505
4.27 -0.0236575
4.28 -0.0298924
4.29 -0.036019
4.3 -0.0419949
4.31 -0.0477733
4.32 -0.0533049
4.33 -0.058505
4.34 -0.0633475
4.35 -0.0677955
4.36 -0.0718144
4.37 -0.0753792
4.38 -0.0784752
4.39 -0.0810821
4.4 -0.0831942
4.41 -0.0848752
4.42 -0.0861637
4.43 -0.08711
4.44 -0.0877741
4.45 -0.0882241
4.46 -0.0885285
4.47 -0.088783
4.48 -0.0890682
4.49 -0.0894578
4.5 -0.0900199
4.51 -0.0908138
4.52 -0.0918966
4.53 -0.0933268
4.54 -0.0950958
4.55 -0.0972053
4.56 -0.099642
4.57 -0.102377
4.58 -0.105368
4.59 -0.108569
4.6 -0.111895
4.61 -0.115265
4.62 -0.118596
4.63 -0.121806
4.64 -0.124815
4.65 -0.127539
4.66 -0.129874
4.67 -0.131791
4.68 -0.133247
4.69 -0.134212
4.7 -0.134672
4.71 -0.134627
4.72 -0.134064
4.73 -0.133031
4.74 -0.1316
4.75 -0.129831
4.76 -0.127795
4.77 -0.125568
4.78 -0.123231
4.79 -0.120873
4.8 -0.118584
4.81 -0.116439
4.82 -0.114507
4.83 -0.112845
4.84 -0.111503
4.85 -0.110538
4.86 -0.109977
4.87 -0.109805
4.88 -0.110019
4.89 -0.110601
4.9 -0.111527
4.91 -0.112761
4.92 -0.114286
4.93 -0.116025
4.94 -0.117927
4.95 -0.119943
4.96 -0.122027
4.97 -0.124136
4.98 -0.126228
4.99 -0.128268
5 -0.130232
5.01 -0.132105
5.02 -0.133875
5.03 -0.13554
5.04 -0.137101
5.05 -0.138555
5.06 -0.139921
5.07 -0.141212
5.08 -0.142438
5.09 -0.14361
5.1 -0.144735
5.11 -0.145814
5.12 -0.146846
5.13 -0.147826
5.14 -0.148744
5.15 -0.149585
5.16 -0.150329
5.17 -0.150955
5.18 -0.151425
5.19 -0.15172
5.2 -0.151823
5.21 -0.151715
5.22 -0.15138
5.23 -0.150811
5.24 -0.149999
5.25 -0.148934
5.26 -0.147653
5.27 -0.146178
5.28 -0.144539
5.29 -0.142772
5.3 -0.140918
5.31 -0.139022
5.32 -0.137139
5.33 -0.135317
5.34 -0.1336
5.35 -0.132026
5.36 -0.130629
5.37 -0.129436
5.38 -0.128481
5.39 -0.127744
5.4 -0.127215
5.41 -0.126871
5.42 -0.126681
5.43 -0.1266
5.44 -0.126576
5.45 -0.126542
5.46 -0.126429
5.47 -0.126172
5.48 -0.125707
5.49 -0.124972
5.5 -0.123914
5.51 -0.122442
5.52 -0.120562
5.53 -0.118258
5.54 -0.115527
5.55 -0.112381
5.56 -0.108846
5.57 -0.104949
5.58 -0.100751
5.59 -0.0963433
5.6 -0.0918018
5.61 -0.0872092
5.62 -0.08265
5.63 -0.0782081
5.64 -0.0739924
5.65 -0.0700608
5.66 -0.0664695
5.67 -0.0632628
5.68 -0.0604692
5.69 -0.0580997
5.7 -0.0561644
5.71 -0.0546428
5.72 -0.053457
5.73 -0.0525436
5.74 -0.0518256
5.75 -0.0512152
5.76 -0.0506169
5.77 -0.0499132
5.78 -0.0490007
5.79 -0.0477875
5.8 -0.0461889
5.81 -0.0441323
5.82 -0.0415605
5.83 -0.0384155
5.84 -0.0346492
5.85 -0.030317
5.86 -0.0254486
5.87 -0.0200946
5.88 -0.0143254
5.89 -0.00822816
5.9 -0.00189529
5.91 0.00453268
5.92 0.0109286
5.93 0.0171709
5.94 0.0231409
5.95 0.0287278
5.96 0.03382
5.97 0.0382842
5.98 0.0421094
5.99 0.0452591
6 0.0477205
6.01 0.0495054
6.02 0.0506498
6.03 0.0511758
6.04 0.0511977
6.05 0.0508435
6.06 0.0502311
6.07 0.0494883
6.08 0.0487481
6.09 0.0481472
6.1 0.0478551
6.11 0.0479714
6.12 0.0485981
6.13 0.0498189
6.14 0.0516957
6.15 0.0542664
6.16 0.0575875
6.17 0.0616313
6.18 0.0663135
6.19 0.0715633
6.2 0.0772883
6.21 0.0833776
6.22 0.0897055
6.23 0.0961309
6.24 0.102487
6.25 0.10863
6.26 0.114425
6.27 0.119745
6.28 0.124477
6.29 0.128486
6.3 0.131682
6.31 0.134067
6.32 0.135622
6.33 0.136354
6.34 0.136293
6.35 0.135494
6.36 0.133973
6.37 0.131896
6.38 0.129383
6.39 0.126551
6.4 0.123525
6.41 0.12043
6.42 0.11739
6.43 0.114539
6.44 0.111964
6.45 0.109746
6.46 0.107943
6.47 0.106596
6.48 0.105723
6.49 0.105363
6.5 0.105452
6.51 0.105931
6.52 0.106737
6.53 0.107791
6.54 0.109007
6.55 0.110288
6.56 0.111523
6.57 0.112612
6.58 0.113466
6.59 0.114005
6.6 0.114161
6.61 0.113879
6.62 0.113079
6.63 0.111765
6.64 0.109955
6.65 0.107667
6.66 0.104935
6.67 0.10181
6.68 0.0983473
6.69 0.0946082
6.7 0.0907036
6.71 0.0867161
6.72 0.082728
6.73 0.0788186
6.74 0.0750615
6.75 0.0715418
6.76 0.068314
6.77 0.065407
6.78 0.062847
6.79 0.060646
6.8 0.0588028
6.81 0.0573059
6.82 0.0561566
6.83 0.0552794
6.84 0.0546278
6.85 0.0541498
6.86 0.0537902
6.87 0.0534928
6.88 0.0531998
6.89 0.0528525
6.9 0.0524065
6.91 0.0518244
6.92 0.0510773
6.93 0.0501447
6.94 0.0490157
6.95 0.0476662
6.96 0.0461268
6.97 0.0444138
6.98 0.0425489
6.99 0.0405582
7 0.0384709
7.01 0.0363154
7.02 0.0341253
7.03 0.0319319
7.04 0.0297586
7.05 0.0276242
7.06 0.0255419
7.07 0.0235191
7.08 0.0215625
7.09 0.0196605
7.1 0.0178007
7.11 0.0159673
7.12 0.0141412
7.13 0.0123015
7.14 0.0104241
7.15 0.00848352
7.16 0.00646509
7.17 0.00435503
7.18 0.00214454
7.19 -0.000169353
7.2 -0.00258315
7.21 -0.00509328
7.22 -0.00767344
7.23 -0.0102963
7.24 -0.012931
7.25 -0.0155421
7.26 -0.0180908
7.27 -0.0205319
7.28 -0.0228095
7.29 -0.0248933
7.3 -0.026746
7.31 -0.028335
7.32 -0.0296329
7.33 -0.0306194
7.34 -0.0312549
7.35 -0.0315503
7.36 -0.0315235
7.37 -0.031189
7.38 -0.0305694
7.39 -0.0296943
7.4 -0.0285969
7.41 -0.0273093
7.42 -0.0258986
7.43 -0.0244125
7.44 -0.0228993
7.45 -0.021406
7.46 -0.0199775
7.47 -0.018665
7.48 -0.0175066
7.49 -0.016526
7.5 -0.0157458
7.51 -0.0151819
7.52 -0.0148431
7.53 -0.0147332
7.54 -0.0148708
7.55 -0.0152198
7.56 -0.0157649
7.57 -0.0164871
7.58 -0.0173651
7.59 -0.0183757
7.6 -0.0195005
7.61 -0.0207128
7.62 -0.0219849
7.63 -0.0232977
7.64 -0.0246342
7.65 -0.0259807
7.66 -0.0273264
7.67 -0.0286618
7.68 -0.0299829
7.69 -0.0312875
7.7 -0.0325754
7.71 -0.0338478
7.72 -0.0351061
7.73 -0.0363518
7.74 -0.0375861
7.75 -0.0388098
7.76 -0.0400217
7.77 -0.0412189
7.78 -0.0423968
7.79 -0.043549
7.8 -0.0446635
7.81 -0.0457329
7.82 -0.0467478
7.83 -0.047698
7.84 -0.0485737
7.85 -0.0493657
7.86 -0.0500628
7.87 -0.0506544
7.88 -0.0511448
7.89 -0.0515334
7.9 -0.0518222
7.91 -0.0520154
7.92 -0.0521196
7.93 -0.0521371
7.94 -0.0520841
7.95 -0.0519736
7.96 -0.0518163
7.97 -0.0516222
7.98 -0.0513999
7.99 -0.0511555
8 -0.0508919
8.01 -0.0506109
8.02 -0.050309
8.03 -0.0499795
8.04 -0.0496123
8.05 -0.0491946
8.06 -0.0487045
8.07 -0.0481257
8.08 -0.0474434
8.09 -0.0466411
8.1 -0.045704
8.11 -0.0446206
8.12 -0.0433809
8.13 -0.0419691
8.14 -0.0404064
8.15 -0.0387049
8.16 -0.0368836
8.17 -0.034969
8.18 -0.032994
8.19 -0.0309997
8.2 -0.0290385
8.21 -0.0271608
8.22 -0.0254182
8.23 -0.023863
8.24 -0.0225457
8.25 -0.0215145
8.26 -0.0208512
8.27 -0.0205538
8.28 -0.0206445
8.29 -0.0211342
8.3 -0.0220216
8.31 -0.0232923
8.32 -0.0249364
8.33 -0.0269063
8.34 -0.0291242
8.35 -0.0315226
8.36 -0.0340246
8.37 -0.0365464
8.38 -0.0389991
8.39 -0.0412642
8.4 -0.0432591
8.41 -0.0449001
8.42 -0.0461093
8.43 -0.0468191
8.44 -0.0469741
8.45 -0.0465053
8.46 -0.0453707
8.47 -0.0436111
8.48 -0.0412422
8.49 -0.0382975
8.5 -0.0348271
8.51 -0.0308972
8.52 -0.0265591
8.53 -0.0219461
8.54 -0.0171663
8.55 -0.0123256
8.56 -0.00753072
8.57 -0.00288626
8.58 0.0014969
8.59 0.00550107
8.6 0.00907346
8.61 0.0121539
8.62 0.0146988
8.63 0.0166821
8.64 0.0180963
8.65 0.0189061
8.66 0.0191784
8.67 0.018979
8.68 0.0183708
8.69 0.0174284
8.7 0.0162346
8.71 0.0148767
8.72 0.0134521
8.73 0.0120634
8.74 0.010794
8.75 0.00971945
8.76 0.00890431
8.77 0.00840042
8.78 0.00827338
8.79 0.00853289
8.8 0.00916581
8.81 0.0101578
8.82 0.01148
8.83 0.0130901
8.84 0.0149368
8.85 0.0169654
8.86 0.0190828
8.87 0.0212172
8.88 0.0232973
8.89 0.0252555
8.9 0.02703
8.91 0.0285496
8.92 0.0297706
8.93 0.0306791
8.94 0.0312618
8.95 0.0315191
8.96 0.0314648
8.97 0.0311251
8.98 0.0305144
8.99 0.0297144
9 0.0287807
9.01 0.027773
9.02 0.0267521
9.03 0.0257775
9.04 0.024913
9.05 0.024215
9.06 0.023714
9.07 0.0234368
9.08 0.0233979
9.09 0.0235994
9.1 0.0240304
9.11 0.0246865
9.12 0.0255078
9.13 0.026446
9.14 0.0274473
9.15 0.0284537
9.16 0.0294043
9.17 0.0302316
9.18 0.0308657
9.19 0.031267
9.2 0.0313951
9.21 0.0312208
9.22 0.0307266
9.23 0.0299087
9.24 0.028749
9.25 0.0272995
9.26 0.0256063
9.27 0.0237204
9.28 0.0217019
9.29 0.019618
9.3 0.0175429
9.31 0.015564
9.32 0.0137507
9.33 0.0121685
9.34 0.0108753
9.35 0.00991865
9.36 0.00933367
9.37 0.00917532
9.38 0.00942705
9.39 0.0100623
9.4 0.0110519
9.41 0.0123526
9.42 0.0139083
9.43 0.0156542
9.44 0.017513
9.45 0.0193862
9.46 0.0211906
9.47 0.0228448
9.48 0.0242724
9.49 0.0254048
9.5 0.0261546
9.51 0.0264838
9.52 0.0263824
9.53 0.0258412
9.54 0.0248677
9.55 0.0234862
9.56 0.0217341
9.57 0.0196435
9.58 0.0173235
9.59 0.0148531
9.6 0.0123181
9.61 0.00980667
9.62 0.00740693
9.63 0.00522038
9.64 0.00333281
9.65 0.00179665
9.66 0.000662388
9.67 -3.47469e-05
9.68 -0.000276151
9.69 -6.05989e-05
9.7 0.000642701
9.71 0.00174403
9.72 0.00318987
9.73 0.00491434
9.74 0.00684095
9.75 0.00888557
9.76 0.0109562
9.77 0.0129493
9.78 0.0147781
9.79 0.0163639
9.8 0.0176377
9.81 0.0185434
9.82 0.0190394
9.83 0.0190547
9.84 0.0186245
9.85 0.0177699
9.86 0.0165237
9.87 0.014935
9.88 0.0130671
9.89 0.0109908
9.9 0.00879946
9.91 0.00659923
9.92 0.00448324
9.93 0.0025426
9.94 0.000862991
9.95 -0.00047856
9.96 -0.0013741
9.97 -0.00179741
9.98 -0.00172797
9.99 -0.0011533
10 -7.92703e-05
10.01 0.00147008
10.02 0.00346416
10.03 0.0058578
10.04 0.0085388
10.05 0.0114218
10.06 0.0144138
10.07 0.0174178
10.08 0.0203356
10.09 0.0230495
10.1 0.0254685
10.11 0.027522
10.12 0.0291454
10.13 0.0302884
10.14 0.0309171
10.15 0.0310051
10.16 0.0305129
10.17 0.0295159
10.18 0.028053
10.19 0.0261775
10.2 0.0239547
10.21 0.0214599
10.22 0.018768
10.23 0.0159824
10.24 0.0131976
10.25 0.0104968
10.26 0.00795723
10.27 0.00564765
10.28 0.00362839
10.29 0.00198314
10.3 0.00070684
10.31 -0.000187149
10.32 -0.000699891
10.33 -0.000846289
10.34 -0.000654025
10.35 -0.000147128
10.36 0.000616447
10.37 0.00156294
10.38 0.0026313
10.39 0.00375896
10.4 0.00488428
10.41 0.00594887
10.42 0.00688169
10.43 0.00764668
10.44 0.00820997
10.45 0.00854718
10.46 0.00864439
10.47 0.00849815
10.48 0.00810434
10.49 0.00747827
10.5 0.00666191
10.51 0.00568727
10.52 0.00459067
10.53 0.00341088
10.54 0.00218719
10.55 0.000960584
10.56 -0.000230616
10.57 -0.00135768
10.58 -0.00239805
10.59 -0.00333616
10.6 -0.00416384
10.61 -0.0048765
10.62 -0.00547822
10.63 -0.00599246
10.64 -0.00643905
10.65 -0.0068416
10.66 -0.00722603
10.67 -0.00761887
10.68 -0.00805086
10.69 -0.00854462
10.7 -0.00911635
10.71 -0.00977731
10.72 -0.010532
10.73 -0.0113773
10.74 -0.0123043
10.75 -0.013295
10.76 -0.0143151
10.77 -0.0153316
10.78 -0.0163065
10.79 -0.0171993
10.8 -0.0179679
10.81 -0.0185549
10.82 -0.0189245
10.83 -0.019051
10.84 -0.0189096
10.85 -0.0184839
10.86 -0.0177675
10.87 -0.0167607
10.88 -0.0154593
10.89 -0.0139223
10.9 -0.0121908
10.91 -0.0103152
10.92 -0.0083543
10.93 -0.00637337
10.94 -0.00445045
10.95 -0.00266626
10.96 -0.0010879
10.97 0.000218741
10.98 0.00119446
10.99 0.00178913
11 0.00196175
11.01 0.00163695
11.02 0.000855589
11.03 -0.000374003
11.04 -0.00202774
11.05 -0.00406614
11.06 -0.00643517
11.07 -0.00907806
11.08 -0.011903
11.09 -0.0148057
11.1 -0.0176915
11.11 -0.0204635
11.12 -0.0230257
11.13 -0.0252858
11.14 -0.0271078
11.15 -0.0284517
11.16 -0.0292619
11.17 -0.0294952
11.18 -0.0291255
11.19 -0.0281448
11.2 -0.0265369
11.21 -0.0243236
11.22 -0.021598
11.23 -0.0184268
11.24 -0.0148902
11.25 -0.0110797
11.26 -0.0070951
11.27 -0.00304547
11.28 0.000944735
11.29 0.00476989
11.3 0.00833096
11.31 0.0115376
11.32 0.0143107
11.33 0.0165655
11.34 0.0182223
11.35 0.019295
11.36 0.0197736
11.37 0.0196662
11.38 0.0189982
11.39 0.0178111
11.4 0.0161265
11.41 0.0140513
11.42 0.0116796
11.43 0.00909906
11.44 0.00640092
11.45 0.00367684
11.46 0.00101984
11.47 -0.00146589
11.48 -0.00371427
11.49 -0.00566254
11.5 -0.00726038
11.51 -0.00847118
11.52 -0.0092728
11.53 -0.00962626
11.54 -0.0095577
11.55 -0.00910829
11.56 -0.00831473
11.57 -0.0072242
11.58 -0.00589232
11.59 -0.00437961
11.6 -0.00274999
11.61 -0.001088
11.62 0.000540864
11.63 0.00207504
11.64 0.00345892
11.65 0.00464456
11.66 0.00557552
11.67 0.0062244
11.68 0.00658889
11.69 0.00666545
11.7 0.00646131
11.71 0.00599383
11.72 0.0052891
11.73 0.00436343
11.74 0.00328546
11.75 0.00210133
11.76 0.000859363
11.77 -0.000391767
11.78 -0.0016048
11.79 -0.00272876
11.8 -0.00371806
11.81 -0.00454644
11.82 -0.00518925
11.83 -0.0056296
