# xPDFsuite Configuration #
[PDF]
wavelength = 0.1
dataformat = QA
inputfile = BiMsol6_insitu_700 C-00605.xy
backgroundfile = Quartz2mm-dist500-00000.xy
mode = xray
bgscale = 0.0042
composition = Bi2Fe4O9
outputtype = gr
qmaxinst = 24.998449118
qmin = 0.1
qmax = 21.4986662415
rmax = 80.0
rmin = 0.0
rstep = 0.01
rpoly = 0.9

[Misc]
inputdir = C:/Data/Seafile/CPH/Beamtime/Desy Oct 20/In situ data/Processed/BiMsol6/PDF
savedir = C:/Data/Seafile/CPH/Beamtime/Desy Oct 20/In situ data/PDF/BiMsol6
backgroundfilefull = C:/Data/Seafile/CPH/Beamtime/Desy Oct 20/In situ data/Processed/Standard_Empty_Cap/Quartz2mm-dist500-00000.xy

#### start data
#S 1
#L r($\AA$)  G($\AA^{-2}$)
0 0
0.01 0.00595161
0.02 0.0115646
0.03 0.0165491
0.04 0.0206453
0.05 0.0236349
0.06 0.0253517
0.07 0.0256143
0.08 0.02437
0.09 0.0217533
0.1 0.017875
0.11 0.0129068
0.12 0.00707364
0.13 0.00064365
0.14 -0.00608135
0.15 -0.0127227
0.16 -0.0189607
0.17 -0.0244958
0.18 -0.0290597
0.19 -0.0324285
0.2 -0.0343727
0.21 -0.0347362
0.22 -0.0336128
0.23 -0.0310664
0.24 -0.0272346
0.25 -0.0223235
0.26 -0.0166004
0.27 -0.0103702
0.28 -0.00406862
0.29 0.00191666
0.3 0.00720931
0.31 0.0114521
0.32 0.0143245
0.33 0.0155024
0.34 0.0146694
0.35 0.0118783
0.36 0.00712992
0.37 0.000523584
0.38 -0.00774201
0.39 -0.0173714
0.4 -0.0280212
0.41 -0.039106
0.42 -0.0500521
0.43 -0.0602758
0.44 -0.0691736
0.45 -0.0761452
0.46 -0.0805555
0.47 -0.0815867
0.48 -0.0790645
0.49 -0.0726598
0.5 -0.0621593
0.51 -0.0474788
0.52 -0.0286726
0.53 -0.00567883
0.54 0.0209784
0.55 0.0506101
0.56 0.0825768
0.57 0.116131
0.58 0.150438
0.59 0.18459
0.6 0.217426
0.61 0.248042
0.62 0.275525
0.63 0.299021
0.64 0.317763
0.65 0.331094
0.66 0.338097
0.67 0.338406
0.68 0.33219
0.69 0.31946
0.7 0.300401
0.71 0.275368
0.72 0.244874
0.73 0.209119
0.74 0.169521
0.75 0.127001
0.76 0.0825323
0.77 0.0371275
0.78 -0.00819569
0.79 -0.052338
0.8 -0.0941953
0.81 -0.133016
0.82 -0.168078
0.83 -0.198789
0.84 -0.224702
0.85 -0.245523
0.86 -0.260584
0.87 -0.270412
0.88 -0.275298
0.89 -0.275602
0.9 -0.271803
0.91 -0.264483
0.92 -0.254222
0.93 -0.24176
0.94 -0.228058
0.95 -0.213858
0.96 -0.199873
0.97 -0.186762
0.98 -0.175112
0.99 -0.165639
1 -0.158629
1.01 -0.154282
1.02 -0.152727
1.03 -0.153982
1.04 -0.157949
1.05 -0.164493
1.06 -0.173413
1.07 -0.184109
1.08 -0.196152
1.09 -0.209082
1.1 -0.222424
1.11 -0.235714
1.12 -0.248437
1.13 -0.260174
1.14 -0.270621
1.15 -0.279524
1.16 -0.286706
1.17 -0.292069
1.18 -0.295568
1.19 -0.297133
1.2 -0.2971
1.21 -0.295678
1.22 -0.293122
1.23 -0.289722
1.24 -0.285784
1.25 -0.281626
1.26 -0.277592
1.27 -0.273955
1.28 -0.270942
1.29 -0.268729
1.3 -0.267434
1.31 -0.267123
1.32 -0.267887
1.33 -0.269539
1.34 -0.271944
1.35 -0.274922
1.36 -0.278256
1.37 -0.281706
1.38 -0.284989
1.39 -0.287813
1.4 -0.28995
1.41 -0.291192
1.42 -0.291369
1.43 -0.290359
1.44 -0.288094
1.45 -0.28443
1.46 -0.279572
1.47 -0.273654
1.48 -0.266857
1.49 -0.259409
1.5 -0.251577
1.51 -0.243665
1.52 -0.236029
1.53 -0.228979
1.54 -0.222803
1.55 -0.217762
1.56 -0.214074
1.57 -0.211905
1.58 -0.211532
1.59 -0.212848
1.6 -0.215776
1.61 -0.220199
1.62 -0.22593
1.63 -0.232721
1.64 -0.240287
1.65 -0.24825
1.66 -0.256172
1.67 -0.263663
1.68 -0.270331
1.69 -0.275803
1.7 -0.279737
1.71 -0.281646
1.72 -0.281385
1.73 -0.278846
1.74 -0.273946
1.75 -0.266676
1.76 -0.257109
1.77 -0.245342
1.78 -0.231504
1.79 -0.216087
1.8 -0.199437
1.81 -0.181939
1.82 -0.164
1.83 -0.146038
1.84 -0.128524
1.85 -0.111879
1.86 -0.0964278
1.87 -0.0824628
1.88 -0.0702159
1.89 -0.0598513
1.9 -0.0514905
1.91 -0.0453181
1.92 -0.0410548
1.93 -0.0385563
1.94 -0.0376179
1.95 -0.0379834
1.96 -0.0393567
1.97 -0.0414373
1.98 -0.0438272
1.99 -0.0461635
2 -0.0481346
2.01 -0.0494622
2.02 -0.0499124
2.03 -0.0493021
2.04 -0.0473811
2.05 -0.0442448
2.06 -0.0399366
2.07 -0.0345697
2.08 -0.0283236
2.09 -0.0214376
2.1 -0.0142023
2.11 -0.00700499
2.12 -0.000227747
2.13 0.00575559
2.14 0.0105756
2.15 0.0138813
2.16 0.0153539
2.17 0.0144641
2.18 0.0111995
2.19 0.00544209
2.2 -0.00286939
2.21 -0.0137201
2.22 -0.0270186
2.23 -0.0426913
2.24 -0.0605113
2.25 -0.0800036
2.26 -0.100804
2.27 -0.122512
2.28 -0.144699
2.29 -0.166927
2.3 -0.18868
2.31 -0.209527
2.32 -0.2291
2.33 -0.247063
2.34 -0.263138
2.35 -0.277108
2.36 -0.288744
2.37 -0.297857
2.38 -0.304649
2.39 -0.309204
2.4 -0.31167
2.41 -0.312254
2.42 -0.311208
2.43 -0.308737
2.44 -0.305283
2.45 -0.30122
2.46 -0.296887
2.47 -0.292608
2.48 -0.288687
2.49 -0.285416
2.5 -0.28311
2.51 -0.281877
2.52 -0.281835
2.53 -0.283047
2.54 -0.285523
2.55 -0.289221
2.56 -0.294128
2.57 -0.300044
2.58 -0.306747
2.59 -0.314034
2.6 -0.321685
2.61 -0.329473
2.62 -0.337167
2.63 -0.344496
2.64 -0.351279
2.65 -0.357349
2.66 -0.362566
2.67 -0.366828
2.68 -0.370066
2.69 -0.372183
2.7 -0.373205
2.71 -0.373236
2.72 -0.372356
2.73 -0.370667
2.74 -0.368293
2.75 -0.36537
2.76 -0.362011
2.77 -0.358422
2.78 -0.354739
2.79 -0.351089
2.8 -0.347583
2.81 -0.34431
2.82 -0.341361
2.83 -0.338786
2.84 -0.336583
2.85 -0.334744
2.86 -0.333243
2.87 -0.332034
2.88 -0.331058
2.89 -0.330251
2.9 -0.329508
2.91 -0.328747
2.92 -0.327883
2.93 -0.326839
2.94 -0.325543
2.95 -0.323917
2.96 -0.321889
2.97 -0.319443
2.98 -0.31655
2.99 -0.313189
3 -0.309345
3.01 -0.305009
3.02 -0.300125
3.03 -0.29472
3.04 -0.288792
3.05 -0.28232
3.06 -0.275274
3.07 -0.267615
3.08 -0.259266
3.09 -0.250113
3.1 -0.240135
3.11 -0.22924
3.12 -0.217333
3.13 -0.204311
3.14 -0.190072
3.15 -0.174394
3.16 -0.157246
3.17 -0.138596
3.18 -0.118385
3.19 -0.0965783
3.2 -0.0731682
3.21 -0.0481438
3.22 -0.0214544
3.23 0.00665163
3.24 0.0360436
3.25 0.0665573
3.26 0.0979971
3.27 0.130139
3.28 0.162745
3.29 0.195493
3.3 0.228076
3.31 0.2602
3.32 0.291568
3.33 0.32189
3.34 0.350871
3.35 0.378064
3.36 0.403385
3.37 0.42663
3.38 0.447629
3.39 0.466244
3.4 0.482376
3.41 0.495799
3.42 0.506512
3.43 0.514671
3.44 0.520328
3.45 0.523562
3.46 0.52448
3.47 0.523206
3.48 0.519667
3.49 0.514265
3.5 0.507169
3.51 0.498541
3.52 0.488546
3.53 0.477342
3.54 0.465031
3.55 0.451761
3.56 0.437727
3.57 0.423041
3.58 0.40781
3.59 0.392124
3.6 0.376071
3.61 0.359704
3.62 0.343131
3.63 0.326425
3.64 0.309657
3.65 0.2929
3.66 0.276233
3.67 0.259747
3.68 0.243558
3.69 0.22775
3.7 0.212428
3.71 0.197706
3.72 0.183701
3.73 0.170536
3.74 0.158432
3.75 0.14746
3.76 0.137713
3.77 0.1293
3.78 0.122323
3.79 0.116869
3.8 0.113061
3.81 0.11106
3.82 0.110761
3.83 0.112179
3.84 0.115315
3.85 0.120146
3.86 0.126635
3.87 0.134851
3.88 0.144633
3.89 0.15584
3.9 0.168369
3.91 0.182113
3.92 0.196954
3.93 0.212789
3.94 0.229547
3.95 0.24701
3.96 0.265055
3.97 0.283561
3.98 0.302413
3.99 0.321496
4 0.340701
4.01 0.359904
4.02 0.378999
4.03 0.397884
4.04 0.416463
4.05 0.434638
4.06 0.452307
4.07 0.469302
4.08 0.485581
4.09 0.501047
4.1 0.5156
4.11 0.529143
4.12 0.541579
4.13 0.552734
4.14 0.562508
4.15 0.570884
4.16 0.577785
4.17 0.583143
4.18 0.586901
4.19 0.589012
4.2 0.589252
4.21 0.58779
4.22 0.584633
4.23 0.5798
4.24 0.573323
4.25 0.565249
4.26 0.555568
4.27 0.544337
4.28 0.531742
4.29 0.517876
4.3 0.502833
4.31 0.48671
4.32 0.469601
4.33 0.451517
4.34 0.43263
4.35 0.413028
4.36 0.392777
4.37 0.371935
4.38 0.350545
4.39 0.328624
4.4 0.306179
4.41 0.283263
4.42 0.259884
4.43 0.236047
4.44 0.211753
4.45 0.187007
4.46 0.161779
4.47 0.136116
4.48 0.110056
4.49 0.0836422
4.5 0.0569272
4.51 0.0299807
4.52 0.00288676
4.53 -0.0242417
4.54 -0.0512745
4.55 -0.0780805
4.56 -0.104519
4.57 -0.130442
4.58 -0.155699
4.59 -0.18006
4.6 -0.203397
4.61 -0.225603
4.62 -0.246557
4.63 -0.266154
4.64 -0.284309
4.65 -0.300934
4.66 -0.315861
4.67 -0.329238
4.68 -0.341089
4.69 -0.351463
4.7 -0.360435
4.71 -0.368101
4.72 -0.374505
4.73 -0.379826
4.74 -0.384267
4.75 -0.387983
4.76 -0.391128
4.77 -0.393855
4.78 -0.396308
4.79 -0.398622
4.8 -0.400938
4.81 -0.403349
4.82 -0.405932
4.83 -0.408736
4.84 -0.41179
4.85 -0.415114
4.86 -0.418685
4.87 -0.422447
4.88 -0.426341
4.89 -0.430294
4.9 -0.434226
4.91 -0.438047
4.92 -0.441633
4.93 -0.444908
4.94 -0.447789
4.95 -0.450202
4.96 -0.452084
4.97 -0.453386
4.98 -0.454042
4.99 -0.454019
5 -0.45336
5.01 -0.452079
5.02 -0.450205
5.03 -0.447774
5.04 -0.444834
5.05 -0.441396
5.06 -0.43756
5.07 -0.433386
5.08 -0.428925
5.09 -0.424221
5.1 -0.419309
5.11 -0.414209
5.12 -0.408927
5.13 -0.403478
5.14 -0.397852
5.15 -0.392027
5.16 -0.385974
5.17 -0.379657
5.18 -0.373007
5.19 -0.365996
5.2 -0.358597
5.21 -0.350778
5.22 -0.342516
5.23 -0.333799
5.24 -0.32462
5.25 -0.314967
5.26 -0.304922
5.27 -0.294535
5.28 -0.283877
5.29 -0.273031
5.3 -0.262092
5.31 -0.251177
5.32 -0.240415
5.33 -0.229923
5.34 -0.219818
5.35 -0.210212
5.36 -0.20121
5.37 -0.192915
5.38 -0.185484
5.39 -0.178897
5.4 -0.173191
5.41 -0.168382
5.42 -0.164461
5.43 -0.161403
5.44 -0.159209
5.45 -0.157789
5.46 -0.157016
5.47 -0.156793
5.48 -0.157015
5.49 -0.157572
5.5 -0.158352
5.51 -0.159248
5.52 -0.160138
5.53 -0.160931
5.54 -0.161551
5.55 -0.161937
5.56 -0.162041
5.57 -0.161817
5.58 -0.161249
5.59 -0.160363
5.6 -0.159176
5.61 -0.157717
5.62 -0.156022
5.63 -0.154131
5.64 -0.152073
5.65 -0.149904
5.66 -0.147656
5.67 -0.145347
5.68 -0.142987
5.69 -0.140568
5.7 -0.138062
5.71 -0.135421
5.72 -0.132592
5.73 -0.129504
5.74 -0.126074
5.75 -0.122209
5.76 -0.117812
5.77 -0.112711
5.78 -0.106849
5.79 -0.10015
5.8 -0.0925386
5.81 -0.0839559
5.82 -0.0743619
5.83 -0.0637055
5.84 -0.0519469
5.85 -0.0392137
5.86 -0.0255735
5.87 -0.0111194
5.88 0.00403099
5.89 0.019739
5.9 0.0358673
5.91 0.0521997
5.92 0.0685433
5.93 0.0847144
5.94 0.100532
5.95 0.115825
5.96 0.130416
5.97 0.144088
5.98 0.1568
5.99 0.168466
6 0.179032
6.01 0.188474
6.02 0.196797
6.03 0.203961
6.04 0.210076
6.05 0.215284
6.06 0.219698
6.07 0.223446
6.08 0.226667
6.09 0.229502
6.1 0.232086
6.11 0.234587
6.12 0.237122
6.13 0.23979
6.14 0.242665
6.15 0.245797
6.16 0.249223
6.17 0.252926
6.18 0.256846
6.19 0.260907
6.2 0.265011
6.21 0.269035
6.22 0.272841
6.23 0.276211
6.24 0.279014
6.25 0.281087
6.26 0.282272
6.27 0.282423
6.28 0.281409
6.29 0.27905
6.3 0.275235
6.31 0.269999
6.32 0.263323
6.33 0.25522
6.34 0.245734
6.35 0.234938
6.36 0.222819
6.37 0.209634
6.38 0.195547
6.39 0.180723
6.4 0.165337
6.41 0.149566
6.42 0.133586
6.43 0.11759
6.44 0.101745
6.45 0.0861893
6.46 0.0710398
6.47 0.0563904
6.48 0.04231
6.49 0.0289012
6.5 0.016134
6.51 0.00397987
6.52 -0.00759812
6.53 -0.0186567
6.54 -0.0292689
6.55 -0.0395121
6.56 -0.0494785
6.57 -0.0592954
6.58 -0.0690585
6.59 -0.0788573
6.6 -0.0887715
6.61 -0.0988675
6.62 -0.109218
6.63 -0.119843
6.64 -0.130742
6.65 -0.141902
6.66 -0.153288
6.67 -0.164848
6.68 -0.176513
6.69 -0.188184
6.7 -0.199752
6.71 -0.211108
6.72 -0.222137
6.73 -0.23272
6.74 -0.242741
6.75 -0.252032
6.76 -0.260492
6.77 -0.268059
6.78 -0.274651
6.79 -0.280198
6.8 -0.284647
6.81 -0.287944
6.82 -0.289943
6.83 -0.290756
6.84 -0.290382
6.85 -0.288829
6.86 -0.286112
6.87 -0.282253
6.88 -0.27721
6.89 -0.271022
6.9 -0.263777
6.91 -0.2555
6.92 -0.246215
6.93 -0.235939
6.94 -0.224688
6.95 -0.212363
6.96 -0.199079
6.97 -0.184842
6.98 -0.169654
6.99 -0.153516
7 -0.136432
7.01 -0.118359
7.02 -0.0992935
7.03 -0.0793164
7.04 -0.0584518
7.05 -0.0367331
7.06 -0.0142028
7.07 0.00908633
7.08 0.0331359
7.09 0.0578013
7.1 0.0829881
7.11 0.108603
7.12 0.134545
7.13 0.160709
7.14 0.186981
7.15 0.213234
7.16 0.239343
7.17 0.265198
7.18 0.290685
7.19 0.3157
7.2 0.340139
7.21 0.36384
7.22 0.386749
7.23 0.408804
7.24 0.429935
7.25 0.450077
7.26 0.469174
7.27 0.487141
7.28 0.503858
7.29 0.519382
7.3 0.533675
7.31 0.546702
7.32 0.558427
7.33 0.568815
7.34 0.577719
7.35 0.585159
7.36 0.591147
7.37 0.595646
7.38 0.598619
7.39 0.600028
7.4 0.599809
7.41 0.597789
7.42 0.5941
7.43 0.588717
7.44 0.581625
7.45 0.572816
7.46 0.562289
7.47 0.54994
7.48 0.535837
7.49 0.520099
7.5 0.502779
7.51 0.483945
7.52 0.463677
7.53 0.44206
7.54 0.419085
7.55 0.39502
7.56 0.369994
7.57 0.344147
7.58 0.317627
7.59 0.290585
7.6 0.263166
7.61 0.235553
7.62 0.207923
7.63 0.180434
7.64 0.153237
7.65 0.12648
7.66 0.100304
7.67 0.0749365
7.68 0.050436
7.69 0.026911
7.7 0.0044631
7.71 -0.016817
7.72 -0.0368504
7.73 -0.0555041
7.74 -0.0726872
7.75 -0.0884516
7.76 -0.10277
7.77 -0.115625
7.78 -0.127015
7.79 -0.136946
7.8 -0.145295
7.81 -0.15222
7.82 -0.157787
7.83 -0.162048
7.84 -0.165065
7.85 -0.16691
7.86 -0.167622
7.87 -0.167255
7.88 -0.165986
7.89 -0.163909
7.9 -0.161123
7.91 -0.157723
7.92 -0.153807
7.93 -0.149441
7.94 -0.144753
7.95 -0.139838
7.96 -0.134774
7.97 -0.12963
7.98 -0.124467
7.99 -0.119337
8 -0.114289
8.01 -0.109346
8.02 -0.104524
8.03 -0.0998293
8.04 -0.0952575
8.05 -0.0907973
8.06 -0.0864351
8.07 -0.0821393
8.08 -0.0778776
8.09 -0.0736203
8.1 -0.0693379
8.11 -0.0650035
8.12 -0.0605932
8.13 -0.0560806
8.14 -0.0514666
8.15 -0.0467523
8.16 -0.0419481
8.17 -0.0370739
8.18 -0.032159
8.19 -0.0272444
8.2 -0.0223841
8.21 -0.0176321
8.22 -0.0130468
8.23 -0.00868931
8.24 -0.00462072
8.25 -0.000901704
8.26 0.00236251
8.27 0.00516656
8.28 0.00747333
8.29 0.00925655
8.3 0.0105022
8.31 0.0112094
8.32 0.0113632
8.33 0.0109944
8.34 0.0101784
8.35 0.0089707
8.36 0.00743733
8.37 0.00565254
8.38 0.00369659
8.39 0.0016528
8.4 -0.00037786
8.41 -0.00231458
8.42 -0.00408345
8.43 -0.00561966
8.44 -0.0068699
8.45 -0.00777867
8.46 -0.00831157
8.47 -0.00848973
8.48 -0.00832791
8.49 -0.00785811
8.5 -0.00712888
8.51 -0.006204
8.52 -0.00515786
8.53 -0.0040997
8.54 -0.00312979
8.55 -0.0023506
8.56 -0.00186549
8.57 -0.00177536
8.58 -0.00219527
8.59 -0.00324972
8.6 -0.00496722
8.61 -0.00740321
8.62 -0.0105963
8.63 -0.0145669
8.64 -0.0193168
8.65 -0.0248919
8.66 -0.0312055
8.67 -0.0381778
8.68 -0.045737
8.69 -0.0537992
8.7 -0.0622708
8.71 -0.0710561
8.72 -0.0800527
8.73 -0.0891306
8.74 -0.0981911
8.75 -0.107143
8.76 -0.115904
8.77 -0.124403
8.78 -0.132558
8.79 -0.140334
8.8 -0.147722
8.81 -0.154715
8.82 -0.16132
8.83 -0.167556
8.84 -0.173451
8.85 -0.179024
8.86 -0.184355
8.87 -0.189496
8.88 -0.194498
8.89 -0.199408
8.9 -0.204269
8.91 -0.209117
8.92 -0.213981
8.93 -0.218874
8.94 -0.223795
8.95 -0.228732
8.96 -0.233662
8.97 -0.23855
8.98 -0.243334
8.99 -0.247967
9 -0.252388
9.01 -0.256536
9.02 -0.260349
9.03 -0.263767
9.04 -0.266709
9.05 -0.269119
9.06 -0.270991
9.07 -0.272305
9.08 -0.273051
9.09 -0.273234
9.1 -0.272873
9.11 -0.271951
9.12 -0.270567
9.13 -0.268787
9.14 -0.266675
9.15 -0.264303
9.16 -0.261749
9.17 -0.259086
9.18 -0.256399
9.19 -0.25376
9.2 -0.251231
9.21 -0.248859
9.22 -0.246684
9.23 -0.244728
9.24 -0.243026
9.25 -0.241554
9.26 -0.240287
9.27 -0.239193
9.28 -0.23823
9.29 -0.237346
9.3 -0.236483
9.31 -0.23557
9.32 -0.234545
9.33 -0.233348
9.34 -0.231926
9.35 -0.230233
9.36 -0.228234
9.37 -0.225873
9.38 -0.223157
9.39 -0.2201
9.4 -0.21672
9.41 -0.213045
9.42 -0.209114
9.43 -0.204976
9.44 -0.20068
9.45 -0.196309
9.46 -0.191922
9.47 -0.187581
9.48 -0.183339
9.49 -0.179242
9.5 -0.175342
9.51 -0.171656
9.52 -0.168182
9.53 -0.164907
9.54 -0.161803
9.55 -0.158826
9.56 -0.155916
9.57 -0.152986
9.58 -0.149943
9.59 -0.146688
9.6 -0.143117
9.61 -0.139121
9.62 -0.134596
9.63 -0.129393
9.64 -0.123409
9.65 -0.116599
9.66 -0.108896
9.67 -0.100251
9.68 -0.0906309
9.69 -0.0800244
9.7 -0.0683292
9.71 -0.0556911
9.72 -0.0421634
9.73 -0.0278156
9.74 -0.0127318
9.75 0.0029907
9.76 0.0192663
9.77 0.0359695
9.78 0.0529496
9.79 0.0700903
9.8 0.0872797
9.81 0.104413
9.82 0.121394
9.83 0.138108
9.84 0.154501
9.85 0.170523
9.86 0.18614
9.87 0.201326
9.88 0.216075
9.89 0.230372
9.9 0.244219
9.91 0.257673
9.92 0.270764
9.93 0.283523
9.94 0.295981
9.95 0.308165
9.96 0.320076
9.97 0.331748
9.98 0.343188
9.99 0.354389
10 0.365332
10.01 0.375987
10.02 0.386301
10.03 0.396192
10.04 0.405629
10.05 0.414544
10.06 0.422867
10.07 0.430526
10.08 0.437452
10.09 0.443512
10.1 0.44868
10.11 0.452942
10.12 0.456268
10.13 0.458643
10.14 0.460069
10.15 0.460546
10.16 0.460045
10.17 0.458714
10.18 0.456624
10.19 0.453862
10.2 0.450524
10.21 0.446716
10.22 0.442535
10.23 0.438122
10.24 0.433609
10.25 0.429106
10.26 0.424719
10.27 0.42054
10.28 0.416654
10.29 0.413171
10.3 0.410103
10.31 0.407477
10.32 0.405302
10.33 0.403567
10.34 0.402246
10.35 0.401312
10.36 0.400692
10.37 0.400288
10.38 0.400011
10.39 0.399766
10.4 0.399452
10.41 0.398963
10.42 0.398152
10.43 0.39694
10.44 0.395231
10.45 0.392939
10.46 0.389985
10.47 0.386303
10.48 0.381796
10.49 0.376402
10.5 0.370147
10.51 0.363018
10.52 0.355014
10.53 0.346143
10.54 0.336426
10.55 0.325812
10.56 0.314414
10.57 0.302289
10.58 0.289488
10.59 0.276063
10.6 0.262069
10.61 0.247546
10.62 0.232539
10.63 0.217144
10.64 0.201416
10.65 0.185407
10.66 0.169166
10.67 0.152743
10.68 0.136175
10.69 0.119519
10.7 0.102819
10.71 0.0861143
10.72 0.0694414
10.73 0.052835
10.74 0.0363312
10.75 0.0199727
10.76 0.00377742
10.77 -0.0122296
10.78 -0.0280264
10.79 -0.043594
10.8 -0.0589172
10.81 -0.0739636
10.82 -0.0887368
10.83 -0.103245
10.84 -0.117491
10.85 -0.131483
10.86 -0.145233
10.87 -0.158753
10.88 -0.172049
10.89 -0.185166
10.9 -0.198129
10.91 -0.210965
10.92 -0.223699
10.93 -0.236355
10.94 -0.248953
10.95 -0.261513
10.96 -0.27405
10.97 -0.286569
10.98 -0.299068
10.99 -0.311538
11 -0.323961
11.01 -0.336299
11.02 -0.348522
11.03 -0.360586
11.04 -0.372439
11.05 -0.384024
11.06 -0.395279
11.07 -0.406112
11.08 -0.416442
11.09 -0.426227
11.1 -0.435398
11.11 -0.443894
11.12 -0.451655
11.13 -0.458631
11.14 -0.46468
11.15 -0.469852
11.16 -0.474127
11.17 -0.477493
11.18 -0.479944
11.19 -0.481487
11.2 -0.482096
11.21 -0.481776
11.22 -0.480624
11.23 -0.478677
11.24 -0.475976
11.25 -0.472566
11.26 -0.468491
11.27 -0.463739
11.28 -0.458408
11.29 -0.452545
11.3 -0.446184
11.31 -0.439352
11.32 -0.432069
11.33 -0.424337
11.34 -0.416141
11.35 -0.40752
11.36 -0.398467
11.37 -0.388972
11.38 -0.379024
11.39 -0.368609
11.4 -0.357666
11.41 -0.346209
11.42 -0.334243
11.43 -0.321761
11.44 -0.308762
11.45 -0.295252
11.46 -0.281234
11.47 -0.266701
11.48 -0.251732
11.49 -0.236367
11.5 -0.220657
11.51 -0.204659
11.52 -0.188435
11.53 -0.17205
11.54 -0.155593
11.55 -0.139148
11.56 -0.122793
11.57 -0.106606
11.58 -0.0906619
11.59 -0.0750381
11.6 -0.0598442
11.61 -0.0451053
11.62 -0.0308735
11.63 -0.017193
11.64 -0.0040997
11.65 0.00837891
11.66 0.0201812
11.67 0.0313054
11.68 0.0417827
11.69 0.0516184
11.7 0.0608236
11.71 0.0694144
11.72 0.0774095
11.73 0.08477
11.74 0.0915888
11.75 0.0978916
11.76 0.103704
11.77 0.109051
11.78 0.113955
11.79 0.118418
11.8 0.122459
11.81 0.126121
11.82 0.129421
11.83 0.132373
11.84 0.134989
11.85 0.137281
11.86 0.139227
11.87 0.140869
11.88 0.142222
11.89 0.143293
11.9 0.144095
11.91 0.144637
11.92 0.144917
11.93 0.14494
11.94 0.144731
11.95 0.144296
11.96 0.143638
11.97 0.142758
11.98 0.141652
11.99 0.140288
12 0.138668
12.01 0.136778
12.02 0.134589
12.03 0.132072
12.04 0.129186
12.05 0.125875
12.06 0.122057
12.07 0.117715
12.08 0.112794
12.09 0.107236
12.1 0.100985
12.11 0.0939875
12.12 0.0861202
12.13 0.0773787
12.14 0.0677545
12.15 0.0572241
12.16 0.0457756
12.17 0.0334104
