# xPDFsuite Configuration #
[PDF]
wavelength = 0.1
dataformat = QA
inputfile = BiMsol6_insitu_700 C-00406.xy
backgroundfile = Quartz2mm-dist500-00000.xy
mode = xray
bgscale = 0.0042
composition = Bi2Fe4O9
outputtype = gr
qmaxinst = 24.998449118
qmin = 0.1
qmax = 21.4986662415
rmax = 80.0
rmin = 0.0
rstep = 0.01
rpoly = 0.9

[Misc]
inputdir = C:/Data/Seafile/CPH/Beamtime/Desy Oct 20/In situ data/Processed/BiMsol6/PDF
savedir = C:/Data/Seafile/CPH/Beamtime/Desy Oct 20/In situ data/PDF/BiMsol6
backgroundfilefull = C:/Data/Seafile/CPH/Beamtime/Desy Oct 20/In situ data/Processed/Standard_Empty_Cap/Quartz2mm-dist500-00000.xy

#### start data
#S 1
#L r($\AA$)  G($\AA^{-2}$)
0 0
0.01 0.00663819
0.02 0.0129031
0.03 0.0184751
0.04 0.0230674
0.05 0.0264393
0.06 0.028407
0.07 0.0287694
0.08 0.0274674
0.09 0.0246483
0.1 0.0204331
0.11 0.0150095
0.12 0.00862431
0.13 0.00157197
0.14 -0.00581696
0.15 -0.0131247
0.16 -0.019999
0.17 -0.0261092
0.18 -0.0311588
0.19 -0.0348994
0.2 -0.0370764
0.21 -0.0375149
0.22 -0.0363147
0.23 -0.0335429
0.24 -0.0293473
0.25 -0.0239514
0.26 -0.0176462
0.27 -0.0107623
0.28 -0.00377797
0.29 0.00288121
0.3 0.00880177
0.31 0.0135904
0.32 0.0168929
0.33 0.0183509
0.34 0.0176129
0.35 0.0147305
0.36 0.00969903
0.37 0.00262097
0.38 -0.0062922
0.39 -0.0167231
0.4 -0.0283043
0.41 -0.0403995
0.42 -0.0523834
0.43 -0.0636205
0.44 -0.0734522
0.45 -0.081222
0.46 -0.0862352
0.47 -0.0875971
0.48 -0.0851087
0.49 -0.078404
0.5 -0.0672425
0.51 -0.051524
0.52 -0.0312982
0.53 -0.00648617
0.54 0.0223513
0.55 0.0544718
0.56 0.0891871
0.57 0.125691
0.58 0.163081
0.59 0.200374
0.6 0.236321
0.61 0.269928
0.62 0.300205
0.63 0.326221
0.64 0.347138
0.65 0.362238
0.66 0.370523
0.67 0.371584
0.68 0.365598
0.69 0.352566
0.7 0.332681
0.71 0.306319
0.72 0.27403
0.73 0.23602
0.74 0.193819
0.75 0.148421
0.76 0.100874
0.77 0.0522707
0.78 0.00370911
0.79 -0.0436261
0.8 -0.0885436
0.81 -0.130229
0.82 -0.167901
0.83 -0.200922
0.84 -0.228808
0.85 -0.251245
0.86 -0.267514
0.87 -0.278183
0.88 -0.283566
0.89 -0.284051
0.9 -0.280157
0.91 -0.272512
0.92 -0.261744
0.93 -0.24865
0.94 -0.234262
0.95 -0.219376
0.96 -0.204757
0.97 -0.19111
0.98 -0.17906
0.99 -0.16937
1 -0.162337
1.01 -0.158165
1.02 -0.156983
1.03 -0.158795
1.04 -0.163488
1.05 -0.170901
1.06 -0.180802
1.07 -0.192544
1.08 -0.205658
1.09 -0.219643
1.1 -0.23399
1.11 -0.2482
1.12 -0.26172
1.13 -0.274114
1.14 -0.285071
1.15 -0.294334
1.16 -0.301731
1.17 -0.307182
1.18 -0.310659
1.19 -0.312124
1.2 -0.311957
1.21 -0.310407
1.22 -0.307773
1.23 -0.304384
1.24 -0.300589
1.25 -0.296754
1.26 -0.293254
1.27 -0.290375
1.28 -0.288355
1.29 -0.287373
1.3 -0.28754
1.31 -0.288906
1.32 -0.291548
1.33 -0.295218
1.34 -0.299734
1.35 -0.304865
1.36 -0.310339
1.37 -0.315854
1.38 -0.321063
1.39 -0.325607
1.4 -0.32922
1.41 -0.331652
1.42 -0.332699
1.43 -0.33222
1.44 -0.330135
1.45 -0.326267
1.46 -0.320875
1.47 -0.314126
1.48 -0.306242
1.49 -0.297503
1.5 -0.288235
1.51 -0.278807
1.52 -0.269657
1.53 -0.261169
1.54 -0.253702
1.55 -0.247579
1.56 -0.243077
1.57 -0.240411
1.58 -0.239933
1.59 -0.241531
1.6 -0.245132
1.61 -0.250611
1.62 -0.25776
1.63 -0.266299
1.64 -0.275904
1.65 -0.286139
1.66 -0.296479
1.67 -0.30646
1.68 -0.315614
1.69 -0.323493
1.7 -0.329681
1.71 -0.3336
1.72 -0.335054
1.73 -0.333898
1.74 -0.330017
1.75 -0.323386
1.76 -0.314077
1.77 -0.302196
1.78 -0.287886
1.79 -0.271724
1.8 -0.25412
1.81 -0.235533
1.82 -0.216456
1.83 -0.197395
1.84 -0.178932
1.85 -0.161587
1.86 -0.145767
1.87 -0.131841
1.88 -0.12011
1.89 -0.110792
1.9 -0.104055
1.91 -0.100154
1.92 -0.0987466
1.93 -0.0996635
1.94 -0.102655
1.95 -0.1074
1.96 -0.113521
1.97 -0.120629
1.98 -0.128192
1.99 -0.135709
2 -0.142739
2.01 -0.148869
2.02 -0.153731
2.03 -0.157013
2.04 -0.158259
2.05 -0.157521
2.06 -0.154751
2.07 -0.149988
2.08 -0.143358
2.09 -0.135066
2.1 -0.125332
2.11 -0.114553
2.12 -0.10321
2.13 -0.0917307
2.14 -0.0805591
2.15 -0.0701352
2.16 -0.0608806
2.17 -0.053391
2.18 -0.0478692
2.19 -0.0445639
2.2 -0.0436631
2.21 -0.0452768
2.22 -0.0494334
2.23 -0.0561859
2.24 -0.0654316
2.25 -0.0767672
2.26 -0.0899038
2.27 -0.104501
2.28 -0.120178
2.29 -0.13653
2.3 -0.153125
2.31 -0.169486
2.32 -0.185223
2.33 -0.199985
2.34 -0.213466
2.35 -0.225418
2.36 -0.235591
2.37 -0.243772
2.38 -0.250078
2.39 -0.254549
2.4 -0.257292
2.41 -0.258471
2.42 -0.258304
2.43 -0.256981
2.44 -0.254891
2.45 -0.252378
2.46 -0.249754
2.47 -0.247324
2.48 -0.245372
2.49 -0.244174
2.5 -0.244035
2.51 -0.245036
2.52 -0.24728
2.53 -0.250815
2.54 -0.255636
2.55 -0.261682
2.56 -0.268922
2.57 -0.277136
2.58 -0.286086
2.59 -0.295552
2.6 -0.305298
2.61 -0.315083
2.62 -0.32466
2.63 -0.333737
2.64 -0.342139
2.65 -0.349693
2.66 -0.356259
2.67 -0.361736
2.68 -0.36606
2.69 -0.369131
2.7 -0.370985
2.71 -0.371739
2.72 -0.371479
2.73 -0.370309
2.74 -0.368354
2.75 -0.365745
2.76 -0.362569
2.77 -0.359024
2.78 -0.355222
2.79 -0.351253
2.8 -0.347186
2.81 -0.34306
2.82 -0.338883
2.83 -0.334629
2.84 -0.330246
2.85 -0.325654
2.86 -0.320752
2.87 -0.315422
2.88 -0.309534
2.89 -0.302869
2.9 -0.295349
2.91 -0.286862
2.92 -0.277305
2.93 -0.266597
2.94 -0.254683
2.95 -0.241487
2.96 -0.226984
2.97 -0.211314
2.98 -0.19456
2.99 -0.176834
3 -0.158277
3.01 -0.139049
3.02 -0.119304
3.03 -0.0992919
3.04 -0.0792192
3.05 -0.0592788
3.06 -0.0396536
3.07 -0.0205106
3.08 -0.00201943
3.09 0.0156485
3.1 0.0324678
3.11 0.0483897
3.12 0.0633988
3.13 0.0775123
3.14 0.090778
3.15 0.103215
3.16 0.11498
3.17 0.126221
3.18 0.137071
3.19 0.147672
3.2 0.158161
3.21 0.168675
3.22 0.179357
3.23 0.190298
3.24 0.201569
3.25 0.213215
3.26 0.22525
3.27 0.237661
3.28 0.25042
3.29 0.263429
3.3 0.276565
3.31 0.2897
3.32 0.302687
3.33 0.315369
3.34 0.327574
3.35 0.339057
3.36 0.349713
3.37 0.3594
3.38 0.367992
3.39 0.375385
3.4 0.381502
3.41 0.386211
3.42 0.389508
3.43 0.39149
3.44 0.392212
3.45 0.391757
3.46 0.390238
3.47 0.387789
3.48 0.384496
3.49 0.380638
3.5 0.376399
3.51 0.371966
3.52 0.367526
3.53 0.363261
3.54 0.359368
3.55 0.356033
3.56 0.353366
3.57 0.351482
3.58 0.350473
3.59 0.350409
3.6 0.351335
3.61 0.353383
3.62 0.356455
3.63 0.360517
3.64 0.365528
3.65 0.371435
3.66 0.37817
3.67 0.385685
3.68 0.393909
3.69 0.4027
3.7 0.41197
3.71 0.421632
3.72 0.431602
3.73 0.441798
3.74 0.452151
3.75 0.462568
3.76 0.472979
3.77 0.483319
3.78 0.493526
3.79 0.50354
3.8 0.513292
3.81 0.522696
3.82 0.531712
3.83 0.540278
3.84 0.548325
3.85 0.555782
3.86 0.562576
3.87 0.56856
3.88 0.57368
3.89 0.577877
3.9 0.581067
3.91 0.583168
3.92 0.584097
3.93 0.583751
3.94 0.581941
3.95 0.578726
3.96 0.57405
3.97 0.567865
3.98 0.560132
3.99 0.550827
4 0.539823
4.01 0.52716
4.02 0.512928
4.03 0.497154
4.04 0.479879
4.05 0.461155
4.06 0.441037
4.07 0.419475
4.08 0.396707
4.09 0.372828
4.1 0.34794
4.11 0.322153
4.12 0.295583
4.13 0.268315
4.14 0.240496
4.15 0.212289
4.16 0.183823
4.17 0.155228
4.18 0.126632
4.19 0.0981655
4.2 0.0699972
4.21 0.0422348
4.22 0.0149962
4.23 -0.011605
4.24 -0.0374617
4.25 -0.0624745
4.26 -0.0865031
4.27 -0.109438
4.28 -0.131279
4.29 -0.151973
4.3 -0.171482
4.31 -0.189782
4.32 -0.206866
4.33 -0.222617
4.34 -0.23717
4.35 -0.250583
4.36 -0.262912
4.37 -0.274223
4.38 -0.284597
4.39 -0.294091
4.4 -0.302784
4.41 -0.310841
4.42 -0.318363
4.43 -0.325449
4.44 -0.332193
4.45 -0.338684
4.46 -0.344987
4.47 -0.351188
4.48 -0.357338
4.49 -0.363471
4.5 -0.369604
4.51 -0.375739
4.52 -0.381859
4.53 -0.387926
4.54 -0.393895
4.55 -0.39971
4.56 -0.405304
4.57 -0.410606
4.58 -0.415542
4.59 -0.419997
4.6 -0.423913
4.61 -0.427247
4.62 -0.429947
4.63 -0.431978
4.64 -0.433317
4.65 -0.433948
4.66 -0.433827
4.67 -0.433059
4.68 -0.431696
4.69 -0.429803
4.7 -0.427462
4.71 -0.424765
4.72 -0.421804
4.73 -0.41871
4.74 -0.415605
4.75 -0.4126
4.76 -0.409798
4.77 -0.407299
4.78 -0.40519
4.79 -0.403603
4.8 -0.402547
4.81 -0.402059
4.82 -0.40216
4.83 -0.402851
4.84 -0.404118
4.85 -0.405961
4.86 -0.408326
4.87 -0.411121
4.88 -0.414279
4.89 -0.417724
4.9 -0.421379
4.91 -0.425163
4.92 -0.428999
4.93 -0.432801
4.94 -0.436505
4.95 -0.440056
4.96 -0.443406
4.97 -0.446519
4.98 -0.449355
4.99 -0.451885
5 -0.45412
5.01 -0.456057
5.02 -0.457695
5.03 -0.459036
5.04 -0.460079
5.05 -0.46079
5.06 -0.46118
5.07 -0.461236
5.08 -0.460925
5.09 -0.460206
5.1 -0.459025
5.11 -0.457294
5.12 -0.454896
5.13 -0.451782
5.14 -0.447853
5.15 -0.443004
5.16 -0.437127
5.17 -0.43011
5.18 -0.421728
5.19 -0.411943
5.2 -0.400703
5.21 -0.38793
5.22 -0.373563
5.23 -0.35756
5.24 -0.339853
5.25 -0.320328
5.26 -0.29916
5.27 -0.276391
5.28 -0.252081
5.29 -0.22631
5.3 -0.19917
5.31 -0.170682
5.32 -0.141026
5.33 -0.110378
5.34 -0.0788668
5.35 -0.0466234
5.36 -0.0137752
5.37 0.0195588
5.38 0.0532798
5.39 0.0872327
5.4 0.121317
5.41 0.155442
5.42 0.189522
5.43 0.22348
5.44 0.257223
5.45 0.290672
5.46 0.323766
5.47 0.356428
5.48 0.388576
5.49 0.420119
5.5 0.450955
5.51 0.480861
5.52 0.50979
5.53 0.537596
5.54 0.564119
5.55 0.589188
5.56 0.61262
5.57 0.634112
5.58 0.653427
5.59 0.670484
5.6 0.685096
5.61 0.697083
5.62 0.706282
5.63 0.712551
5.64 0.715431
5.65 0.715135
5.66 0.711642
5.67 0.704942
5.68 0.695062
5.69 0.68207
5.7 0.665943
5.71 0.646767
5.72 0.624945
5.73 0.600692
5.74 0.57425
5.75 0.545878
5.76 0.515854
5.77 0.484356
5.78 0.451809
5.79 0.418519
5.8 0.384754
5.81 0.350768
5.82 0.316789
5.83 0.283037
5.84 0.24973
5.85 0.216986
5.86 0.184917
5.87 0.153601
5.88 0.123094
5.89 0.0934246
5.9 0.0646735
5.91 0.0367837
5.92 0.00970779
5.93 -0.0165799
5.94 -0.0421047
5.95 -0.0668864
5.96 -0.0909189
5.97 -0.114142
5.98 -0.136599
5.99 -0.158243
6 -0.17901
6.01 -0.198811
6.02 -0.217541
6.03 -0.234977
6.04 -0.251002
6.05 -0.265518
6.06 -0.278376
6.07 -0.289429
6.08 -0.298536
6.09 -0.305548
6.1 -0.310142
6.11 -0.312466
6.12 -0.312477
6.13 -0.310165
6.14 -0.305556
6.15 -0.298714
6.16 -0.289612
6.17 -0.278436
6.18 -0.265479
6.19 -0.250948
6.2 -0.235076
6.21 -0.218114
6.22 -0.200325
6.23 -0.181944
6.24 -0.163326
6.25 -0.144728
6.26 -0.126386
6.27 -0.108515
6.28 -0.0913033
6.29 -0.0749534
6.3 -0.0596064
6.31 -0.0452781
6.32 -0.0319987
6.33 -0.0197603
6.34 -0.00851893
6.35 0.00180298
6.36 0.0112404
6.37 0.0200188
6.38 0.0283018
6.39 0.0362546
6.4 0.0440478
6.41 0.0518505
6.42 0.0598389
6.43 0.0681929
6.44 0.0770244
6.45 0.0864382
6.46 0.0965142
6.47 0.107306
6.48 0.11884
6.49 0.131182
6.5 0.144247
6.51 0.157962
6.52 0.172253
6.53 0.187032
6.54 0.2022
6.55 0.217655
6.56 0.233286
6.57 0.248968
6.58 0.264606
6.59 0.280117
6.6 0.295434
6.61 0.310504
6.62 0.325269
6.63 0.339726
6.64 0.353891
6.65 0.367783
6.66 0.381437
6.67 0.394895
6.68 0.408203
6.69 0.421411
6.7 0.43458
6.71 0.447748
6.72 0.460946
6.73 0.474184
6.74 0.48746
6.75 0.500745
6.76 0.513981
6.77 0.527092
6.78 0.539978
6.79 0.552521
6.8 0.564579
6.81 0.57599
6.82 0.586481
6.83 0.595944
6.84 0.604195
6.85 0.61105
6.86 0.616331
6.87 0.61987
6.88 0.621387
6.89 0.620741
6.9 0.617932
6.91 0.612876
6.92 0.605519
6.93 0.595831
6.94 0.583812
6.95 0.569232
6.96 0.552412
6.97 0.53344
6.98 0.51242
6.99 0.489475
7 0.46474
7.01 0.438287
7.02 0.41027
7.03 0.380955
7.04 0.350499
7.05 0.319056
7.06 0.286776
7.07 0.253798
7.08 0.22021
7.09 0.186196
7.1 0.151871
7.11 0.117335
7.12 0.0826782
7.13 0.0479835
7.14 0.013331
7.15 -0.0211943
7.16 -0.0555288
7.17 -0.0896059
7.18 -0.123358
7.19 -0.156717
7.2 -0.189609
7.21 -0.221901
7.22 -0.253539
7.23 -0.284451
7.24 -0.314549
7.25 -0.343741
7.26 -0.371935
7.27 -0.399006
7.28 -0.424782
7.29 -0.449276
7.3 -0.472413
7.31 -0.494124
7.32 -0.514353
7.33 -0.533053
7.34 -0.550066
7.35 -0.565445
7.36 -0.579249
7.37 -0.591495
7.38 -0.602215
7.39 -0.611455
7.4 -0.61925
7.41 -0.625569
7.42 -0.630635
7.43 -0.634534
7.44 -0.637361
7.45 -0.639208
7.46 -0.64017
7.47 -0.640289
7.48 -0.639681
7.49 -0.638462
7.5 -0.6367
7.51 -0.634457
7.52 -0.631781
7.53 -0.62871
7.54 -0.625235
7.55 -0.621413
7.56 -0.61725
7.57 -0.612742
7.58 -0.607878
7.59 -0.60264
7.6 -0.59698
7.61 -0.59087
7.62 -0.584305
7.63 -0.577259
7.64 -0.569705
7.65 -0.561622
7.66 -0.552991
7.67 -0.543734
7.68 -0.533903
7.69 -0.523501
7.7 -0.512532
7.71 -0.50101
7.72 -0.488953
7.73 -0.476362
7.74 -0.463264
7.75 -0.449732
7.76 -0.435808
7.77 -0.421541
7.78 -0.406982
7.79 -0.392188
7.8 -0.377208
7.81 -0.362126
7.82 -0.347013
7.83 -0.331937
7.84 -0.316969
7.85 -0.302184
7.86 -0.287667
7.87 -0.273519
7.88 -0.259792
7.89 -0.246563
7.9 -0.233904
7.91 -0.221885
7.92 -0.210574
7.93 -0.200108
7.94 -0.190504
7.95 -0.181788
7.96 -0.174004
7.97 -0.167183
7.98 -0.161349
7.99 -0.156542
8 -0.15283
8.01 -0.150108
8.02 -0.148356
8.03 -0.147539
8.04 -0.147616
8.05 -0.148535
8.06 -0.15029
8.07 -0.152773
8.08 -0.15588
8.09 -0.159534
8.1 -0.163656
8.11 -0.168166
8.12 -0.172991
8.13 -0.178067
8.14 -0.183296
8.15 -0.188614
8.16 -0.193965
8.17 -0.1993
8.18 -0.204576
8.19 -0.209749
8.2 -0.214787
8.21 -0.219672
8.22 -0.224384
8.23 -0.228903
8.24 -0.233212
8.25 -0.23729
8.26 -0.241083
8.27 -0.244587
8.28 -0.247765
8.29 -0.250572
8.3 -0.252952
8.31 -0.254841
8.32 -0.256129
8.33 -0.256715
8.34 -0.256539
8.35 -0.255501
8.36 -0.253495
8.37 -0.250412
8.38 -0.246145
8.39 -0.240434
8.4 -0.233303
8.41 -0.224673
8.42 -0.214466
8.43 -0.202621
8.44 -0.189091
8.45 -0.173773
8.46 -0.156616
8.47 -0.137762
8.48 -0.117254
8.49 -0.0951521
8.5 -0.0715368
8.51 -0.0465065
8.52 -0.0200593
8.53 0.00755911
8.54 0.0361869
8.55 0.0656809
8.56 0.0958963
8.57 0.126689
8.58 0.157932
8.59 0.18949
8.6 0.221211
8.61 0.252992
8.62 0.28474
8.63 0.316379
8.64 0.347849
8.65 0.379079
8.66 0.410046
8.67 0.440736
8.68 0.471137
8.69 0.50124
8.7 0.53104
8.71 0.560521
8.72 0.589645
8.73 0.618419
8.74 0.646805
8.75 0.674754
8.76 0.702198
8.77 0.729052
8.78 0.755149
8.79 0.780373
8.8 0.804606
8.81 0.827688
8.82 0.849444
8.83 0.869691
8.84 0.888214
8.85 0.904618
8.86 0.918896
8.87 0.930863
8.88 0.940346
8.89 0.947188
8.9 0.951252
8.91 0.952228
8.92 0.950055
8.93 0.944832
8.94 0.936534
8.95 0.925166
8.96 0.910763
8.97 0.893384
8.98 0.872801
8.99 0.849476
9 0.82355
9.01 0.79518
9.02 0.764535
9.03 0.731795
9.04 0.697053
9.05 0.660511
9.06 0.622472
9.07 0.583119
9.08 0.542627
9.09 0.501163
9.1 0.458885
9.11 0.415885
9.12 0.372381
9.13 0.328507
9.14 0.284386
9.15 0.240137
9.16 0.195873
9.17 0.151719
9.18 0.107815
9.19 0.0642744
9.2 0.021225
9.21 -0.0211977
9.22 -0.0628492
9.23 -0.103576
9.24 -0.143095
9.25 -0.181294
9.26 -0.218018
9.27 -0.253082
9.28 -0.286301
9.29 -0.317488
9.3 -0.346389
9.31 -0.37268
9.32 -0.396394
9.33 -0.417392
9.34 -0.435551
9.35 -0.450771
9.36 -0.462978
9.37 -0.471861
9.38 -0.477564
9.39 -0.480202
9.4 -0.479819
9.41 -0.476487
9.42 -0.470301
9.43 -0.461329
9.44 -0.449534
9.45 -0.435337
9.46 -0.418913
9.47 -0.400441
9.48 -0.380107
9.49 -0.358095
9.5 -0.334492
9.51 -0.309543
9.52 -0.283476
9.53 -0.256443
9.54 -0.228587
9.55 -0.200033
9.56 -0.170891
9.57 -0.141227
9.58 -0.111187
9.59 -0.0808509
9.6 -0.0502891
9.61 -0.0195694
9.62 0.011242
9.63 0.0420744
9.64 0.0728444
9.65 0.103471
9.66 0.133867
9.67 0.163931
9.68 0.193556
9.69 0.222618
9.7 0.250892
9.71 0.2783
9.72 0.304691
9.73 0.329912
9.74 0.353804
9.75 0.376213
9.76 0.396896
9.77 0.415667
9.78 0.432509
9.79 0.447315
9.8 0.459994
9.81 0.470482
9.82 0.478736
9.83 0.484507
9.84 0.488019
9.85 0.489345
9.86 0.488555
9.87 0.485742
9.88 0.481023
9.89 0.474464
9.9 0.466178
9.91 0.45646
9.92 0.445478
9.93 0.4334
9.94 0.420393
9.95 0.406615
9.96 0.392172
9.97 0.377255
9.98 0.361997
9.99 0.346494
10 0.330825
10.01 0.315051
10.02 0.299211
10.03 0.283329
10.04 0.267411
10.05 0.251449
10.06 0.235423
10.07 0.219306
10.08 0.203069
10.09 0.186664
10.1 0.170069
10.11 0.153268
10.12 0.136248
10.13 0.11901
10.14 0.101564
10.15 0.0839323
10.16 0.0661485
10.17 0.0482851
10.18 0.0304093
10.19 0.0125984
10.2 -0.0050618
10.21 -0.0224799
10.22 -0.0395304
10.23 -0.0561142
10.24 -0.0721569
10.25 -0.0875749
10.26 -0.102294
10.27 -0.116251
10.28 -0.129392
10.29 -0.141593
10.3 -0.152932
10.31 -0.163413
10.32 -0.173056
10.33 -0.181897
10.34 -0.189986
10.35 -0.197351
10.36 -0.204078
10.37 -0.210292
10.38 -0.216079
10.39 -0.221531
10.4 -0.226736
10.41 -0.231781
10.42 -0.236746
10.43 -0.241718
10.44 -0.246759
10.45 -0.251917
10.46 -0.257232
10.47 -0.262729
10.48 -0.268434
10.49 -0.274352
10.5 -0.28046
10.51 -0.286742
10.52 -0.293172
10.53 -0.299721
10.54 -0.306355
10.55 -0.313044
10.56 -0.319744
10.57 -0.326424
10.58 -0.333057
10.59 -0.339621
10.6 -0.346097
10.61 -0.352472
10.62 -0.358735
10.63 -0.364896
10.64 -0.370963
10.65 -0.376947
10.66 -0.382861
10.67 -0.388722
10.68 -0.394543
10.69 -0.400346
10.7 -0.406144
10.71 -0.411947
10.72 -0.417761
10.73 -0.423586
10.74 -0.429419
10.75 -0.435248
10.76 -0.441056
10.77 -0.446821
10.78 -0.45252
10.79 -0.458125
10.8 -0.463605
10.81 -0.468916
10.82 -0.47403
10.83 -0.478924
10.84 -0.483574
10.85 -0.487958
10.86 -0.49206
10.87 -0.495864
10.88 -0.499338
10.89 -0.502512
10.9 -0.505392
10.91 -0.507988
10.92 -0.510313
10.93 -0.512383
10.94 -0.514198
10.95 -0.515782
10.96 -0.51716
10.97 -0.518342
10.98 -0.519334
10.99 -0.520135
11 -0.520736
11.01 -0.521099
11.02 -0.52122
11.03 -0.521068
11.04 -0.520604
11.05 -0.519781
11.06 -0.518549
11.07 -0.516822
11.08 -0.514531
11.09 -0.511645
11.1 -0.508108
11.11 -0.503866
11.12 -0.498869
11.13 -0.493077
11.14 -0.486363
11.15 -0.478789
11.16 -0.470353
11.17 -0.461057
11.18 -0.450918
11.19 -0.439963
11.2 -0.428197
11.21 -0.415663
11.22 -0.402475
11.23 -0.388705
11.24 -0.374428
11.25 -0.359723
11.26 -0.344672
11.27 -0.329336
11.28 -0.313826
11.29 -0.298219
11.3 -0.28258
11.31 -0.266969
11.32 -0.251436
11.33 -0.236023
11.34 -0.22077
11.35 -0.20568
11.36 -0.190758
11.37 -0.175996
11.38 -0.161379
11.39 -0.146882
11.4 -0.132479
11.41 -0.118121
11.42 -0.103765
11.43 -0.0893658
11.44 -0.0748785
11.45 -0.0602591
11.46 -0.0454604
11.47 -0.0304248
11.48 -0.0151359
11.49 0.000434127
11.5 0.0163075
11.51 0.0325006
11.52 0.0490241
11.53 0.0659086
11.54 0.0831404
11.55 0.100699
11.56 0.118575
11.57 0.136754
11.58 0.155218
11.59 0.173954
11.6 0.192959
11.61 0.212186
11.62 0.231611
11.63 0.251213
11.64 0.270969
11.65 0.290855
11.66 0.310854
11.67 0.330933
11.68 0.351063
11.69 0.371213
11.7 0.391352
11.71 0.411446
11.72 0.431456
11.73 0.45132
11.74 0.471
11.75 0.490445
11.76 0.509595
11.77 0.528389
11.78 0.54676
11.79 0.564605
11.8 0.581836
11.81 0.598404
11.82 0.614231
11.83 0.629236
11.84 0.64334
11.85 0.656461
11.86 0.668402
11.87 0.679184
11.88 0.688748
11.89 0.697029
11.9 0.703967
11.91 0.709507
11.92 0.713538
11.93 0.71597
11.94 0.716875
11.95 0.716228
11.96 0.714011
11.97 0.710209
11.98 0.704819
11.99 0.697686
12 0.688943
12.01 0.678635
12.02 0.666784
12.03 0.653419
12.04 0.638572
12.05 0.62224
12.06 0.604406
12.07 0.585247
12.08 0.564829
12.09 0.543222
12.1 0.520509
12.11 0.496777
12.12 0.472054
12.13 0.446511
12.14 0.420292
12.15 0.393521
12.16 0.366329
12.17 0.338854
12.18 0.311238
12.19 0.283647
12.2 0.256242
12.21 0.229172
12.22 0.202585
12.23 0.176627
12.24 0.151437
12.25 0.127224
12.26 0.104098
12.27 0.0821297
12.28 0.0614144
