# xPDFsuite Configuration #
[PDF]
wavelength = 0.1
dataformat = QA
inputfile = BiMsol6_insitu_700 C-00069.xy
backgroundfile = Quartz2mm-dist500-00000.xy
mode = xray
bgscale = 0.0042
composition = Bi2Fe4O9
outputtype = gr
qmaxinst = 24.998449118
qmin = 0.1
qmax = 21.4986662415
rmax = 80.0
rmin = 0.0
rstep = 0.01
rpoly = 0.9

[Misc]
inputdir = C:/Data/Seafile/CPH/Beamtime/Desy Oct 20/In situ data/Processed/BiMsol6/PDF
savedir = C:/Data/Seafile/CPH/Beamtime/Desy Oct 20/In situ data/PDF/BiMsol6
backgroundfilefull = C:/Data/Seafile/CPH/Beamtime/Desy Oct 20/In situ data/Processed/Standard_Empty_Cap/Quartz2mm-dist500-00000.xy

#### start data
#S 1
#L r($\AA$)  G($\AA^{-2}$)
0 0
0.01 0.00678777
0.02 0.0131988
0.03 0.0189105
0.04 0.0236333
0.05 0.0271236
0.06 0.0291954
0.07 0.0296444
0.08 0.0284095
0.09 0.0256379
0.1 0.0214498
0.11 0.0160331
0.12 0.00963494
0.13 0.00255069
0.14 -0.00488901
0.15 -0.0122622
0.16 -0.0192136
0.17 -0.0254091
0.18 -0.030548
0.19 -0.0343781
0.2 -0.0366393
0.21 -0.0371509
0.22 -0.036008
0.23 -0.0332728
0.24 -0.0290882
0.25 -0.0236731
0.26 -0.0173145
0.27 -0.0103355
0.28 -0.00321408
0.29 0.00362487
0.3 0.0097686
0.31 0.0148233
0.32 0.0184332
0.33 0.0202379
0.34 0.0198829
0.35 0.0174106
0.36 0.0128089
0.37 0.00617199
0.38 -0.00229837
0.39 -0.0122954
0.4 -0.0234661
0.41 -0.0351869
0.42 -0.0468447
0.43 -0.0578169
0.44 -0.0674579
0.45 -0.075124
0.46 -0.0801347
0.47 -0.0816163
0.48 -0.0793697
0.49 -0.0730374
0.5 -0.0623855
0.51 -0.0473182
0.52 -0.0278883
0.53 -0.00402723
0.54 0.0237108
0.55 0.0545949
0.56 0.0879446
0.57 0.122964
0.58 0.158762
0.59 0.194372
0.6 0.228553
0.61 0.260345
0.62 0.288775
0.63 0.312937
0.64 0.332015
0.65 0.345316
0.66 0.351872
0.67 0.351303
0.68 0.343803
0.69 0.329399
0.7 0.308304
0.71 0.280915
0.72 0.247798
0.73 0.209201
0.74 0.166644
0.75 0.121126
0.76 0.0737036
0.77 0.0254693
0.78 -0.02248
0.79 -0.0689539
0.8 -0.112768
0.81 -0.153137
0.82 -0.189297
0.83 -0.220628
0.84 -0.246671
0.85 -0.267133
0.86 -0.281317
0.87 -0.289828
0.88 -0.293012
0.89 -0.291285
0.9 -0.285195
0.91 -0.275397
0.92 -0.262546
0.93 -0.247473
0.94 -0.231222
0.95 -0.214608
0.96 -0.198407
0.97 -0.183334
0.98 -0.170021
0.99 -0.159246
1 -0.151291
1.01 -0.146347
1.02 -0.144532
1.03 -0.145834
1.04 -0.150121
1.05 -0.157212
1.06 -0.166852
1.07 -0.17836
1.08 -0.191243
1.09 -0.204974
1.1 -0.219018
1.11 -0.232853
1.12 -0.245896
1.13 -0.257696
1.14 -0.267931
1.15 -0.276336
1.16 -0.282733
1.17 -0.287041
1.18 -0.289237
1.19 -0.289282
1.2 -0.287584
1.21 -0.284412
1.22 -0.280086
1.23 -0.274964
1.24 -0.269421
1.25 -0.263856
1.26 -0.258679
1.27 -0.254203
1.28 -0.250697
1.29 -0.248365
1.3 -0.247341
1.31 -0.247694
1.32 -0.249541
1.33 -0.252619
1.34 -0.256749
1.35 -0.261698
1.36 -0.267184
1.37 -0.272892
1.38 -0.278462
1.39 -0.283507
1.4 -0.287722
1.41 -0.290823
1.42 -0.292574
1.43 -0.292795
1.44 -0.291372
1.45 -0.288079
1.46 -0.283148
1.47 -0.276719
1.48 -0.268988
1.49 -0.260216
1.5 -0.250717
1.51 -0.240842
1.52 -0.231026
1.53 -0.221677
1.54 -0.213168
1.55 -0.205844
1.56 -0.200011
1.57 -0.195917
1.58 -0.193947
1.59 -0.19404
1.6 -0.196166
1.61 -0.200243
1.62 -0.206103
1.63 -0.213506
1.64 -0.222169
1.65 -0.231699
1.66 -0.241578
1.67 -0.251354
1.68 -0.260566
1.69 -0.268762
1.7 -0.275515
1.71 -0.280244
1.72 -0.282702
1.73 -0.282699
1.74 -0.280071
1.75 -0.274742
1.76 -0.266722
1.77 -0.256052
1.78 -0.242795
1.79 -0.227467
1.8 -0.210417
1.81 -0.192045
1.82 -0.172788
1.83 -0.153105
1.84 -0.133498
1.85 -0.114473
1.86 -0.0964381
1.87 -0.0797579
1.88 -0.064738
1.89 -0.0516144
1.9 -0.0405782
1.91 -0.0318942
1.92 -0.0253231
1.93 -0.0207602
1.94 -0.0180286
1.95 -0.0168877
1.96 -0.0170449
1.97 -0.0182081
1.98 -0.0199493
1.99 -0.0218583
2 -0.0235818
2.01 -0.0247927
2.02 -0.0252042
2.03 -0.0245772
2.04 -0.022595
2.05 -0.0192982
2.06 -0.0146811
2.07 -0.00881369
2.08 -0.00184001
2.09 0.00602719
2.1 0.01453
2.11 0.0232885
2.12 0.0318979
2.13 0.039968
2.14 0.0471043
2.15 0.0529227
2.16 0.0570643
2.17 0.0589616
2.18 0.0585368
2.19 0.0556207
2.2 0.0501021
2.21 0.0419485
2.22 0.0312076
2.23 0.017905
2.24 0.00222696
2.25 -0.0153606
2.26 -0.0345079
2.27 -0.0548187
2.28 -0.0758634
2.29 -0.0971931
2.3 -0.118293
2.31 -0.138687
2.32 -0.157972
2.33 -0.175777
2.34 -0.191789
2.35 -0.205752
2.36 -0.217401
2.37 -0.226505
2.38 -0.233235
2.39 -0.237648
2.4 -0.239869
2.41 -0.240087
2.42 -0.238546
2.43 -0.235434
2.44 -0.2312
2.45 -0.22623
2.46 -0.220875
2.47 -0.215474
2.48 -0.210351
2.49 -0.205815
2.5 -0.202205
2.51 -0.199653
2.52 -0.198299
2.53 -0.198225
2.54 -0.199457
2.55 -0.201969
2.56 -0.205762
2.57 -0.210644
2.58 -0.216395
2.59 -0.222811
2.6 -0.229673
2.61 -0.23675
2.62 -0.243807
2.63 -0.250574
2.64 -0.256856
2.65 -0.262479
2.66 -0.267301
2.67 -0.271213
2.68 -0.274146
2.69 -0.276002
2.7 -0.276807
2.71 -0.276665
2.72 -0.275656
2.73 -0.273885
2.74 -0.271477
2.75 -0.268567
2.76 -0.265274
2.77 -0.261793
2.78 -0.258253
2.79 -0.254771
2.8 -0.251443
2.81 -0.248342
2.82 -0.245533
2.83 -0.243038
2.84 -0.240827
2.85 -0.238865
2.86 -0.237094
2.87 -0.235437
2.88 -0.233807
2.89 -0.232086
2.9 -0.230171
2.91 -0.227967
2.92 -0.225385
2.93 -0.222351
2.94 -0.218806
2.95 -0.214688
2.96 -0.209964
2.97 -0.204687
2.98 -0.19889
2.99 -0.192629
3 -0.185975
3.01 -0.179014
3.02 -0.171834
3.03 -0.164564
3.04 -0.157311
3.05 -0.150171
3.06 -0.14323
3.07 -0.13656
3.08 -0.130226
3.09 -0.12428
3.1 -0.118697
3.11 -0.113455
3.12 -0.108509
3.13 -0.103792
3.14 -0.0992155
3.15 -0.0946682
3.16 -0.0900145
3.17 -0.0851265
3.18 -0.0798753
3.19 -0.0741349
3.2 -0.0677872
3.21 -0.0607095
3.22 -0.0527436
3.23 -0.043897
3.24 -0.0341304
3.25 -0.0234291
3.26 -0.0118034
3.27 0.000711616
3.28 0.0141131
3.29 0.0282829
3.3 0.043085
3.31 0.0584069
3.32 0.0741282
3.33 0.0901254
3.34 0.106277
3.35 0.122457
3.36 0.138551
3.37 0.154472
3.38 0.17015
3.39 0.185537
3.4 0.200605
3.41 0.215324
3.42 0.229716
3.43 0.243833
3.44 0.257723
3.45 0.271446
3.46 0.285069
3.47 0.29866
3.48 0.312295
3.49 0.326033
3.5 0.339916
3.51 0.353971
3.52 0.368203
3.53 0.382596
3.54 0.397114
3.55 0.411678
3.56 0.426184
3.57 0.440515
3.58 0.454533
3.59 0.468083
3.6 0.480999
3.61 0.493003
3.62 0.503974
3.63 0.513752
3.64 0.522172
3.65 0.529089
3.66 0.534375
3.67 0.537851
3.68 0.539368
3.69 0.539022
3.7 0.536807
3.71 0.532746
3.72 0.526897
3.73 0.519347
3.74 0.510074
3.75 0.499348
3.76 0.487371
3.77 0.47432
3.78 0.460385
3.79 0.445758
3.8 0.430625
3.81 0.415179
3.82 0.399638
3.83 0.384161
3.84 0.368892
3.85 0.353953
3.86 0.339447
3.87 0.325497
3.88 0.312138
3.89 0.299376
3.9 0.287218
3.91 0.27565
3.92 0.264641
3.93 0.254156
3.94 0.244169
3.95 0.234567
3.96 0.225283
3.97 0.216249
3.98 0.207401
3.99 0.198676
4 0.190024
4.01 0.18139
4.02 0.172736
4.03 0.164039
4.04 0.155283
4.05 0.146462
4.06 0.137576
4.07 0.128634
4.08 0.119659
4.09 0.110672
4.1 0.101698
4.11 0.0927646
4.12 0.0838973
4.13 0.0751295
4.14 0.0664887
4.15 0.0579907
4.16 0.0496542
4.17 0.041495
4.18 0.0335261
4.19 0.025758
4.2 0.0182236
4.21 0.0109077
4.22 0.00381527
4.23 -0.00304784
4.24 -0.0096756
4.25 -0.0160613
4.26 -0.0221845
4.27 -0.0280304
4.28 -0.0336064
4.29 -0.0389024
4.3 -0.0439083
4.31 -0.048615
4.32 -0.0530147
4.33 -0.0570698
4.34 -0.0608056
4.35 -0.0642299
4.36 -0.0673503
4.37 -0.0701797
4.38 -0.0727368
4.39 -0.0750376
4.4 -0.0771077
4.41 -0.0790023
4.42 -0.0807612
4.43 -0.0824272
4.44 -0.0840445
4.45 -0.0856577
4.46 -0.0873172
4.47 -0.0890646
4.48 -0.0909325
4.49 -0.0929484
4.5 -0.0951317
4.51 -0.0974929
4.52 -0.100038
4.53 -0.102764
4.54 -0.105635
4.55 -0.108618
4.56 -0.111672
4.57 -0.114749
4.58 -0.117795
4.59 -0.120737
4.6 -0.123512
4.61 -0.126061
4.62 -0.128326
4.63 -0.130255
4.64 -0.131801
4.65 -0.132921
4.66 -0.133547
4.67 -0.133711
4.68 -0.133416
4.69 -0.132675
4.7 -0.131516
4.71 -0.129978
4.72 -0.128094
4.73 -0.125939
4.74 -0.1236
4.75 -0.12115
4.76 -0.118668
4.77 -0.11623
4.78 -0.113912
4.79 -0.111813
4.8 -0.10998
4.81 -0.108464
4.82 -0.107308
4.83 -0.106542
4.84 -0.106183
4.85 -0.106261
4.86 -0.106767
4.87 -0.107654
4.88 -0.108891
4.89 -0.110438
4.9 -0.112248
4.91 -0.11427
4.92 -0.11646
4.93 -0.118741
4.94 -0.12106
4.95 -0.123365
4.96 -0.125613
4.97 -0.127765
4.98 -0.129784
4.99 -0.131641
5 -0.133332
5.01 -0.134854
5.02 -0.136209
5.03 -0.137406
5.04 -0.13846
5.05 -0.139377
5.06 -0.140193
5.07 -0.140931
5.08 -0.141613
5.09 -0.142256
5.1 -0.142879
5.11 -0.143491
5.12 -0.144101
5.13 -0.144709
5.14 -0.145312
5.15 -0.145901
5.16 -0.146463
5.17 -0.146982
5.18 -0.147433
5.19 -0.147799
5.2 -0.148062
5.21 -0.148206
5.22 -0.148218
5.23 -0.148088
5.24 -0.147808
5.25 -0.147368
5.26 -0.146789
5.27 -0.146083
5.28 -0.145268
5.29 -0.144362
5.3 -0.143391
5.31 -0.142377
5.32 -0.141351
5.33 -0.140339
5.34 -0.13936
5.35 -0.138431
5.36 -0.137562
5.37 -0.136757
5.38 -0.136016
5.39 -0.135321
5.4 -0.13465
5.41 -0.133974
5.42 -0.13326
5.43 -0.132469
5.44 -0.131546
5.45 -0.130445
5.46 -0.129127
5.47 -0.127553
5.48 -0.125689
5.49 -0.123506
5.5 -0.120985
5.51 -0.11808
5.52 -0.114836
5.53 -0.111272
5.54 -0.107418
5.55 -0.103318
5.56 -0.0990241
5.57 -0.0945967
5.58 -0.0901166
5.59 -0.085667
5.6 -0.0813249
5.61 -0.077166
5.62 -0.0732613
5.63 -0.0696748
5.64 -0.066505
5.65 -0.0637574
5.66 -0.0614509
5.67 -0.059591
5.68 -0.0581662
5.69 -0.0571472
5.7 -0.0565007
5.71 -0.0561623
5.72 -0.0560268
5.73 -0.0560041
5.74 -0.0559963
5.75 -0.0559013
5.76 -0.0556166
5.77 -0.0550054
5.78 -0.0539894
5.79 -0.0524967
5.8 -0.0504644
5.81 -0.0478475
5.82 -0.0446204
5.83 -0.0407594
5.84 -0.0362574
5.85 -0.0312114
5.86 -0.0256874
5.87 -0.0197694
5.88 -0.0135574
5.89 -0.00716373
5.9 -0.000714916
5.91 0.00564483
5.92 0.0117903
5.93 0.0176037
5.94 0.0229778
5.95 0.02782
5.96 0.032041
5.97 0.035535
5.98 0.0383378
5.99 0.0404509
6 0.0419014
6.01 0.0427405
6.02 0.0430428
6.03 0.0428788
6.04 0.0423932
6.05 0.0417326
6.06 0.0410329
6.07 0.0404329
6.08 0.0400688
6.09 0.0400749
6.1 0.0406264
6.11 0.0417766
6.12 0.0435991
6.13 0.0461431
6.14 0.0494313
6.15 0.0534594
6.16 0.0582365
6.17 0.0636834
6.18 0.0696727
6.19 0.0760932
6.2 0.0828164
6.21 0.0897005
6.22 0.0965955
6.23 0.103314
6.24 0.109708
6.25 0.115638
6.26 0.120976
6.27 0.125613
6.28 0.12946
6.29 0.132407
6.3 0.134405
6.31 0.135506
6.32 0.135735
6.33 0.135144
6.34 0.133807
6.35 0.131821
6.36 0.129254
6.37 0.1263
6.38 0.123101
6.39 0.119794
6.4 0.116516
6.41 0.113393
6.42 0.110558
6.43 0.108135
6.44 0.106176
6.45 0.104733
6.46 0.103835
6.47 0.103485
6.48 0.103664
6.49 0.10437
6.5 0.105492
6.51 0.106936
6.52 0.108603
6.53 0.110386
6.54 0.112173
6.55 0.113843
6.56 0.115264
6.57 0.116347
6.58 0.117009
6.59 0.11718
6.6 0.11681
6.61 0.115869
6.62 0.114298
6.63 0.112142
6.64 0.109458
6.65 0.106299
6.66 0.102736
6.67 0.0988497
6.68 0.0947307
6.69 0.0904788
6.7 0.0862139
6.71 0.0820322
6.72 0.0780234
6.73 0.0742675
6.74 0.0708321
6.75 0.0677998
6.76 0.0651989
6.77 0.063027
6.78 0.0612813
6.79 0.0599425
6.8 0.0589757
6.81 0.0583353
6.82 0.0579807
6.83 0.0578087
6.84 0.0577464
6.85 0.0577197
6.86 0.0576567
6.87 0.0574904
6.88 0.0571486
6.89 0.0565775
6.9 0.0557527
6.91 0.0546539
6.92 0.0532744
6.93 0.0516211
6.94 0.0497138
6.95 0.0475631
6.96 0.0452406
6.97 0.0427973
6.98 0.0402877
6.99 0.0377682
7 0.0352937
7.01 0.0329227
7.02 0.030708
7.03 0.0286759
7.04 0.0268492
7.05 0.0252389
7.06 0.023843
7.07 0.0226475
7.08 0.02164
7.09 0.0207618
7.1 0.0199617
7.11 0.0191843
7.12 0.0183698
7.13 0.0174572
7.14 0.0163782
7.15 0.0150621
7.16 0.0134756
7.17 0.0115824
7.18 0.00935848
7.19 0.00679302
7.2 0.00388995
7.21 0.000642073
7.22 -0.00288858
7.23 -0.00664231
7.24 -0.0105549
7.25 -0.0145516
7.26 -0.0185499
7.27 -0.0224566
7.28 -0.0261587
7.29 -0.0295767
7.3 -0.0326274
7.31 -0.0352351
7.32 -0.0373353
7.33 -0.0388765
7.34 -0.0397723
7.35 -0.0400302
7.36 -0.0396748
7.37 -0.0387263
7.38 -0.0372225
7.39 -0.0352173
7.4 -0.032773
7.41 -0.0299529
7.42 -0.0268916
7.43 -0.0236878
7.44 -0.0204433
7.45 -0.0172595
7.46 -0.0142343
7.47 -0.0114828
7.48 -0.00909166
7.49 -0.0071155
7.5 -0.00560739
7.51 -0.00460499
7.52 -0.00412979
7.53 -0.00418995
7.54 -0.00482609
7.55 -0.00594874
7.56 -0.00751418
7.57 -0.0094672
7.58 -0.0117433
7.59 -0.0142711
7.6 -0.0169807
7.61 -0.0197829
7.62 -0.022593
7.63 -0.0253402
7.64 -0.0279602
7.65 -0.0303972
7.66 -0.0326055
7.67 -0.034518
7.68 -0.0361401
7.69 -0.0374655
7.7 -0.038498
7.71 -0.0392526
7.72 -0.0397538
7.73 -0.040026
7.74 -0.0401117
7.75 -0.0400712
7.76 -0.0399522
7.77 -0.0398029
7.78 -0.0396697
7.79 -0.0395959
7.8 -0.039633
7.81 -0.0398069
7.82 -0.0401385
7.83 -0.0406423
7.84 -0.0413242
7.85 -0.0421817
7.86 -0.0432093
7.87 -0.0443914
7.88 -0.0456881
7.89 -0.0470672
7.9 -0.0484921
7.91 -0.0499237
7.92 -0.0513211
7.93 -0.0526332
7.94 -0.0538206
7.95 -0.0548491
7.96 -0.055686
7.97 -0.0563035
7.98 -0.0566788
7.99 -0.0567883
8 -0.0566027
8.01 -0.0561433
8.02 -0.0554131
8.03 -0.0544213
8.04 -0.0531822
8.05 -0.0517151
8.06 -0.0500296
8.07 -0.0481653
8.08 -0.0461608
8.09 -0.044049
8.1 -0.0418643
8.11 -0.0396419
8.12 -0.0374178
8.13 -0.0352345
8.14 -0.0331255
8.15 -0.0311237
8.16 -0.0292601
8.17 -0.0275638
8.18 -0.0260614
8.19 -0.0247928
8.2 -0.0237774
8.21 -0.0230206
8.22 -0.0225351
8.23 -0.0223293
8.24 -0.0224072
8.25 -0.0227692
8.26 -0.0234389
8.27 -0.0243719
8.28 -0.0255505
8.29 -0.0269515
8.3 -0.0285466
8.31 -0.0303019
8.32 -0.0321834
8.33 -0.0341409
8.34 -0.0361199
8.35 -0.0380697
8.36 -0.0399378
8.37 -0.0416712
8.38 -0.0432167
8.39 -0.0444916
8.4 -0.0454677
8.41 -0.0461038
8.42 -0.0463629
8.43 -0.0462148
8.44 -0.0456371
8.45 -0.0445962
8.46 -0.043077
8.47 -0.0411202
8.48 -0.0387443
8.49 -0.0359779
8.5 -0.0328587
8.51 -0.029433
8.52 -0.0257356
8.53 -0.0218545
8.54 -0.01786
8.55 -0.0138204
8.56 -0.00980483
8.57 -0.00588135
8.58 -0.00212276
8.59 0.00139218
8.6 0.00462517
8.61 0.00753203
8.62 0.0100778
8.63 0.0122376
8.64 0.0139973
8.65 0.0153189
8.66 0.0162358
8.67 0.0167807
8.68 0.0169832
8.69 0.0168815
8.7 0.0165202
8.71 0.0159459
8.72 0.0152085
8.73 0.0143826
8.74 0.0135231
8.75 0.0126831
8.76 0.0119116
8.77 0.0112527
8.78 0.0107576
8.79 0.0104539
8.8 0.0103552
8.81 0.0104727
8.82 0.0108095
8.83 0.0113603
8.84 0.0121147
8.85 0.0130672
8.86 0.0141707
8.87 0.0153948
8.88 0.0167064
8.89 0.0180713
8.9 0.019455
8.91 0.0208213
8.92 0.0221357
8.93 0.023373
8.94 0.0245117
8.95 0.0255349
8.96 0.0264312
8.97 0.0271945
8.98 0.0278085
8.99 0.0282939
9 0.0286595
9.01 0.0289172
9.02 0.0290813
9.03 0.0291674
9.04 0.0291891
9.05 0.0291635
9.06 0.0291078
9.07 0.0290333
9.08 0.0289485
9.09 0.0288584
9.1 0.0287651
9.11 0.028666
9.12 0.0285562
9.13 0.028428
9.14 0.0282717
9.15 0.0280765
9.16 0.0278312
9.17 0.027522
9.18 0.0271362
9.19 0.0266719
9.2 0.0261255
9.21 0.025497
9.22 0.02479
9.23 0.0240124
9.24 0.0231721
9.25 0.0222914
9.26 0.0213915
9.27 0.0204947
9.28 0.0196249
9.29 0.018807
9.3 0.0180687
9.31 0.0174411
9.32 0.0169371
9.33 0.0165729
9.34 0.0163598
9.35 0.0163039
9.36 0.0164056
9.37 0.016671
9.38 0.0170775
9.39 0.017601
9.4 0.0182167
9.41 0.0188954
9.42 0.0196041
9.43 0.0203068
9.44 0.0209592
9.45 0.0215265
9.46 0.021975
9.47 0.0222742
9.48 0.0223984
9.49 0.0223275
9.5 0.0220323
9.51 0.0215135
9.52 0.0207843
9.53 0.0198566
9.54 0.0187497
9.55 0.0174902
9.56 0.01611
9.57 0.0146441
9.58 0.0131473
9.59 0.0116637
9.6 0.0102382
9.61 0.00891395
9.62 0.00773132
9.63 0.00673919
9.64 0.00596953
9.65 0.00543307
9.66 0.0051423
9.67 0.00510094
9.68 0.00530374
9.69 0.00573658
9.7 0.00639732
9.71 0.00722785
9.72 0.00818935
9.73 0.0092385
9.74 0.0103287
9.75 0.0114117
9.76 0.0124341
9.77 0.0133422
9.78 0.014099
9.79 0.0146697
9.8 0.0150262
9.81 0.0151489
9.82 0.0150275
9.83 0.0146362
9.84 0.0140091
9.85 0.0131704
9.86 0.0121495
9.87 0.0109839
9.88 0.00971724
9.89 0.00839848
9.9 0.00708732
9.91 0.00584054
9.92 0.00471056
9.93 0.00374688
9.94 0.00299434
9.95 0.00249153
9.96 0.00229765
9.97 0.00241607
9.98 0.00284966
9.99 0.00359781
10 0.00464966
10.01 0.00598437
10.02 0.00757792
10.03 0.00939805
10.04 0.0113756
10.05 0.013458
10.06 0.015589
10.07 0.0177106
10.08 0.019765
10.09 0.0216816
10.1 0.0234078
10.11 0.0249026
10.12 0.0261275
10.13 0.0270517
10.14 0.0276533
10.15 0.0279135
10.16 0.0278024
10.17 0.0273621
10.18 0.0266097
10.19 0.0255704
10.2 0.0242763
10.21 0.0227651
10.22 0.0210698
10.23 0.0192467
10.24 0.0173503
10.25 0.0154269
10.26 0.0135211
10.27 0.0116746
10.28 0.0099257
10.29 0.0083237
10.3 0.00688235
10.31 0.00562066
10.32 0.00455126
10.33 0.00368042
10.34 0.00300834
10.35 0.00254046
10.36 0.0022633
10.37 0.00214993
10.38 0.00218109
10.39 0.00233509
10.4 0.00258867
10.41 0.00291782
10.42 0.00330176
10.43 0.00370967
10.44 0.0041199
10.45 0.00451293
10.46 0.00487141
10.47 0.00518039
10.48 0.00542373
10.49 0.00558866
10.5 0.00567211
10.51 0.00566854
10.52 0.00557401
10.53 0.0053859
10.54 0.00510258
10.55 0.00471338
10.56 0.00422632
10.57 0.00364298
10.58 0.00296376
10.59 0.00218938
10.6 0.00132098
10.61 0.000356897
10.62 -0.000703499
10.63 -0.00184887
10.64 -0.00307362
10.65 -0.00437033
10.66 -0.00572947
10.67 -0.00713914
10.68 -0.00858668
10.69 -0.0100503
10.7 -0.011509
10.71 -0.0129403
10.72 -0.01432
10.73 -0.0156223
10.74 -0.0168172
10.75 -0.017866
10.76 -0.0187529
10.77 -0.0194539
10.78 -0.0199478
10.79 -0.0202168
10.8 -0.0202474
10.81 -0.0200117
10.82 -0.0195183
10.83 -0.018782
10.84 -0.0178152
10.85 -0.0166366
10.86 -0.015272
10.87 -0.013751
10.88 -0.0121063
10.89 -0.0103959
10.9 -0.00866659
10.91 -0.00696708
10.92 -0.00534708
10.93 -0.00385576
10.94 -0.00255552
10.95 -0.00149211
10.96 -0.000693933
10.97 -0.000191724
10.98 -8.60339e-06
10.99 -0.000159183
11 -0.000650424
11.01 -0.00151266
11.02 -0.0026911
11.03 -0.0041597
11.04 -0.00588355
11.05 -0.00781963
11.06 -0.00991794
11.07 -0.0121252
11.08 -0.0143718
11.09 -0.0165889
11.1 -0.0187134
11.11 -0.0206835
11.12 -0.0224406
11.13 -0.0239313
11.14 -0.025069
11.15 -0.0258451
11.16 -0.0262337
11.17 -0.0262172
11.18 -0.0257883
11.19 -0.0249507
11.2 -0.0237014
11.21 -0.0220609
11.22 -0.0200934
11.23 -0.0178433
11.24 -0.0153622
11.25 -0.0127069
11.26 -0.00993823
11.27 -0.00712026
11.28 -0.00432713
11.29 -0.00162064
11.3 0.000941703
11.31 0.00330744
11.32 0.00543051
11.33 0.00726124
11.34 0.00875215
11.35 0.00990825
11.36 0.0107205
11.37 0.0111894
11.38 0.0113244
11.39 0.0111437
11.4 0.0106506
11.41 0.00990038
11.42 0.008941
11.43 0.00781615
11.44 0.00657205
11.45 0.005256
11.46 0.00391552
11.47 0.00260277
11.48 0.00136035
11.49 0.000224844
11.5 -0.0007726
11.51 -0.00160699
11.52 -0.00226001
11.53 -0.0027051
11.54 -0.00294585
11.55 -0.0029945
11.56 -0.00286194
11.57 -0.00256486
11.58 -0.00212496
11.59 -0.00156693
11.6 -0.000915649
11.61 -0.000214065
11.62 0.000505845
11.63 0.00121258
11.64 0.00187615
11.65 0.002469
11.66 0.00295919
11.67 0.00332568
11.68 0.00355922
11.69 0.00365056
11.7 0.0035957
11.71 0.00339588
11.72 0.00305712
11.73 0.00257784
11.74 0.00199017
11.75 0.00131395
11.76 0.000571725
11.77 -0.00021199
11.78 -0.00101158
11.79 -0.00179913
11.8 -0.00254536
11.81 -0.00322771
11.82 -0.00382505
11.83 -0.00431915
11.84 -0.00469517
