# xPDFsuite Configuration #
[PDF]
wavelength = 0.1
dataformat = QA
inputfile = BiMsol6_insitu_700 C-00509.xy
backgroundfile = Quartz2mm-dist500-00000.xy
mode = xray
bgscale = 0.0042
composition = Bi2Fe4O9
outputtype = gr
qmaxinst = 24.998449118
qmin = 0.1
qmax = 21.4986662415
rmax = 80.0
rmin = 0.0
rstep = 0.01
rpoly = 0.9

[Misc]
inputdir = C:/Data/Seafile/CPH/Beamtime/Desy Oct 20/In situ data/Processed/BiMsol6/PDF
savedir = C:/Data/Seafile/CPH/Beamtime/Desy Oct 20/In situ data/PDF/BiMsol6
backgroundfilefull = C:/Data/Seafile/CPH/Beamtime/Desy Oct 20/In situ data/Processed/Standard_Empty_Cap/Quartz2mm-dist500-00000.xy

#### start data
#S 1
#L r($\AA$)  G($\AA^{-2}$)
0 0
0.01 0.00531874
0.02 0.0103257
0.03 0.0147542
0.04 0.0183659
0.05 0.0209614
0.06 0.0223899
0.07 0.0224884
0.08 0.0212134
0.09 0.0186934
0.1 0.0150359
0.11 0.010405
0.12 0.0050133
0.13 -0.000886975
0.14 -0.00700865
0.15 -0.0130045
0.16 -0.0185803
0.17 -0.0234617
0.18 -0.027406
0.19 -0.0302137
0.2 -0.0316821
0.21 -0.0316812
0.22 -0.0303137
0.23 -0.0276549
0.24 -0.0238491
0.25 -0.0191042
0.26 -0.0136841
0.27 -0.00789646
0.28 -0.00215182
0.29 0.00318359
0.3 0.0077559
0.31 0.0112334
0.32 0.013323
0.33 0.0137309
0.34 0.012176
0.35 0.00873773
0.36 0.00344296
0.37 -0.00358582
0.38 -0.0121304
0.39 -0.02188
0.4 -0.0324666
0.41 -0.0433091
0.42 -0.0538413
0.43 -0.0634876
0.44 -0.0716578
0.45 -0.0777696
0.46 -0.0812094
0.47 -0.0811826
0.48 -0.0775554
0.49 -0.0700299
0.5 -0.058425
0.51 -0.0426883
0.52 -0.0229042
0.53 0.000951648
0.54 0.0283309
0.55 0.0585304
0.56 0.0908961
0.57 0.124672
0.58 0.159019
0.59 0.193031
0.6 0.225538
0.61 0.255669
0.62 0.282531
0.63 0.30529
0.64 0.323203
0.65 0.335639
0.66 0.341711
0.67 0.34108
0.68 0.333945
0.69 0.320339
0.7 0.300467
0.71 0.274699
0.72 0.243561
0.73 0.207272
0.74 0.16724
0.75 0.124382
0.76 0.0796638
0.77 0.0340863
0.78 -0.0113475
0.79 -0.0555543
0.8 -0.0974509
0.81 -0.136308
0.82 -0.171421
0.83 -0.202214
0.84 -0.228255
0.85 -0.24926
0.86 -0.264574
0.87 -0.274719
0.88 -0.279983
0.89 -0.280714
0.9 -0.27738
0.91 -0.270544
0.92 -0.260763
0.93 -0.248751
0.94 -0.23544
0.95 -0.221549
0.96 -0.207764
0.97 -0.194721
0.98 -0.182989
0.99 -0.17325
1 -0.165791
1.01 -0.160815
1.02 -0.158456
1.03 -0.158742
1.04 -0.161595
1.05 -0.166903
1.06 -0.174495
1.07 -0.183821
1.08 -0.194494
1.09 -0.206096
1.1 -0.218202
1.11 -0.23039
1.12 -0.242208
1.13 -0.253272
1.14 -0.263306
1.15 -0.272079
1.16 -0.279433
1.17 -0.285278
1.18 -0.289571
1.19 -0.292256
1.2 -0.293611
1.21 -0.293813
1.22 -0.293075
1.23 -0.291636
1.24 -0.289748
1.25 -0.287668
1.26 -0.285666
1.27 -0.283954
1.28 -0.282698
1.29 -0.282018
1.3 -0.281985
1.31 -0.282619
1.32 -0.283944
1.33 -0.285786
1.34 -0.288006
1.35 -0.29043
1.36 -0.292858
1.37 -0.295078
1.38 -0.296834
1.39 -0.297892
1.4 -0.2981
1.41 -0.297311
1.42 -0.295424
1.43 -0.292386
1.44 -0.288194
1.45 -0.282795
1.46 -0.276436
1.47 -0.269298
1.48 -0.261599
1.49 -0.253596
1.5 -0.245567
1.51 -0.237837
1.52 -0.230755
1.53 -0.224579
1.54 -0.219562
1.55 -0.215917
1.56 -0.213807
1.57 -0.213339
1.58 -0.214722
1.59 -0.217773
1.6 -0.222351
1.61 -0.228276
1.62 -0.235308
1.63 -0.243154
1.64 -0.251478
1.65 -0.259862
1.66 -0.267882
1.67 -0.275148
1.68 -0.281285
1.69 -0.285946
1.7 -0.288824
1.71 -0.289468
1.72 -0.287806
1.73 -0.283797
1.74 -0.277421
1.75 -0.268736
1.76 -0.257874
1.77 -0.244997
1.78 -0.23031
1.79 -0.214325
1.8 -0.197421
1.81 -0.180001
1.82 -0.16248
1.83 -0.145268
1.84 -0.128843
1.85 -0.113576
1.86 -0.0997381
1.87 -0.0875691
1.88 -0.0772423
1.89 -0.0688585
1.9 -0.0624718
1.91 -0.0581861
1.92 -0.0556606
1.93 -0.054693
1.94 -0.0550274
1.95 -0.0563654
1.96 -0.0583789
1.97 -0.0607221
1.98 -0.0629957
1.99 -0.0648614
2 -0.0660266
2.01 -0.0662427
2.02 -0.0653158
2.03 -0.0631106
2.04 -0.0594209
2.05 -0.0544263
2.06 -0.048232
2.07 -0.041013
2.08 -0.0330077
2.09 -0.0245098
2.1 -0.0158709
2.11 -0.007523
2.12 0.000136907
2.13 0.00671877
2.14 0.011848
2.15 0.0151794
2.16 0.016411
2.17 0.0150176
2.18 0.0110516
2.19 0.00444123
2.2 -0.00482523
2.21 -0.0166803
2.22 -0.0309785
2.23 -0.0475882
2.24 -0.0662226
2.25 -0.0863671
2.26 -0.10762
2.27 -0.129551
2.28 -0.151712
2.29 -0.173653
2.3 -0.19483
2.31 -0.214845
2.32 -0.233354
2.33 -0.250049
2.34 -0.264687
2.35 -0.277089
2.36 -0.287071
2.37 -0.294492
2.38 -0.299609
2.39 -0.30255
2.4 -0.303505
2.41 -0.302715
2.42 -0.300467
2.43 -0.297007
2.44 -0.292784
2.45 -0.288173
2.46 -0.283512
2.47 -0.279119
2.48 -0.275285
2.49 -0.272284
2.5 -0.270416
2.51 -0.269743
2.52 -0.270354
2.53 -0.272284
2.54 -0.275514
2.55 -0.279975
2.56 -0.28563
2.57 -0.29226
2.58 -0.299631
2.59 -0.307533
2.6 -0.315747
2.61 -0.324048
2.62 -0.332214
2.63 -0.339985
2.64 -0.347201
2.65 -0.353711
2.66 -0.359394
2.67 -0.364163
2.68 -0.367964
2.69 -0.370716
2.7 -0.372449
2.71 -0.373266
2.72 -0.373237
2.73 -0.372456
2.74 -0.371025
2.75 -0.369057
2.76 -0.366632
2.77 -0.363917
2.78 -0.361013
2.79 -0.358008
2.8 -0.354973
2.81 -0.351961
2.82 -0.349012
2.83 -0.346144
2.84 -0.343346
2.85 -0.340597
2.86 -0.337866
2.87 -0.33511
2.88 -0.332282
2.89 -0.329316
2.9 -0.32617
2.91 -0.322806
2.92 -0.319189
2.93 -0.315298
2.94 -0.311119
2.95 -0.306641
2.96 -0.301865
2.97 -0.296834
2.98 -0.291575
2.99 -0.286118
3 -0.280493
3.01 -0.274726
3.02 -0.268824
3.03 -0.262803
3.04 -0.256653
3.05 -0.250346
3.06 -0.243832
3.07 -0.237043
3.08 -0.229872
3.09 -0.22217
3.1 -0.213836
3.11 -0.204728
3.12 -0.194692
3.13 -0.183573
3.14 -0.171214
3.15 -0.157338
3.16 -0.141872
3.17 -0.124753
3.18 -0.105901
3.19 -0.0852675
3.2 -0.0628404
3.21 -0.038612
3.22 -0.0125377
3.23 0.0150901
3.24 0.0441072
3.25 0.0743099
3.26 0.105459
3.27 0.137285
3.28 0.169495
3.29 0.201719
3.3 0.233613
3.31 0.264849
3.32 0.295104
3.33 0.324068
3.34 0.351435
3.35 0.376735
3.36 0.399926
3.37 0.420829
3.38 0.439306
3.39 0.455265
3.4 0.468654
3.41 0.479309
3.42 0.487299
3.43 0.492847
3.44 0.496069
3.45 0.497109
3.46 0.496132
3.47 0.493318
3.48 0.488692
3.49 0.482654
3.5 0.475397
3.51 0.467103
3.52 0.457942
3.53 0.448067
3.54 0.437591
3.55 0.426636
3.56 0.41533
3.57 0.403743
3.58 0.391929
3.59 0.379926
3.6 0.367762
3.61 0.355439
3.62 0.342988
3.63 0.330423
3.64 0.317762
3.65 0.30503
3.66 0.292261
3.67 0.279507
3.68 0.266841
3.69 0.254343
3.7 0.242107
3.71 0.230239
3.72 0.218859
3.73 0.208094
3.74 0.198161
3.75 0.18916
3.76 0.181207
3.77 0.174428
3.78 0.168941
3.79 0.164849
3.8 0.162286
3.81 0.161415
3.82 0.162144
3.83 0.164488
3.84 0.168439
3.85 0.173967
3.86 0.181015
3.87 0.189618
3.88 0.199598
3.89 0.210787
3.9 0.223058
3.91 0.236272
3.92 0.250286
3.93 0.264962
3.94 0.280176
3.95 0.295724
3.96 0.311472
3.97 0.327293
3.98 0.343071
3.99 0.358698
4 0.374057
4.01 0.389059
4.02 0.403644
4.03 0.417748
4.04 0.431318
4.05 0.444302
4.06 0.45665
4.07 0.468245
4.08 0.479113
4.09 0.489212
4.1 0.498497
4.11 0.506919
4.12 0.514428
4.13 0.520908
4.14 0.5263
4.15 0.5306
4.16 0.533754
4.17 0.535706
4.18 0.536405
4.19 0.535804
4.2 0.53371
4.21 0.530237
4.22 0.525372
4.23 0.519108
4.24 0.511451
4.25 0.502418
4.26 0.491976
4.27 0.480148
4.28 0.46708
4.29 0.452837
4.3 0.43749
4.31 0.421116
4.32 0.403794
4.33 0.385528
4.34 0.366482
4.35 0.346747
4.36 0.326397
4.37 0.305498
4.38 0.284112
4.39 0.262279
4.4 0.240033
4.41 0.217446
4.42 0.19455
4.43 0.171372
4.44 0.147937
4.45 0.124267
4.46 0.100369
4.47 0.0762874
4.48 0.0520588
4.49 0.0277222
4.5 0.00332433
4.51 -0.0210792
4.52 -0.0454195
4.53 -0.0696021
4.54 -0.0935469
4.55 -0.117159
4.56 -0.140339
4.57 -0.16298
4.58 -0.184976
4.59 -0.20615
4.6 -0.226418
4.61 -0.245713
4.62 -0.26395
4.63 -0.281056
4.64 -0.296973
4.65 -0.31164
4.66 -0.324925
4.67 -0.336957
4.68 -0.347756
4.69 -0.357363
4.7 -0.365836
4.71 -0.373251
4.72 -0.379637
4.73 -0.38513
4.74 -0.389889
4.75 -0.394028
4.76 -0.397665
4.77 -0.400912
4.78 -0.403877
4.79 -0.406651
4.8 -0.409347
4.81 -0.412033
4.82 -0.414765
4.83 -0.417579
4.84 -0.420497
4.85 -0.423526
4.86 -0.42665
4.87 -0.429834
4.88 -0.433035
4.89 -0.436202
4.9 -0.439277
4.91 -0.442197
4.92 -0.44487
4.93 -0.447251
4.94 -0.449286
4.95 -0.450926
4.96 -0.45213
4.97 -0.452869
4.98 -0.4531
4.99 -0.452802
5 -0.452014
5.01 -0.450749
5.02 -0.449029
5.03 -0.446881
5.04 -0.444338
5.05 -0.4414
5.06 -0.438136
5.07 -0.434583
5.08 -0.430765
5.09 -0.426704
5.1 -0.422411
5.11 -0.417883
5.12 -0.413101
5.13 -0.408068
5.14 -0.402761
5.15 -0.39715
5.16 -0.391199
5.17 -0.38487
5.18 -0.378084
5.19 -0.370824
5.2 -0.363071
5.21 -0.354799
5.22 -0.345992
5.23 -0.336645
5.24 -0.326752
5.25 -0.316304
5.26 -0.305387
5.27 -0.294053
5.28 -0.282366
5.29 -0.270402
5.3 -0.258246
5.31 -0.245992
5.32 -0.233756
5.33 -0.221642
5.34 -0.209749
5.35 -0.198174
5.36 -0.187004
5.37 -0.176327
5.38 -0.166266
5.39 -0.15682
5.4 -0.148024
5.41 -0.139899
5.42 -0.13245
5.43 -0.125666
5.44 -0.119563
5.45 -0.11409
5.46 -0.109165
5.47 -0.104732
5.48 -0.100733
5.49 -0.0971055
5.5 -0.0937883
5.51 -0.0907459
5.52 -0.0878934
5.53 -0.0851874
5.54 -0.0825937
5.55 -0.0800875
5.56 -0.0776538
5.57 -0.075291
5.58 -0.0730045
5.59 -0.0708025
5.6 -0.068702
5.61 -0.066723
5.62 -0.0648859
5.63 -0.0632092
5.64 -0.0617262
5.65 -0.060426
5.66 -0.0593025
5.67 -0.0583405
5.68 -0.0575127
5.69 -0.0567796
5.7 -0.0560882
5.71 -0.0553637
5.72 -0.0545273
5.73 -0.0534951
5.74 -0.0521777
5.75 -0.0504837
5.76 -0.0483224
5.77 -0.0455456
5.78 -0.0421103
5.79 -0.0379637
5.8 -0.0330563
5.81 -0.0273561
5.82 -0.0208504
5.83 -0.013522
5.84 -0.00536836
5.85 0.00348699
5.86 0.0129671
5.87 0.0229766
5.88 0.0334044
5.89 0.0441263
5.9 0.0550105
5.91 0.0658921
5.92 0.0766278
5.93 0.0870835
5.94 0.0971341
5.95 0.106667
5.96 0.115573
5.97 0.123717
5.98 0.131112
5.99 0.137735
6 0.143587
6.01 0.148693
6.02 0.1531
6.03 0.156838
6.04 0.16003
6.05 0.162806
6.06 0.16528
6.07 0.167573
6.08 0.169804
6.09 0.172089
6.1 0.174562
6.11 0.177302
6.12 0.180379
6.13 0.183842
6.14 0.187716
6.15 0.192
6.16 0.19669
6.17 0.20172
6.18 0.206988
6.19 0.212392
6.2 0.217811
6.21 0.223112
6.22 0.228148
6.23 0.232703
6.24 0.236661
6.25 0.239877
6.26 0.242214
6.27 0.243552
6.28 0.243788
6.29 0.242775
6.3 0.240434
6.31 0.236817
6.32 0.231925
6.33 0.225785
6.34 0.218449
6.35 0.209992
6.36 0.200414
6.37 0.189941
6.38 0.178714
6.39 0.166873
6.4 0.154563
6.41 0.141928
6.42 0.129109
6.43 0.116256
6.44 0.1035
6.45 0.0909471
6.46 0.0786857
6.47 0.0667868
6.48 0.0553022
6.49 0.0443083
6.5 0.0337852
6.51 0.023715
6.52 0.0140745
6.53 0.00482773
6.54 -0.0040716
6.55 -0.0126704
6.56 -0.0210222
6.57 -0.0292115
6.58 -0.0372962
6.59 -0.0453292
6.6 -0.0533567
6.61 -0.061416
6.62 -0.0695402
6.63 -0.0777415
6.64 -0.0860181
6.65 -0.0943578
6.66 -0.102737
6.67 -0.111123
6.68 -0.119468
6.69 -0.127708
6.7 -0.135786
6.71 -0.14364
6.72 -0.151205
6.73 -0.158413
6.74 -0.165199
6.75 -0.171462
6.76 -0.177148
6.77 -0.182229
6.78 -0.186655
6.79 -0.190388
6.8 -0.193392
6.81 -0.195632
6.82 -0.197005
6.83 -0.197578
6.84 -0.197337
6.85 -0.196275
6.86 -0.194385
6.87 -0.191663
6.88 -0.188056
6.89 -0.183566
6.9 -0.178239
6.91 -0.172075
6.92 -0.165072
6.93 -0.157232
6.94 -0.148555
6.95 -0.138949
6.96 -0.128511
6.97 -0.117252
6.98 -0.105183
6.99 -0.0923172
7 -0.0786751
7.01 -0.0642447
7.02 -0.0490491
7.03 -0.0331756
7.04 -0.0166668
7.05 0.000428874
7.06 0.0180579
7.07 0.0361619
7.08 0.0547142
7.09 0.0736047
7.1 0.0927589
7.11 0.112106
7.12 0.131577
7.13 0.151099
7.14 0.1706
7.15 0.19
7.16 0.209235
7.17 0.228245
7.18 0.246969
7.19 0.26535
7.2 0.283335
7.21 0.300826
7.22 0.317797
7.23 0.334213
7.24 0.350024
7.25 0.365183
7.26 0.379641
7.27 0.393328
7.28 0.406134
7.29 0.418075
7.3 0.429094
7.31 0.439135
7.32 0.448138
7.33 0.456043
7.34 0.462691
7.35 0.468068
7.36 0.472158
7.37 0.474906
7.38 0.476263
7.39 0.476185
7.4 0.474608
7.41 0.471375
7.42 0.466618
7.43 0.460328
7.44 0.45251
7.45 0.443178
7.46 0.43236
7.47 0.419997
7.48 0.406182
7.49 0.391047
7.5 0.374667
7.51 0.357128
7.52 0.338523
7.53 0.318947
7.54 0.298431
7.55 0.277193
7.56 0.255351
7.57 0.233023
7.58 0.21033
7.59 0.187393
7.6 0.164331
7.61 0.141281
7.62 0.118363
7.63 0.0956901
7.64 0.073369
7.65 0.051504
7.66 0.0301943
7.67 0.00961708
7.68 -0.0102002
7.69 -0.029179
7.7 -0.0472433
7.71 -0.0643236
7.72 -0.0803573
7.73 -0.0952339
7.74 -0.108876
7.75 -0.121323
7.76 -0.13255
7.77 -0.142538
7.78 -0.151279
7.79 -0.158779
7.8 -0.16493
7.81 -0.169866
7.82 -0.173646
7.83 -0.176321
7.84 -0.17795
7.85 -0.178603
7.86 -0.178327
7.87 -0.177183
7.88 -0.175332
7.89 -0.172867
7.9 -0.169883
7.91 -0.166474
7.92 -0.162731
7.93 -0.158725
7.94 -0.154559
7.95 -0.15031
7.96 -0.146038
7.97 -0.14179
7.98 -0.137604
7.99 -0.133509
8 -0.129526
8.01 -0.125646
8.02 -0.121859
8.03 -0.118147
8.04 -0.114486
8.05 -0.110843
8.06 -0.107184
8.07 -0.10347
8.08 -0.0996703
8.09 -0.0957584
8.1 -0.0917133
8.11 -0.087522
8.12 -0.0831786
8.13 -0.0786789
8.14 -0.0740581
8.15 -0.0693466
8.16 -0.0645847
8.17 -0.0598217
8.18 -0.055114
8.19 -0.0505361
8.2 -0.0461611
8.21 -0.0420483
8.22 -0.0382609
8.23 -0.0348567
8.24 -0.031886
8.25 -0.0293904
8.26 -0.0274546
8.27 -0.0260339
8.28 -0.0251227
8.29 -0.0246997
8.3 -0.0247277
8.31 -0.0251544
8.32 -0.0259278
8.33 -0.0269569
8.34 -0.0281319
8.35 -0.0293561
8.36 -0.0305301
8.37 -0.0315546
8.38 -0.0323339
8.39 -0.0327341
8.4 -0.0327057
8.41 -0.0321903
8.42 -0.0311434
8.43 -0.0295389
8.44 -0.0273697
8.45 -0.0246258
8.46 -0.0213346
8.47 -0.0175929
8.48 -0.0134756
8.49 -0.00907231
8.5 -0.00448487
8.51 0.000175912
8.52 0.0047778
8.53 0.00919343
8.54 0.0133096
8.55 0.017019
8.56 0.0202248
8.57 0.0228436
8.58 0.024784
8.59 0.0259586
8.6 0.0263983
8.61 0.0260993
8.62 0.0250779
8.63 0.023369
8.64 0.0210251
8.65 0.0180715
8.66 0.0146322
8.67 0.010815
8.68 0.00671549
8.69 0.00243025
8.7 -0.00194663
8.71 -0.0063252
8.72 -0.0106125
8.73 -0.0147466
8.74 -0.0186792
8.75 -0.0223783
8.76 -0.0258289
8.77 -0.0290332
8.78 -0.0319953
8.79 -0.0347645
8.8 -0.0374012
8.81 -0.039967
8.82 -0.042531
8.83 -0.0451667
8.84 -0.0479517
8.85 -0.0509872
8.86 -0.0543212
8.87 -0.0580096
8.88 -0.0620965
8.89 -0.0666123
8.9 -0.0715723
8.91 -0.0770037
8.92 -0.0828791
8.93 -0.089139
8.94 -0.0957328
8.95 -0.102598
8.96 -0.109662
8.97 -0.116845
8.98 -0.124058
8.99 -0.131203
9 -0.138199
9.01 -0.144969
9.02 -0.151448
9.03 -0.157577
9.04 -0.163292
9.05 -0.168557
9.06 -0.173387
9.07 -0.177786
9.08 -0.181775
9.09 -0.185386
9.1 -0.188661
9.11 -0.191631
9.12 -0.194387
9.13 -0.196997
9.14 -0.199523
9.15 -0.202024
9.16 -0.204555
9.17 -0.207165
9.18 -0.209895
9.19 -0.212757
9.2 -0.215756
9.21 -0.218883
9.22 -0.222112
9.23 -0.225408
9.24 -0.228716
9.25 -0.231969
9.26 -0.235097
9.27 -0.238028
9.28 -0.240686
9.29 -0.242998
9.3 -0.244882
9.31 -0.246241
9.32 -0.247063
9.33 -0.247312
9.34 -0.246963
9.35 -0.246007
9.36 -0.24445
9.37 -0.242265
9.38 -0.239522
9.39 -0.236288
9.4 -0.232622
9.41 -0.228587
9.42 -0.224252
9.43 -0.219685
9.44 -0.21495
9.45 -0.210129
9.46 -0.205277
9.47 -0.200437
9.48 -0.195638
9.49 -0.1909
9.5 -0.186226
9.51 -0.181598
9.52 -0.176982
9.53 -0.172333
9.54 -0.167594
9.55 -0.162699
9.56 -0.157572
9.57 -0.152095
9.58 -0.146216
9.59 -0.139858
9.6 -0.13295
9.61 -0.125431
9.62 -0.117248
9.63 -0.108317
9.64 -0.0986172
9.65 -0.0881823
9.66 -0.077023
9.67 -0.0651653
9.68 -0.0526499
9.69 -0.0395304
9.7 -0.0258183
9.71 -0.0116574
9.72 0.00286965
9.73 0.0176781
9.74 0.0326829
9.75 0.0478014
9.76 0.062954
9.77 0.0780599
9.78 0.0930588
9.79 0.107902
9.8 0.122553
9.81 0.136984
9.82 0.151182
9.83 0.165117
9.84 0.178817
9.85 0.192297
9.86 0.205574
9.87 0.218667
9.88 0.231594
9.89 0.244364
9.9 0.256984
9.91 0.269466
9.92 0.2818
9.93 0.293969
9.94 0.305943
9.95 0.31768
9.96 0.329096
9.97 0.340141
9.98 0.350751
9.99 0.360848
10 0.370351
10.01 0.379179
10.02 0.387229
10.03 0.394368
10.04 0.400601
10.05 0.405874
10.06 0.410149
10.07 0.413401
10.08 0.415624
10.09 0.416745
10.1 0.416847
10.11 0.416015
10.12 0.414314
10.13 0.411824
10.14 0.408638
10.15 0.404849
10.16 0.40054
10.17 0.395883
10.18 0.390989
10.19 0.385969
10.2 0.380928
10.21 0.375959
10.22 0.371164
10.23 0.366618
10.24 0.362364
10.25 0.358441
10.26 0.354868
10.27 0.351653
10.28 0.348789
10.29 0.346284
10.3 0.344063
10.31 0.342082
10.32 0.340288
10.33 0.338625
10.34 0.337034
10.35 0.335454
10.36 0.333819
10.37 0.332078
10.38 0.330184
10.39 0.328096
10.4 0.325781
10.41 0.32321
10.42 0.320332
10.43 0.317159
10.44 0.313683
10.45 0.309897
10.46 0.305797
10.47 0.301376
10.48 0.296612
10.49 0.291487
10.5 0.286008
10.51 0.280157
10.52 0.273909
10.53 0.267234
10.54 0.260097
10.55 0.252405
10.56 0.244154
10.57 0.23531
10.58 0.22583
10.59 0.215676
10.6 0.204814
10.61 0.19319
10.62 0.180755
10.63 0.167566
10.64 0.153633
10.65 0.138982
10.66 0.123651
10.67 0.107697
10.68 0.0911446
10.69 0.0741243
10.7 0.0567474
10.71 0.0391194
10.72 0.0213525
10.73 0.00356237
10.74 -0.0141292
10.75 -0.0315818
10.76 -0.0487009
10.77 -0.0653922
10.78 -0.0815741
10.79 -0.0971806
10.8 -0.112163
10.81 -0.126438
10.82 -0.140024
10.83 -0.15296
10.84 -0.16528
10.85 -0.177033
10.86 -0.188283
10.87 -0.199104
10.88 -0.209565
10.89 -0.219803
10.9 -0.229913
10.91 -0.239988
10.92 -0.250116
10.93 -0.260374
10.94 -0.270845
10.95 -0.28158
10.96 -0.292597
10.97 -0.303903
10.98 -0.315489
10.99 -0.327322
11 -0.339353
11.01 -0.35152
11.02 -0.363713
11.03 -0.375834
11.04 -0.387775
11.05 -0.399422
11.06 -0.410661
11.07 -0.421341
11.08 -0.431337
11.09 -0.440582
11.1 -0.448993
11.11 -0.456499
11.12 -0.463044
11.13 -0.468593
11.14 -0.473011
11.15 -0.476408
11.16 -0.478807
11.17 -0.480242
11.18 -0.480761
11.19 -0.480419
11.2 -0.479246
11.21 -0.477303
11.22 -0.474714
11.23 -0.471545
11.24 -0.467857
11.25 -0.463703
11.26 -0.459124
11.27 -0.454115
11.28 -0.448726
11.29 -0.442966
11.3 -0.436826
11.31 -0.430283
11.32 -0.423305
11.33 -0.415835
11.34 -0.407797
11.35 -0.399181
11.36 -0.38994
11.37 -0.380028
11.38 -0.369409
11.39 -0.358053
11.4 -0.345875
11.41 -0.332916
11.42 -0.319211
11.43 -0.304789
11.44 -0.289693
11.45 -0.273981
11.46 -0.257713
11.47 -0.240954
11.48 -0.223848
11.49 -0.206497
11.5 -0.189007
11.51 -0.171484
11.52 -0.154033
11.53 -0.136774
11.54 -0.119803
11.55 -0.10319
11.56 -0.0870021
11.57 -0.0712899
11.58 -0.056091
11.59 -0.0414347
11.6 -0.0273765
11.61 -0.0138504
11.62 -0.000834146
11.63 0.0117045
11.64 0.0238057
11.65 0.0355148
11.66 0.0468604
11.67 0.0579024
11.68 0.0687019
11.69 0.079297
11.7 0.0897178
11.71 0.0999847
11.72 0.110107
11.73 0.120064
11.74 0.129856
11.75 0.139453
11.76 0.148816
11.77 0.157899
11.78 0.166644
11.79 0.174968
11.8 0.182795
11.81 0.190088
11.82 0.196788
11.83 0.202842
11.84 0.208205
11.85 0.212843
11.86 0.216649
11.87 0.219686
11.88 0.221967
11.89 0.223509
11.9 0.224343
11.91 0.224508
11.92 0.22403
11.93 0.222959
11.94 0.221402
11.95 0.219422
11.96 0.217082
11.97 0.214439
11.98 0.211544
11.99 0.208421
12 0.205118
12.01 0.20165
12.02 0.198016
12.03 0.194199
12.04 0.190168
12.05 0.185864
12.06 0.181202
12.07 0.176132
12.08 0.170573
12.09 0.164436
12.1 0.157635
12.11 0.150081
12.12 0.141612
12.13 0.132191
12.14 0.121784
12.15 0.110346
12.16 0.0978487
12.17 0.0842824
