# xPDFsuite Configuration #
[PDF]
wavelength = 0.1
dataformat = QA
inputfile = BiMsol6_insitu_700 C-00059.xy
backgroundfile = Quartz2mm-dist500-00000.xy
mode = xray
bgscale = 0.0042
composition = Bi2Fe4O9
outputtype = gr
qmaxinst = 24.998449118
qmin = 0.1
qmax = 21.4986662415
rmax = 80.0
rmin = 0.0
rstep = 0.01
rpoly = 0.9

[Misc]
inputdir = C:/Data/Seafile/CPH/Beamtime/Desy Oct 20/In situ data/Processed/BiMsol6/PDF
savedir = C:/Data/Seafile/CPH/Beamtime/Desy Oct 20/In situ data/PDF/BiMsol6
backgroundfilefull = C:/Data/Seafile/CPH/Beamtime/Desy Oct 20/In situ data/Processed/Standard_Empty_Cap/Quartz2mm-dist500-00000.xy

#### start data
#S 1
#L r($\AA$)  G($\AA^{-2}$)
0 0
0.01 0.0064363
0.02 0.0125121
0.03 0.0179188
0.04 0.0223795
0.05 0.0256618
0.06 0.0275882
0.07 0.0279647
0.08 0.0267346
0.09 0.0240401
0.1 0.0199984
0.11 0.014791
0.12 0.00865639
0.13 0.00187923
0.14 -0.00522086
0.15 -0.0122405
0.16 -0.0188393
0.17 -0.0246982
0.18 -0.0295305
0.19 -0.0330969
0.2 -0.0351512
0.21 -0.0355249
0.22 -0.0343147
0.23 -0.0315856
0.24 -0.0274806
0.25 -0.0222157
0.26 -0.0160719
0.27 -0.00936851
0.28 -0.00256697
0.29 0.00392206
0.3 0.0096999
0.31 0.0143875
0.32 0.0176441
0.33 0.0191246
0.34 0.0184918
0.35 0.0157965
0.36 0.0110355
0.37 0.00430944
0.38 -0.0041763
0.39 -0.0141141
0.4 -0.0251474
0.41 -0.0366622
0.42 -0.0480559
0.43 -0.0587159
0.44 -0.0680085
0.45 -0.075303
0.46 -0.0799326
0.47 -0.0810395
0.48 -0.0784383
0.49 -0.0717834
0.5 -0.060851
0.51 -0.0455537
0.52 -0.02595
0.53 -0.00197913
0.54 0.0258061
0.55 0.0566802
0.56 0.0899677
0.57 0.12488
0.58 0.160536
0.59 0.195977
0.6 0.229977
0.61 0.261587
0.62 0.289846
0.63 0.313859
0.64 0.332819
0.65 0.346039
0.66 0.352558
0.67 0.351998
0.68 0.344548
0.69 0.330233
0.7 0.309257
0.71 0.282007
0.72 0.249039
0.73 0.210585
0.74 0.16815
0.75 0.122718
0.76 0.075331
0.77 0.0270683
0.78 -0.020985
0.79 -0.0676524
0.8 -0.111758
0.81 -0.152514
0.82 -0.189155
0.83 -0.221055
0.84 -0.247746
0.85 -0.268925
0.86 -0.283877
0.87 -0.293186
0.88 -0.297172
0.89 -0.296228
0.9 -0.290875
0.91 -0.281744
0.92 -0.269462
0.93 -0.254828
0.94 -0.238873
0.95 -0.222397
0.96 -0.206162
0.97 -0.190877
0.98 -0.177169
0.99 -0.165802
1 -0.157081
1.01 -0.151214
1.02 -0.148338
1.03 -0.148465
1.04 -0.151489
1.05 -0.157259
1.06 -0.165557
1.07 -0.17574
1.08 -0.187348
1.09 -0.19989
1.1 -0.212862
1.11 -0.225773
1.12 -0.23808
1.13 -0.249348
1.14 -0.259266
1.15 -0.267577
1.16 -0.274109
1.17 -0.278778
1.18 -0.281559
1.19 -0.282412
1.2 -0.281706
1.21 -0.279685
1.22 -0.276642
1.23 -0.272902
1.24 -0.268806
1.25 -0.264718
1.26 -0.261006
1.27 -0.257948
1.28 -0.255777
1.29 -0.254665
1.3 -0.25472
1.31 -0.255985
1.32 -0.258533
1.33 -0.262106
1.34 -0.266518
1.35 -0.271529
1.36 -0.27686
1.37 -0.282202
1.38 -0.287196
1.39 -0.291474
1.4 -0.294764
1.41 -0.296806
1.42 -0.297392
1.43 -0.296371
1.44 -0.293661
1.45 -0.289069
1.46 -0.282865
1.47 -0.275217
1.48 -0.266353
1.49 -0.256559
1.5 -0.246173
1.51 -0.235576
1.52 -0.225225
1.53 -0.215528
1.54 -0.206865
1.55 -0.199586
1.56 -0.193991
1.57 -0.190322
1.58 -0.18897
1.59 -0.189841
1.6 -0.192879
1.61 -0.197979
1.62 -0.204947
1.63 -0.213511
1.64 -0.223359
1.65 -0.234061
1.66 -0.245063
1.67 -0.255883
1.68 -0.266031
1.69 -0.275028
1.7 -0.282421
1.71 -0.28759
1.72 -0.290285
1.73 -0.290309
1.74 -0.287494
1.75 -0.281764
1.76 -0.273138
1.77 -0.261664
1.78 -0.247414
1.79 -0.230948
1.8 -0.212644
1.81 -0.192936
1.82 -0.172296
1.83 -0.151223
1.84 -0.130265
1.85 -0.109973
1.86 -0.0907912
1.87 -0.0731218
1.88 -0.0573034
1.89 -0.0436006
1.9 -0.0322316
1.91 -0.0235021
1.92 -0.0171559
1.93 -0.0130889
1.94 -0.011117
1.95 -0.0109852
1.96 -0.0123786
1.97 -0.0149873
1.98 -0.0183381
1.99 -0.0219694
2 -0.0254819
2.01 -0.0284998
2.02 -0.0306864
2.03 -0.0317522
2.04 -0.0313122
2.05 -0.0293736
2.06 -0.0258907
2.07 -0.0209002
2.08 -0.0145197
2.09 -0.00694331
2.1 0.00159889
2.11 0.0107281
2.12 0.0200099
2.13 0.0290354
2.14 0.0373827
2.15 0.044633
2.16 0.0503865
2.17 0.054039
2.18 0.0554438
2.19 0.0543788
2.2 0.0506808
2.21 0.0442669
2.22 0.0351377
2.23 0.0232671
2.24 0.00879524
2.25 -0.00782616
2.26 -0.0262659
2.27 -0.0461375
2.28 -0.0670122
2.29 -0.0884328
2.3 -0.109889
2.31 -0.130857
2.32 -0.150894
2.33 -0.169593
2.34 -0.186596
2.35 -0.201603
2.36 -0.214302
2.37 -0.22441
2.38 -0.232055
2.39 -0.23726
2.4 -0.24012
2.41 -0.2408
2.42 -0.239528
2.43 -0.236469
2.44 -0.232088
2.45 -0.226789
2.46 -0.220944
2.47 -0.214921
2.48 -0.209076
2.49 -0.20376
2.5 -0.199356
2.51 -0.196047
2.52 -0.194014
2.53 -0.193381
2.54 -0.194211
2.55 -0.196505
2.56 -0.200308
2.57 -0.205436
2.58 -0.211663
2.59 -0.218781
2.6 -0.226555
2.61 -0.234728
2.62 -0.243035
2.63 -0.25117
2.64 -0.258875
2.65 -0.265925
2.66 -0.272121
2.67 -0.277302
2.68 -0.281345
2.69 -0.284087
2.7 -0.285509
2.71 -0.285691
2.72 -0.284688
2.73 -0.282592
2.74 -0.279524
2.75 -0.275628
2.76 -0.271009
2.77 -0.265934
2.78 -0.260575
2.79 -0.255101
2.8 -0.249667
2.81 -0.244411
2.82 -0.239467
2.83 -0.234941
2.84 -0.230865
2.85 -0.227265
2.86 -0.22414
2.87 -0.22146
2.88 -0.219176
2.89 -0.217241
2.9 -0.215527
2.91 -0.213932
2.92 -0.212354
2.93 -0.210691
2.94 -0.208847
2.95 -0.206719
2.96 -0.204215
2.97 -0.201301
2.98 -0.197941
2.99 -0.194117
3 -0.18983
3.01 -0.185095
3.02 -0.179911
3.03 -0.17436
3.04 -0.168506
3.05 -0.162411
3.06 -0.156137
3.07 -0.149744
3.08 -0.143285
3.09 -0.13681
3.1 -0.130353
3.11 -0.123932
3.12 -0.117547
3.13 -0.111185
3.14 -0.104819
3.15 -0.0983972
3.16 -0.0918609
3.17 -0.0851463
3.18 -0.0781828
3.19 -0.0708967
3.2 -0.0632154
3.21 -0.0550589
3.22 -0.0463189
3.23 -0.0369922
3.24 -0.0270428
3.25 -0.0164485
3.26 -0.00520275
3.27 0.00668567
3.28 0.0192353
3.29 0.0323813
3.3 0.0460428
3.31 0.0601557
3.32 0.0746489
3.33 0.0894466
3.34 0.104473
3.35 0.11966
3.36 0.134914
3.37 0.150174
3.38 0.16539
3.39 0.180519
3.4 0.195534
3.41 0.21041
3.42 0.225146
3.43 0.239759
3.44 0.254267
3.45 0.268696
3.46 0.283075
3.47 0.297434
3.48 0.311804
3.49 0.326208
3.5 0.340658
3.51 0.355154
3.52 0.369681
3.53 0.38421
3.54 0.398689
3.55 0.413042
3.56 0.427185
3.57 0.44102
3.58 0.454433
3.59 0.467297
3.6 0.47948
3.61 0.490742
3.62 0.501006
3.63 0.510146
3.64 0.518035
3.65 0.524557
3.66 0.52961
3.67 0.533046
3.68 0.534739
3.69 0.534775
3.7 0.533145
3.71 0.529864
3.72 0.524971
3.73 0.51853
3.74 0.510498
3.75 0.501096
3.76 0.490484
3.77 0.478798
3.78 0.466184
3.79 0.452795
3.8 0.438769
3.81 0.424252
3.82 0.409441
3.83 0.394472
3.84 0.37947
3.85 0.364547
3.86 0.349802
3.87 0.335343
3.88 0.321231
3.89 0.307504
3.9 0.294193
3.91 0.281316
3.92 0.268881
3.93 0.25689
3.94 0.245361
3.95 0.234232
3.96 0.223475
3.97 0.213064
3.98 0.202968
3.99 0.193158
4 0.183624
4.01 0.17433
4.02 0.165243
4.03 0.156345
4.04 0.14762
4.05 0.139054
4.06 0.130639
4.07 0.12238
4.08 0.114252
4.09 0.106249
4.1 0.0983633
4.11 0.0905882
4.12 0.0829148
4.13 0.0753388
4.14 0.0678478
4.15 0.0604256
4.16 0.0530613
4.17 0.0457441
4.18 0.0384648
4.19 0.0312159
4.2 0.0239958
4.21 0.0168012
4.22 0.00963653
4.23 0.00251117
4.24 -0.00456033
4.25 -0.0115581
4.26 -0.0184508
4.27 -0.0252011
4.28 -0.0317813
4.29 -0.0381538
4.3 -0.0442791
4.31 -0.0501177
4.32 -0.0556309
4.33 -0.0607428
4.34 -0.0654507
4.35 -0.0697358
4.36 -0.0735812
4.37 -0.0769782
4.38 -0.0799277
4.39 -0.082424
4.4 -0.0844746
4.41 -0.0861464
4.42 -0.0874807
4.43 -0.0885268
4.44 -0.0893404
4.45 -0.0899823
4.46 -0.0905124
4.47 -0.0910105
4.48 -0.0915423
4.49 -0.0921672
4.5 -0.092939
4.51 -0.0939039
4.52 -0.0951059
4.53 -0.0965895
4.54 -0.098345
4.55 -0.100372
4.56 -0.102657
4.57 -0.105176
4.58 -0.107894
4.59 -0.110771
4.6 -0.113739
4.61 -0.116731
4.62 -0.11968
4.63 -0.122519
4.64 -0.125182
4.65 -0.127599
4.66 -0.129679
4.67 -0.131398
4.68 -0.132717
4.69 -0.133607
4.7 -0.13405
4.71 -0.13404
4.72 -0.133556
4.73 -0.132631
4.74 -0.131322
4.75 -0.129673
4.76 -0.127738
4.77 -0.125579
4.78 -0.123261
4.79 -0.120854
4.8 -0.118447
4.81 -0.116111
4.82 -0.113913
4.83 -0.111916
4.84 -0.110178
4.85 -0.108767
4.86 -0.107731
4.87 -0.107078
4.88 -0.106827
4.89 -0.106986
4.9 -0.107555
4.91 -0.108523
4.92 -0.10991
4.93 -0.111646
4.94 -0.113693
4.95 -0.116012
4.96 -0.118558
4.97 -0.121286
4.98 -0.124152
4.99 -0.127101
5 -0.130077
5.01 -0.133035
5.02 -0.135931
5.03 -0.138725
5.04 -0.141379
5.05 -0.143839
5.06 -0.146088
5.07 -0.148105
5.08 -0.149869
5.09 -0.151364
5.1 -0.152578
5.11 -0.153492
5.12 -0.15409
5.13 -0.154396
5.14 -0.154414
5.15 -0.154154
5.16 -0.153628
5.17 -0.152854
5.18 -0.151832
5.19 -0.150605
5.2 -0.149208
5.21 -0.147671
5.22 -0.146029
5.23 -0.144317
5.24 -0.142574
5.25 -0.140844
5.26 -0.139165
5.27 -0.137576
5.28 -0.13611
5.29 -0.134797
5.3 -0.133663
5.31 -0.132746
5.32 -0.132051
5.33 -0.131574
5.34 -0.131313
5.35 -0.131254
5.36 -0.131376
5.37 -0.131651
5.38 -0.132047
5.39 -0.132504
5.4 -0.132968
5.41 -0.133384
5.42 -0.133693
5.43 -0.133837
5.44 -0.133738
5.45 -0.133336
5.46 -0.132596
5.47 -0.131477
5.48 -0.129946
5.49 -0.127983
5.5 -0.125577
5.51 -0.122683
5.52 -0.119373
5.53 -0.115676
5.54 -0.111638
5.55 -0.107313
5.56 -0.102765
5.57 -0.0980609
5.58 -0.0932897
5.59 -0.0885396
5.6 -0.0838896
5.61 -0.0794154
5.62 -0.0751869
5.63 -0.0712654
5.64 -0.0677445
5.65 -0.0646279
5.66 -0.0619321
5.67 -0.0596615
5.68 -0.0578048
5.69 -0.0563349
5.7 -0.0552228
5.71 -0.0544113
5.72 -0.053806
5.73 -0.053328
5.74 -0.0528923
5.75 -0.0524109
5.76 -0.0517958
5.77 -0.0509329
5.78 -0.0497533
5.79 -0.0481951
5.8 -0.0462046
5.81 -0.0437425
5.82 -0.0407857
5.83 -0.0373122
5.84 -0.0333133
5.85 -0.028865
5.86 -0.0240177
5.87 -0.0188363
5.88 -0.0133983
5.89 -0.007791
5.9 -0.00211079
5.91 0.00352807
5.92 0.00902643
5.93 0.0142915
5.94 0.0192381
5.95 0.023792
5.96 0.0278812
5.97 0.0314206
5.98 0.0344318
5.99 0.0369112
6 0.038874
6.01 0.0403541
6.02 0.0414028
6.03 0.042066
6.04 0.0424495
6.05 0.0426617
6.06 0.0428027
6.07 0.0429756
6.08 0.0432827
6.09 0.0438259
6.1 0.0447362
6.11 0.0460628
6.12 0.047867
6.13 0.0501931
6.14 0.0530671
6.15 0.0564956
6.16 0.0604977
6.17 0.0650267
6.18 0.0699979
6.19 0.0753387
6.2 0.0809629
6.21 0.0867729
6.22 0.0926631
6.23 0.0985067
6.24 0.104186
6.25 0.109593
6.26 0.114628
6.27 0.119198
6.28 0.123228
6.29 0.126617
6.3 0.129307
6.31 0.131315
6.32 0.132634
6.33 0.133277
6.34 0.133274
6.35 0.132671
6.36 0.131478
6.37 0.129826
6.38 0.127806
6.39 0.125505
6.4 0.123014
6.41 0.120423
6.42 0.117823
6.43 0.115308
6.44 0.112947
6.45 0.110799
6.46 0.108911
6.47 0.107318
6.48 0.106038
6.49 0.105109
6.5 0.104496
6.51 0.10417
6.52 0.104098
6.53 0.104238
6.54 0.104541
6.55 0.104955
6.56 0.105418
6.57 0.105864
6.58 0.106239
6.59 0.10649
6.6 0.106572
6.61 0.106444
6.62 0.106055
6.63 0.105389
6.64 0.104443
6.65 0.103214
6.66 0.101706
6.67 0.0999307
6.68 0.0979027
6.69 0.0956327
6.7 0.0931747
6.71 0.0905615
6.72 0.0878275
6.73 0.0850078
6.74 0.0821367
6.75 0.0792477
6.76 0.0763753
6.77 0.0735463
6.78 0.0707833
6.79 0.0681049
6.8 0.0655258
6.81 0.0630582
6.82 0.0607219
6.83 0.0585084
6.84 0.0564188
6.85 0.0544521
6.86 0.0526058
6.87 0.0508763
6.88 0.0492657
6.89 0.047768
6.9 0.0463719
6.91 0.0450723
6.92 0.0438641
6.93 0.0427419
6.94 0.0417002
6.95 0.0407401
6.96 0.0398453
6.97 0.0390067
6.98 0.0382139
6.99 0.0374547
7 0.0367151
7.01 0.0359781
7.02 0.0352224
7.03 0.0344279
7.04 0.0335731
7.05 0.0326356
7.06 0.031593
7.07 0.0304231
7.08 0.0290876
7.09 0.0275792
7.1 0.0258846
7.11 0.0239922
7.12 0.0218948
7.13 0.0195901
7.14 0.0170736
7.15 0.0143487
7.16 0.0114477
7.17 0.00839276
7.18 0.0052113
7.19 0.00193575
7.2 -0.00139728
7.21 -0.00474537
7.22 -0.00805963
7.23 -0.0112959
7.24 -0.0144105
7.25 -0.017361
7.26 -0.0201075
7.27 -0.022606
7.28 -0.0248046
7.29 -0.0267005
7.3 -0.0282751
7.31 -0.0295167
7.32 -0.0304202
7.33 -0.0309878
7.34 -0.031203
7.35 -0.031099
7.36 -0.0307101
7.37 -0.030064
7.38 -0.0291925
7.39 -0.0281305
7.4 -0.0269133
7.41 -0.0255746
7.42 -0.0241677
7.43 -0.0227301
7.44 -0.0212978
7.45 -0.0199043
7.46 -0.0185802
7.47 -0.0173612
7.48 -0.0162713
7.49 -0.0153247
7.5 -0.0145363
7.51 -0.0139175
7.52 -0.0134764
7.53 -0.0132191
7.54 -0.0131674
7.55 -0.0133003
7.56 -0.0136153
7.57 -0.0141085
7.58 -0.0147746
7.59 -0.0156075
7.6 -0.0166088
7.61 -0.0177691
7.62 -0.0190702
7.63 -0.0205022
7.64 -0.022054
7.65 -0.0237135
7.66 -0.0254672
7.67 -0.027307
7.68 -0.0292057
7.69 -0.0311444
7.7 -0.0331024
7.71 -0.0350578
7.72 -0.0369876
7.73 -0.038864
7.74 -0.0406572
7.75 -0.0423468
7.76 -0.0439093
7.77 -0.0453232
7.78 -0.0465689
7.79 -0.0476301
7.8 -0.0484735
7.81 -0.0491074
7.82 -0.0495329
7.83 -0.0497531
7.84 -0.0497764
7.85 -0.0496166
7.86 -0.0492875
7.87 -0.0488101
7.88 -0.048226
7.89 -0.0475664
7.9 -0.0468644
7.91 -0.0461542
7.92 -0.0454691
7.93 -0.0448488
7.94 -0.0443213
7.95 -0.0439085
7.96 -0.0436282
7.97 -0.0434922
7.98 -0.0435053
7.99 -0.0436686
8 -0.0439788
8.01 -0.0444038
8.02 -0.044918
8.03 -0.0454903
8.04 -0.0460847
8.05 -0.0466621
8.06 -0.0471737
8.07 -0.0475752
8.08 -0.0478301
8.09 -0.0479028
8.1 -0.0477632
8.11 -0.0473876
8.12 -0.0467565
8.13 -0.0458406
8.14 -0.0446711
8.15 -0.0432632
8.16 -0.0416418
8.17 -0.0398407
8.18 -0.0379023
8.19 -0.0358737
8.2 -0.0338201
8.21 -0.0318048
8.22 -0.0298879
8.23 -0.0281288
8.24 -0.0265837
8.25 -0.0253044
8.26 -0.0243728
8.27 -0.0237894
8.28 -0.0235749
8.29 -0.0237382
8.3 -0.0242755
8.31 -0.0251703
8.32 -0.0264091
8.33 -0.0279438
8.34 -0.0296998
8.35 -0.031613
8.36 -0.0336127
8.37 -0.0356229
8.38 -0.0375655
8.39 -0.039338
8.4 -0.0408727
8.41 -0.0421023
8.42 -0.0429657
8.43 -0.0434123
8.44 -0.0434027
8.45 -0.042888
8.46 -0.0418428
8.47 -0.0403075
8.48 -0.0383016
8.49 -0.0358579
8.5 -0.0330213
8.51 -0.0298475
8.52 -0.0263814
8.53 -0.0227247
8.54 -0.018959
8.55 -0.0151617
8.56 -0.0114094
8.57 -0.00777481
8.58 -0.00433348
8.59 -0.00116351
8.6 0.00170448
8.61 0.00423464
8.62 0.00640296
8.63 0.00819765
8.64 0.00961904
8.65 0.0106497
8.66 0.0113379
8.67 0.0117291
8.68 0.0118657
8.69 0.0117958
8.7 0.0115716
8.71 0.0112459
8.72 0.0108762
8.73 0.0105216
8.74 0.010229
8.75 0.0100392
8.76 0.00998628
8.77 0.0100967
8.78 0.0104032
8.79 0.0109088
8.8 0.0116051
8.81 0.0124835
8.82 0.0135285
8.83 0.0147189
8.84 0.0160297
8.85 0.0174361
8.86 0.0188945
8.87 0.0203733
8.88 0.0218416
8.89 0.023271
8.9 0.0246362
8.91 0.0259089
8.92 0.0270714
8.93 0.0281173
8.94 0.0290403
8.95 0.0298383
8.96 0.0305133
8.97 0.0310704
8.98 0.0315059
8.99 0.0318429
9 0.0320917
9.01 0.032262
9.02 0.0323627
9.03 0.0324005
9.04 0.0323773
9.05 0.0322942
9.06 0.0321536
9.07 0.0319514
9.08 0.0316813
9.09 0.0313354
9.1 0.0309046
9.11 0.0303686
9.12 0.0297273
9.13 0.0289753
9.14 0.0281086
9.15 0.0271269
9.16 0.0260339
9.17 0.0248342
9.18 0.0235407
9.19 0.0221803
9.2 0.0207771
9.21 0.019359
9.22 0.0179577
9.23 0.0166068
9.24 0.0153532
9.25 0.0142292
9.26 0.013266
9.27 0.0124936
9.28 0.0119372
9.29 0.0116167
9.3 0.0115531
9.31 0.011765
9.32 0.0122261
9.33 0.0129228
9.34 0.0138332
9.35 0.0149276
9.36 0.0161693
9.37 0.0175201
9.38 0.0189204
9.39 0.0203158
9.4 0.0216542
9.41 0.0228845
9.42 0.0239583
9.43 0.0248267
9.44 0.0254301
9.45 0.0257611
9.46 0.025801
9.47 0.0255412
9.48 0.0249834
9.49 0.0241397
9.5 0.0230148
9.51 0.021654
9.52 0.0201101
9.53 0.0184308
9.54 0.0166686
9.55 0.0148785
9.56 0.0131171
9.57 0.011453
9.58 0.00993148
9.59 0.00859628
9.6 0.00748349
9.61 0.0066204
9.62 0.0060245
9.63 0.00571967
9.64 0.00569776
9.65 0.00592675
9.66 0.00638001
9.67 0.00702242
9.68 0.00781177
9.69 0.00870048
9.7 0.00963706
9.71 0.0105588
9.72 0.0114147
9.73 0.0121575
9.74 0.0127451
9.75 0.0131429
9.76 0.0133125
9.77 0.0132336
9.78 0.0129176
9.79 0.0123723
9.8 0.0116162
9.81 0.0106776
9.82 0.00959362
9.83 0.00840352
9.84 0.00717287
9.85 0.00595747
9.86 0.0048128
9.87 0.00379318
9.88 0.00294953
9.89 0.00233799
9.9 0.00201054
9.91 0.00197641
9.92 0.00225206
9.93 0.00284294
9.94 0.00374315
9.95 0.00493562
9.96 0.00641372
9.97 0.00811564
9.98 0.0099874
9.99 0.0119751
10 0.0140207
10.01 0.0160639
10.02 0.0180409
10.03 0.0198797
10.04 0.0215347
10.05 0.0229606
10.06 0.0241204
10.07 0.0249866
10.08 0.025542
10.09 0.0257545
10.1 0.0256457
10.11 0.0252442
10.12 0.0245769
10.13 0.0236784
10.14 0.0225902
10.15 0.0213568
10.16 0.0200261
10.17 0.0186611
10.18 0.0173101
10.19 0.0160178
10.2 0.0148236
10.21 0.0137607
10.22 0.0128666
10.23 0.0121551
10.24 0.0116245
10.25 0.0112714
10.26 0.0110842
10.27 0.0110435
10.28 0.0111245
10.29 0.0113015
10.3 0.0115267
10.31 0.0117641
10.32 0.0119778
10.33 0.0121339
10.34 0.0122024
10.35 0.0121501
10.36 0.0119563
10.37 0.0116175
10.38 0.011131
10.39 0.0105016
10.4 0.00974124
10.41 0.00886831
10.42 0.00790001
10.43 0.00687762
10.44 0.00583313
10.45 0.004799
10.46 0.00380683
10.47 0.00288583
10.48 0.00206703
10.49 0.00137466
10.5 0.000813521
10.51 0.000387851
10.52 9.41546e-05
10.53 -7.88262e-05
10.54 -0.00014976
10.55 -0.000139429
10.56 -8.97657e-05
10.57 -3.81279e-05
10.58 -2.29655e-05
10.59 -8.31537e-05
10.6 -0.000256135
10.61 -0.000582791
10.62 -0.00110261
10.63 -0.00182365
10.64 -0.00275756
10.65 -0.00390656
10.66 -0.0052628
10.67 -0.00680816
10.68 -0.00852556
10.69 -0.0103609
10.7 -0.0122621
10.71 -0.0141746
10.72 -0.0160396
10.73 -0.0177957
10.74 -0.019375
10.75 -0.0206964
10.76 -0.0217233
10.77 -0.0224103
10.78 -0.0227215
10.79 -0.0226324
10.8 -0.0221308
10.81 -0.0211868
10.82 -0.0198379
10.83 -0.0181324
10.84 -0.0161165
10.85 -0.0138485
10.86 -0.0113965
10.87 -0.00883665
10.88 -0.00625989
10.89 -0.00376119
10.9 -0.00142561
10.91 0.000665225
10.92 0.00243592
10.93 0.00381987
10.94 0.00472832
10.95 0.0051243
10.96 0.00500658
10.97 0.00436819
10.98 0.00321866
10.99 0.00158385
11 -0.000496497
11.01 -0.00300004
11.02 -0.00580605
11.03 -0.0088328
11.04 -0.0119913
11.05 -0.015188
11.06 -0.0183279
11.07 -0.0213032
11.08 -0.0240113
11.09 -0.0263823
11.1 -0.0283468
11.11 -0.029848
11.12 -0.0308427
11.13 -0.0313032
11.14 -0.0311573
11.15 -0.0304691
11.16 -0.0292658
11.17 -0.0275849
11.18 -0.0254768
11.19 -0.0230028
11.2 -0.0202228
11.21 -0.0172197
11.22 -0.0140941
11.23 -0.0109267
11.24 -0.00779645
11.25 -0.00477739
11.26 -0.00193716
11.27 0.000636528
11.28 0.00291065
11.29 0.00485474
11.3 0.00644583
11.31 0.00767292
11.32 0.00853667
11.33 0.00903711
11.34 0.00918483
11.35 0.00904071
11.36 0.00864365
11.37 0.00803731
11.38 0.00726831
11.39 0.00638441
11.4 0.0054308
11.41 0.00446115
11.42 0.00351695
11.43 0.00263263
11.44 0.00183647
11.45 0.00115003
11.46 0.000591108
11.47 0.000176476
11.48 -0.000106397
11.49 -0.000264135
11.5 -0.000308374
11.51 -0.000254777
11.52 -0.00012195
11.53 7.25443e-05
11.54 0.000302643
11.55 0.000545819
11.56 0.000783471
11.57 0.000999491
11.58 0.00118088
11.59 0.00131753
11.6 0.00139899
11.61 0.00142912
11.62 0.00141054
11.63 0.00134893
11.64 0.00125246
11.65 0.0011312
11.66 0.000996189
11.67 0.000860807
11.68 0.000736481
11.69 0.000632704
11.7 0.000557055
11.71 0.000514733
11.72 0.000508316
11.73 0.000541071
11.74 0.000604853
11.75 0.000693089
11.76 0.000796995
11.77 0.000906079
11.78 0.00100874
11.79 0.00109126
11.8 0.00114004
11.81 0.00114604
11.82 0.00110088
11.83 0.000998624
