# xPDFsuite Configuration #
[PDF]
wavelength = 0.1
dataformat = QA
inputfile = BiMsol6_insitu_700 C-00457.xy
backgroundfile = Quartz2mm-dist500-00000.xy
mode = xray
bgscale = 0.0042
composition = Bi2Fe4O9
outputtype = gr
qmaxinst = 24.998449118
qmin = 0.1
qmax = 21.4986662415
rmax = 80.0
rmin = 0.0
rstep = 0.01
rpoly = 0.9

[Misc]
inputdir = C:/Data/Seafile/CPH/Beamtime/Desy Oct 20/In situ data/Processed/BiMsol6/PDF
savedir = C:/Data/Seafile/CPH/Beamtime/Desy Oct 20/In situ data/PDF/BiMsol6
backgroundfilefull = C:/Data/Seafile/CPH/Beamtime/Desy Oct 20/In situ data/Processed/Standard_Empty_Cap/Quartz2mm-dist500-00000.xy

#### start data
#S 1
#L r($\AA$)  G($\AA^{-2}$)
0 0
0.01 0.00596933
0.02 0.0115976
0.03 0.0165929
0.04 0.0206938
0.05 0.0236807
0.06 0.025387
0.07 0.0256305
0.08 0.0243595
0.09 0.0217105
0.1 0.0177965
0.11 0.0127917
0.12 0.00692404
0.13 0.000464801
0.14 -0.00627978
0.15 -0.0129286
0.16 -0.0191596
0.17 -0.0246714
0.18 -0.0291947
0.19 -0.0325056
0.2 -0.0343749
0.21 -0.0346489
0.22 -0.0334262
0.23 -0.0307753
0.24 -0.0268394
0.25 -0.0218309
0.26 -0.0160241
0.27 -0.00973351
0.28 -0.00340103
0.29 0.00257974
0.3 0.00782702
0.31 0.0119794
0.32 0.0147138
0.33 0.0157038
0.34 0.0146325
0.35 0.011561
0.36 0.00649711
0.37 -0.0004508
0.38 -0.00907254
0.39 -0.0190591
0.4 -0.0300489
0.41 -0.0414384
0.42 -0.0526363
0.43 -0.0630406
0.44 -0.0720303
0.45 -0.0789879
0.46 -0.0832606
0.47 -0.0840056
0.48 -0.0810514
0.49 -0.0740632
0.5 -0.0628256
0.51 -0.0472571
0.52 -0.0274186
0.53 -0.00325146
0.54 0.0246976
0.55 0.0557125
0.56 0.0891283
0.57 0.124169
0.58 0.159969
0.59 0.195586
0.6 0.229817
0.61 0.261724
0.62 0.290363
0.63 0.31485
0.64 0.334387
0.65 0.348294
0.66 0.35562
0.67 0.355982
0.68 0.349557
0.69 0.336354
0.7 0.316564
0.71 0.290552
0.72 0.25885
0.73 0.221659
0.74 0.180452
0.75 0.136182
0.76 0.0898618
0.77 0.0425392
0.78 -0.00472825
0.79 -0.0507995
0.8 -0.0945265
0.81 -0.135124
0.82 -0.171839
0.83 -0.204052
0.84 -0.231293
0.85 -0.253254
0.86 -0.269232
0.87 -0.279771
0.88 -0.285166
0.89 -0.285786
0.9 -0.282123
0.91 -0.274779
0.92 -0.264349
0.93 -0.251599
0.94 -0.237527
0.95 -0.222903
0.96 -0.208466
0.97 -0.194901
0.98 -0.182819
0.99 -0.17296
1 -0.165626
1.01 -0.161026
1.02 -0.159298
1.03 -0.160459
1.04 -0.16441
1.05 -0.17101
1.06 -0.180049
1.07 -0.190908
1.08 -0.20314
1.09 -0.216269
1.1 -0.229803
1.11 -0.243259
1.12 -0.256105
1.13 -0.26791
1.14 -0.278362
1.15 -0.287205
1.16 -0.29426
1.17 -0.299435
1.18 -0.302695
1.19 -0.303983
1.2 -0.303659
1.21 -0.301953
1.22 -0.299146
1.23 -0.295553
1.24 -0.291508
1.25 -0.287362
1.26 -0.283484
1.27 -0.280162
1.28 -0.277635
1.29 -0.27609
1.3 -0.27565
1.31 -0.276377
1.32 -0.278369
1.33 -0.281399
1.34 -0.285308
1.35 -0.289885
1.36 -0.294875
1.37 -0.299997
1.38 -0.30492
1.39 -0.3093
1.4 -0.312864
1.41 -0.31536
1.42 -0.316578
1.43 -0.31636
1.44 -0.314609
1.45 -0.311123
1.46 -0.306127
1.47 -0.299752
1.48 -0.292188
1.49 -0.28368
1.5 -0.274522
1.51 -0.265042
1.52 -0.255648
1.53 -0.246713
1.54 -0.238585
1.55 -0.231583
1.56 -0.225986
1.57 -0.222024
1.58 -0.220054
1.59 -0.220014
1.6 -0.221872
1.61 -0.22555
1.62 -0.230891
1.63 -0.237668
1.64 -0.245618
1.65 -0.254376
1.66 -0.263458
1.67 -0.272447
1.68 -0.280915
1.69 -0.288446
1.7 -0.294645
1.71 -0.298976
1.72 -0.301215
1.73 -0.301188
1.74 -0.298749
1.75 -0.293831
1.76 -0.286451
1.77 -0.276651
1.78 -0.264497
1.79 -0.250472
1.8 -0.234903
1.81 -0.218164
1.82 -0.200663
1.83 -0.182829
1.84 -0.165134
1.85 -0.148043
1.86 -0.131933
1.87 -0.117137
1.88 -0.103937
1.89 -0.0925469
1.9 -0.0831376
1.91 -0.075951
1.92 -0.0707531
1.93 -0.0674384
1.94 -0.0658344
1.95 -0.0657092
1.96 -0.0667828
1.97 -0.0687746
1.98 -0.0712787
1.99 -0.0739087
2 -0.0763306
2.01 -0.0782363
2.02 -0.0793555
2.03 -0.0794639
2.04 -0.0782604
2.05 -0.0757886
2.06 -0.0720438
2.07 -0.0670933
2.08 -0.0610733
2.09 -0.0541848
2.1 -0.0466692
2.11 -0.0388834
2.12 -0.0312094
2.13 -0.0240127
2.14 -0.0176629
2.15 -0.0125189
2.16 -0.00891578
2.17 -0.00737967
2.18 -0.0079842
2.19 -0.0108857
2.2 -0.0161856
2.21 -0.0239121
2.22 -0.0340179
2.23 -0.0464752
2.24 -0.0611072
2.25 -0.0774808
2.26 -0.0952698
2.27 -0.114106
2.28 -0.133591
2.29 -0.15331
2.3 -0.172788
2.31 -0.191593
2.32 -0.209357
2.33 -0.225751
2.34 -0.240493
2.35 -0.253363
2.36 -0.264132
2.37 -0.272611
2.38 -0.278971
2.39 -0.283286
2.4 -0.285692
2.41 -0.286381
2.42 -0.285597
2.43 -0.283545
2.44 -0.280647
2.45 -0.277265
2.46 -0.273727
2.47 -0.270352
2.48 -0.267434
2.49 -0.265258
2.5 -0.264136
2.51 -0.264154
2.52 -0.26542
2.53 -0.267983
2.54 -0.271839
2.55 -0.276928
2.56 -0.283217
2.57 -0.290485
2.58 -0.29849
2.59 -0.307009
2.6 -0.315802
2.61 -0.324622
2.62 -0.33322
2.63 -0.341295
2.64 -0.34867
2.65 -0.355167
2.66 -0.360644
2.67 -0.364998
2.68 -0.368165
2.69 -0.370044
2.7 -0.370678
2.71 -0.370194
2.72 -0.368689
2.73 -0.366286
2.74 -0.363126
2.75 -0.359364
2.76 -0.355131
2.77 -0.35065
2.78 -0.346069
2.79 -0.341521
2.8 -0.337116
2.81 -0.33294
2.82 -0.32907
2.83 -0.325536
2.84 -0.322312
2.85 -0.319362
2.86 -0.316626
2.87 -0.314023
2.88 -0.311455
2.89 -0.308793
2.9 -0.305915
2.91 -0.302709
2.92 -0.299065
2.93 -0.294888
2.94 -0.290095
2.95 -0.284593
2.96 -0.278313
2.97 -0.271294
2.98 -0.263543
2.99 -0.255089
3 -0.245981
3.01 -0.236281
3.02 -0.226022
3.03 -0.215333
3.04 -0.204308
3.05 -0.193027
3.06 -0.181559
3.07 -0.169962
3.08 -0.158273
3.09 -0.146511
3.1 -0.134675
3.11 -0.122737
3.12 -0.110647
3.13 -0.0983354
3.14 -0.0857141
3.15 -0.0726384
3.16 -0.0590055
3.17 -0.0447157
3.18 -0.029659
3.19 -0.0137349
3.2 0.00314242
3.21 0.0210605
3.22 0.0401407
3.23 0.0602861
3.24 0.0814657
3.25 0.103614
3.26 0.126629
3.27 0.150374
3.28 0.174709
3.29 0.199384
3.3 0.224147
3.31 0.248748
3.32 0.272928
3.33 0.296419
3.34 0.318943
3.35 0.340097
3.36 0.359751
3.37 0.377693
3.38 0.39374
3.39 0.407741
3.4 0.419585
3.41 0.429058
3.42 0.436152
3.43 0.441011
3.44 0.4437
3.45 0.444322
3.46 0.443011
3.47 0.439935
3.48 0.435127
3.49 0.428999
3.5 0.421778
3.51 0.413695
3.52 0.40498
3.53 0.395853
3.54 0.386527
3.55 0.377221
3.56 0.368114
3.57 0.359349
3.58 0.351045
3.59 0.343293
3.6 0.336161
3.61 0.32976
3.62 0.324046
3.63 0.319003
3.64 0.314608
3.65 0.310825
3.66 0.307608
3.67 0.304926
3.68 0.302734
3.69 0.300944
3.7 0.299513
3.71 0.298403
3.72 0.297587
3.73 0.297048
3.74 0.296809
3.75 0.296858
3.76 0.297209
3.77 0.297889
3.78 0.298933
3.79 0.300381
3.8 0.302289
3.81 0.304735
3.82 0.307716
3.83 0.311265
3.84 0.315407
3.85 0.320158
3.86 0.325522
3.87 0.331537
3.88 0.338151
3.89 0.345303
3.9 0.352942
3.91 0.361007
3.92 0.369423
3.93 0.37811
3.94 0.38698
3.95 0.395908
3.96 0.404794
3.97 0.413535
3.98 0.422027
3.99 0.43017
4 0.43783
4.01 0.444913
4.02 0.451359
4.03 0.45709
4.04 0.46204
4.05 0.46615
4.06 0.46936
4.07 0.47153
4.08 0.472725
4.09 0.472922
4.1 0.472102
4.11 0.470255
4.12 0.467375
4.13 0.463403
4.14 0.458347
4.15 0.45228
4.16 0.445216
4.17 0.437177
4.18 0.428185
4.19 0.418269
4.2 0.407363
4.21 0.395603
4.22 0.383033
4.23 0.369694
4.24 0.355632
4.25 0.340895
4.26 0.325505
4.27 0.30951
4.28 0.293006
4.29 0.276045
4.3 0.25868
4.31 0.240961
4.32 0.222937
4.33 0.204631
4.34 0.186111
4.35 0.167418
4.36 0.148584
4.37 0.129635
4.38 0.110594
4.39 0.0914752
4.4 0.0722918
4.41 0.0530584
4.42 0.033782
4.43 0.0144684
4.44 -0.00487692
4.45 -0.0242469
4.46 -0.0436323
4.47 -0.0630168
4.48 -0.0823804
4.49 -0.101698
4.5 -0.120936
4.51 -0.140057
4.52 -0.159007
4.53 -0.177711
4.54 -0.196122
4.55 -0.214173
4.56 -0.231791
4.57 -0.248903
4.58 -0.265434
4.59 -0.281251
4.6 -0.296302
4.61 -0.310548
4.62 -0.323932
4.63 -0.336407
4.64 -0.347938
4.65 -0.358485
4.66 -0.367956
4.67 -0.376456
4.68 -0.384009
4.69 -0.390649
4.7 -0.396427
4.71 -0.401403
4.72 -0.405604
4.73 -0.409136
4.74 -0.412122
4.75 -0.41465
4.76 -0.416811
4.77 -0.418693
4.78 -0.420379
4.79 -0.421943
4.8 -0.423471
4.81 -0.425018
4.82 -0.426629
4.83 -0.428335
4.84 -0.430156
4.85 -0.432104
4.86 -0.434174
4.87 -0.436339
4.88 -0.438571
4.89 -0.440837
4.9 -0.443096
4.91 -0.445305
4.92 -0.447404
4.93 -0.449354
4.94 -0.451115
4.95 -0.452651
4.96 -0.453929
4.97 -0.454926
4.98 -0.455607
4.99 -0.455953
5 -0.455983
5.01 -0.455696
5.02 -0.4551
5.03 -0.454204
5.04 -0.453016
5.05 -0.451521
5.06 -0.449748
5.07 -0.447705
5.08 -0.445389
5.09 -0.442792
5.1 -0.439894
5.11 -0.436658
5.12 -0.433029
5.13 -0.428989
5.14 -0.424489
5.15 -0.419472
5.16 -0.41388
5.17 -0.407651
5.18 -0.400656
5.19 -0.392873
5.2 -0.384271
5.21 -0.374805
5.22 -0.364443
5.23 -0.353164
5.24 -0.340936
5.25 -0.32771
5.26 -0.313596
5.27 -0.298639
5.28 -0.282896
5.29 -0.266441
5.3 -0.249359
5.31 -0.231714
5.32 -0.213647
5.33 -0.195291
5.34 -0.176761
5.35 -0.158174
5.36 -0.139641
5.37 -0.121272
5.38 -0.103203
5.39 -0.0854983
5.4 -0.0682329
5.41 -0.0514669
5.42 -0.0352471
5.43 -0.0196066
5.44 -0.00460551
5.45 0.00975838
5.46 0.0235211
5.47 0.0366965
5.48 0.0493041
5.49 0.0613675
5.5 0.0729098
5.51 0.083901
5.52 0.0944186
5.53 0.104475
5.54 0.114074
5.55 0.123213
5.56 0.131878
5.57 0.140017
5.58 0.147589
5.59 0.154582
5.6 0.16095
5.61 0.166639
5.62 0.171595
5.63 0.175767
5.64 0.179009
5.65 0.181358
5.66 0.18279
5.67 0.183284
5.68 0.182834
5.69 0.181451
5.7 0.179119
5.71 0.175866
5.72 0.17182
5.73 0.167059
5.74 0.161675
5.75 0.155771
5.76 0.14946
5.77 0.142844
5.78 0.136079
5.79 0.129291
5.8 0.122594
5.81 0.116093
5.82 0.109884
5.83 0.10406
5.84 0.098713
5.85 0.0938523
5.86 0.0894991
5.87 0.085656
5.88 0.0823072
5.89 0.0794201
5.9 0.076977
5.91 0.0748858
5.92 0.0730621
5.93 0.0714295
5.94 0.0699104
5.95 0.0684295
5.96 0.0669156
5.97 0.0652965
5.98 0.0635337
5.99 0.0616
6 0.0594864
6.01 0.0572021
6.02 0.0547756
6.03 0.0522515
6.04 0.049709
6.05 0.047235
6.06 0.0449246
6.07 0.0428813
6.08 0.041213
6.09 0.0400346
6.1 0.0395187
6.11 0.0397047
6.12 0.0406723
6.13 0.0424839
6.14 0.0451816
6.15 0.0487842
6.16 0.0533413
6.17 0.0588023
6.18 0.0650543
6.19 0.0720069
6.2 0.0795466
6.21 0.0875391
6.22 0.0958327
6.23 0.104257
6.24 0.112606
6.25 0.120699
6.26 0.128361
6.27 0.135423
6.28 0.141726
6.29 0.147077
6.3 0.151328
6.31 0.154449
6.32 0.15638
6.33 0.157087
6.34 0.156566
6.35 0.154845
6.36 0.151863
6.37 0.147824
6.38 0.142852
6.39 0.137076
6.4 0.130641
6.41 0.123704
6.42 0.116419
6.43 0.108967
6.44 0.101531
6.45 0.0942585
6.46 0.0872863
6.47 0.0807338
6.48 0.0747008
6.49 0.0693277
6.5 0.0646286
6.51 0.0606151
6.52 0.057289
6.53 0.0546303
6.54 0.0525985
6.55 0.0511505
6.56 0.0502292
6.57 0.0496992
6.58 0.0494666
6.59 0.0494344
6.6 0.0495062
6.61 0.04959
6.62 0.0495887
6.63 0.0494246
6.64 0.0490432
6.65 0.0484025
6.66 0.0474768
6.67 0.0462573
6.68 0.0447468
6.69 0.0429536
6.7 0.040948
6.71 0.0387846
6.72 0.0365283
6.73 0.0342513
6.74 0.0320307
6.75 0.0299608
6.76 0.028126
6.77 0.0265921
6.78 0.0254243
6.79 0.0246785
6.8 0.0243996
6.81 0.0246245
6.82 0.0254251
6.83 0.0267481
6.84 0.0285815
6.85 0.0309007
6.86 0.0336691
6.87 0.0368398
6.88 0.0403746
6.89 0.0441993
6.9 0.0482277
6.91 0.0523912
6.92 0.0566218
6.93 0.0608543
6.94 0.0650284
6.95 0.0690723
6.96 0.0729498
6.97 0.0766274
6.98 0.0800809
6.99 0.0832964
7 0.0862703
7.01 0.0889977
7.02 0.0914935
7.03 0.0937985
7.04 0.0959438
7.05 0.0979656
7.06 0.0999027
7.07 0.101796
7.08 0.103689
7.09 0.105624
7.1 0.107634
7.11 0.109749
7.12 0.11199
7.13 0.114372
7.14 0.11691
7.15 0.119608
7.16 0.122442
7.17 0.125395
7.18 0.128442
7.19 0.13155
7.2 0.134682
7.21 0.137789
7.22 0.140822
7.23 0.143732
7.24 0.146471
7.25 0.148989
7.26 0.15124
7.27 0.153168
7.28 0.154705
7.29 0.155842
7.3 0.156546
7.31 0.15679
7.32 0.156551
7.33 0.155809
7.34 0.154507
7.35 0.152657
7.36 0.150271
7.37 0.147347
7.38 0.143881
7.39 0.139875
7.4 0.13532
7.41 0.130171
7.42 0.124485
7.43 0.11826
7.44 0.111498
7.45 0.104196
7.46 0.0963536
7.47 0.0879312
7.48 0.0789401
7.49 0.0694059
7.5 0.059331
7.51 0.0487204
7.52 0.0375832
7.53 0.02593
7.54 0.0137315
7.55 0.00107213
7.56 -0.0120125
7.57 -0.0254786
7.58 -0.039274
7.59 -0.0533375
7.6 -0.0676057
7.61 -0.0819864
7.62 -0.0963797
7.63 -0.11069
7.64 -0.124816
7.65 -0.13865
7.66 -0.152085
7.67 -0.164942
7.68 -0.177154
7.69 -0.18862
7.7 -0.199242
7.71 -0.208928
7.72 -0.217598
7.73 -0.225126
7.74 -0.231427
7.75 -0.23654
7.76 -0.240447
7.77 -0.243144
7.78 -0.244646
7.79 -0.244988
7.8 -0.244112
7.81 -0.24219
7.82 -0.239323
7.83 -0.235611
7.84 -0.231162
7.85 -0.226091
7.86 -0.220508
7.87 -0.21454
7.88 -0.20835
7.89 -0.202059
7.9 -0.195784
7.91 -0.189631
7.92 -0.183696
7.93 -0.178095
7.94 -0.172884
7.95 -0.168103
7.96 -0.163784
7.97 -0.159945
7.98 -0.156583
7.99 -0.153697
8 -0.15128
8.01 -0.149246
8.02 -0.147543
8.03 -0.14611
8.04 -0.144884
8.05 -0.143798
8.06 -0.142789
8.07 -0.141784
8.08 -0.140726
8.09 -0.139571
8.1 -0.138283
8.11 -0.136837
8.12 -0.135219
8.13 -0.133415
8.14 -0.131457
8.15 -0.129372
8.16 -0.127194
8.17 -0.124967
8.18 -0.12274
8.19 -0.120572
8.2 -0.118523
8.21 -0.116642
8.22 -0.114972
8.23 -0.113553
8.24 -0.11241
8.25 -0.111561
8.26 -0.11104
8.27 -0.110797
8.28 -0.110799
8.29 -0.111001
8.3 -0.111341
8.31 -0.111745
8.32 -0.112121
8.33 -0.112356
8.34 -0.112351
8.35 -0.111999
8.36 -0.111194
8.37 -0.109833
8.38 -0.107821
8.39 -0.104983
8.4 -0.101315
8.41 -0.0967689
8.42 -0.0913077
8.43 -0.0849136
8.44 -0.0775886
8.45 -0.069315
8.46 -0.0601204
8.47 -0.0501343
8.48 -0.0394378
8.49 -0.0281263
8.5 -0.0163065
8.51 -0.0040936
8.52 0.00840638
8.53 0.0210359
8.54 0.0336704
8.55 0.0461959
8.56 0.0585072
8.57 0.0705105
8.58 0.0821099
8.59 0.0932117
8.6 0.103806
8.61 0.113865
8.62 0.12338
8.63 0.132357
8.64 0.140817
8.65 0.148756
8.66 0.156252
8.67 0.163374
8.68 0.170179
8.69 0.176726
8.7 0.183072
8.71 0.189266
8.72 0.195348
8.73 0.201364
8.74 0.207332
8.75 0.213255
8.76 0.219123
8.77 0.224912
8.78 0.230567
8.79 0.236031
8.8 0.241239
8.81 0.246112
8.82 0.250563
8.83 0.254501
8.84 0.257823
8.85 0.260358
8.86 0.262085
8.87 0.262921
8.88 0.262794
8.89 0.261642
8.9 0.259419
8.91 0.256016
8.92 0.25143
8.93 0.24572
8.94 0.2389
8.95 0.231002
8.96 0.222069
8.97 0.212154
8.98 0.201224
8.99 0.189465
9 0.176955
9.01 0.163773
9.02 0.150002
9.03 0.135718
9.04 0.120979
9.05 0.105862
9.06 0.0904558
9.07 0.0748182
9.08 0.0589984
9.09 0.0430395
9.1 0.0269787
9.11 0.0108432
9.12 -0.00532993
9.13 -0.0215151
9.14 -0.0376882
9.15 -0.0538241
9.16 -0.0698954
9.17 -0.0858652
9.18 -0.101687
9.19 -0.117325
9.2 -0.132728
9.21 -0.14784
9.22 -0.162597
9.23 -0.176929
9.24 -0.190706
9.25 -0.203879
9.26 -0.216377
9.27 -0.228119
9.28 -0.239028
9.29 -0.249028
9.3 -0.258019
9.31 -0.265878
9.32 -0.272641
9.33 -0.278271
9.34 -0.282746
9.35 -0.286053
9.36 -0.288195
9.37 -0.289093
9.38 -0.288839
9.39 -0.287513
9.4 -0.285166
9.41 -0.281856
9.42 -0.277648
9.43 -0.272594
9.44 -0.266714
9.45 -0.260154
9.46 -0.252977
9.47 -0.24524
9.48 -0.236993
9.49 -0.228278
9.5 -0.219097
9.51 -0.209485
9.52 -0.19947
9.53 -0.189054
9.54 -0.178228
9.55 -0.166976
9.56 -0.155276
9.57 -0.143054
9.58 -0.130335
9.59 -0.117097
9.6 -0.103322
9.61 -0.0889989
9.62 -0.0741242
9.63 -0.0586716
9.64 -0.0426674
9.65 -0.0261745
9.66 -0.00923825
9.67 0.0080835
9.68 0.0257213
9.69 0.0435953
9.7 0.0616221
9.71 0.0796786
9.72 0.0976624
9.73 0.115469
9.74 0.132995
9.75 0.150141
9.76 0.16678
9.77 0.182807
9.78 0.19818
9.79 0.212836
9.8 0.226725
9.81 0.239811
9.82 0.252073
9.83 0.263415
9.84 0.273922
9.85 0.283624
9.86 0.29255
9.87 0.300735
9.88 0.308224
9.89 0.315036
9.9 0.321203
9.91 0.326818
9.92 0.33192
9.93 0.336544
9.94 0.340714
9.95 0.344448
9.96 0.347713
9.97 0.350534
9.98 0.352906
9.99 0.354806
10 0.356203
10.01 0.357059
10.02 0.357316
10.03 0.356889
10.04 0.355788
10.05 0.353977
10.06 0.351423
10.07 0.348103
10.08 0.344006
10.09 0.339066
10.1 0.333337
10.11 0.326876
10.12 0.319728
10.13 0.31195
10.14 0.303614
10.15 0.294797
10.16 0.285572
10.17 0.276089
10.18 0.266455
10.19 0.256778
10.2 0.247168
10.21 0.237727
10.22 0.228581
10.23 0.219821
10.24 0.211509
10.25 0.203705
10.26 0.196452
10.27 0.18978
10.28 0.183704
10.29 0.178277
10.3 0.173407
10.31 0.169055
10.32 0.165166
10.33 0.161677
10.34 0.158512
10.35 0.155602
10.36 0.152848
10.37 0.150151
10.38 0.147428
10.39 0.1446
10.4 0.141592
10.41 0.13834
10.42 0.13475
10.43 0.130807
10.44 0.12648
10.45 0.12175
10.46 0.116608
10.47 0.111054
10.48 0.105079
10.49 0.0986959
10.5 0.091957
10.51 0.08489
10.52 0.0775246
10.53 0.0698906
10.54 0.0620165
10.55 0.0539078
10.56 0.0456055
10.57 0.0371269
10.58 0.0284803
10.59 0.0196677
10.6 0.0106851
10.61 0.00151565
10.62 -0.00786548
10.63 -0.0174627
10.64 -0.0272967
10.65 -0.0373887
10.66 -0.047759
10.67 -0.0584251
10.68 -0.0694296
10.69 -0.0807605
10.7 -0.0924091
10.71 -0.104367
10.72 -0.116619
10.73 -0.129139
10.74 -0.141899
10.75 -0.154865
10.76 -0.167966
10.77 -0.181146
10.78 -0.194347
10.79 -0.207506
10.8 -0.22056
10.81 -0.233429
10.82 -0.246055
10.83 -0.258392
10.84 -0.270392
10.85 -0.282019
10.86 -0.293242
10.87 -0.304035
10.88 -0.314352
10.89 -0.324237
10.9 -0.333704
10.91 -0.342773
10.92 -0.351472
10.93 -0.359834
10.94 -0.367881
10.95 -0.375663
10.96 -0.383235
10.97 -0.390634
10.98 -0.397894
10.99 -0.405042
11 -0.412097
11.01 -0.41906
11.02 -0.425939
11.03 -0.43272
11.04 -0.439378
11.05 -0.445879
11.06 -0.452177
11.07 -0.4582
11.08 -0.463873
11.09 -0.469145
11.1 -0.473942
11.11 -0.47819
11.12 -0.481817
11.13 -0.484753
11.14 -0.486842
11.15 -0.488104
11.16 -0.488496
11.17 -0.487985
11.18 -0.486548
11.19 -0.484174
11.2 -0.480825
11.21 -0.476498
11.22 -0.471288
11.23 -0.46524
11.24 -0.458402
11.25 -0.450835
11.26 -0.442603
11.27 -0.433722
11.28 -0.424319
11.29 -0.414473
11.3 -0.404248
11.31 -0.393704
11.32 -0.382893
11.33 -0.371853
11.34 -0.360611
11.35 -0.349206
11.36 -0.337646
11.37 -0.32593
11.38 -0.314046
11.39 -0.301973
11.4 -0.289659
11.41 -0.277076
11.42 -0.264189
11.43 -0.250956
11.44 -0.237332
11.45 -0.223278
11.46 -0.208744
11.47 -0.193663
11.48 -0.178059
11.49 -0.161922
11.5 -0.145254
11.51 -0.128066
11.52 -0.110384
11.53 -0.0922107
11.54 -0.0736203
11.55 -0.0546915
11.56 -0.035494
11.57 -0.0161047
11.58 0.00339351
11.59 0.0229135
11.6 0.0423505
11.61 0.061617
11.62 0.0806296
11.63 0.0993097
11.64 0.117586
11.65 0.135394
11.66 0.152643
11.67 0.169292
11.68 0.18534
11.69 0.200767
11.7 0.215564
11.71 0.229735
11.72 0.243288
11.73 0.256178
11.74 0.268501
11.75 0.280288
11.76 0.291571
11.77 0.302383
11.78 0.312755
11.79 0.322694
11.8 0.332224
11.81 0.341384
11.82 0.350183
11.83 0.35862
11.84 0.366686
11.85 0.374363
11.86 0.381574
11.87 0.388322
11.88 0.394565
11.89 0.400254
11.9 0.405335
11.91 0.409748
11.92 0.413401
11.93 0.416202
11.94 0.41815
11.95 0.419189
11.96 0.419274
11.97 0.418361
11.98 0.416416
11.99 0.413308
12 0.4091
12.01 0.403807
12.02 0.39743
12.03 0.389979
12.04 0.381473
12.05 0.371904
12.06 0.361256
12.07 0.349655
12.08 0.337141
12.09 0.323761
12.1 0.30956
12.11 0.294585
12.12 0.278828
12.13 0.262381
12.14 0.245313
12.15 0.22767
12.16 0.209498
12.17 0.19084
12.18 0.171734
12.19 0.1522
12.2 0.132326
12.21 0.112163
12.22 0.0917608
12.23 0.0711776
12.24 0.050474
12.25 0.0297184
