# xPDFsuite Configuration #
[PDF]
wavelength = 0.1
dataformat = QA
inputfile = BiMsol6_insitu_700 C-00545.xy
backgroundfile = Quartz2mm-dist500-00000.xy
mode = xray
bgscale = 0.0042
composition = Bi2Fe4O9
outputtype = gr
qmaxinst = 24.998449118
qmin = 0.1
qmax = 21.4986662415
rmax = 80.0
rmin = 0.0
rstep = 0.01
rpoly = 0.9

[Misc]
inputdir = C:/Data/Seafile/CPH/Beamtime/Desy Oct 20/In situ data/Processed/BiMsol6/PDF
savedir = C:/Data/Seafile/CPH/Beamtime/Desy Oct 20/In situ data/PDF/BiMsol6
backgroundfilefull = C:/Data/Seafile/CPH/Beamtime/Desy Oct 20/In situ data/Processed/Standard_Empty_Cap/Quartz2mm-dist500-00000.xy

#### start data
#S 1
#L r($\AA$)  G($\AA^{-2}$)
0 0
0.01 0.00639762
0.02 0.0124327
0.03 0.0177951
0.04 0.0222063
0.05 0.0254329
0.06 0.0272969
0.07 0.0276035
0.08 0.0262965
0.09 0.0235194
0.1 0.0193908
0.11 0.014094
0.12 0.00786962
0.13 0.00100433
0.14 -0.00617927
0.15 -0.0132758
0.16 -0.0199433
0.17 -0.0258609
0.18 -0.0307414
0.19 -0.0343449
0.2 -0.0364253
0.21 -0.0368151
0.22 -0.0356136
0.23 -0.0328885
0.24 -0.0287857
0.25 -0.0235248
0.26 -0.0173906
0.27 -0.0107073
0.28 -0.00394001
0.29 0.00249747
0.3 0.00820366
0.31 0.0127974
0.32 0.0159364
0.33 0.0172749
0.34 0.0164752
0.35 0.0135924
0.36 0.00862647
0.37 0.00168231
0.38 -0.00702941
0.39 -0.0171951
0.4 -0.0284507
0.41 -0.0401745
0.42 -0.0517571
0.43 -0.062579
0.44 -0.0720002
0.45 -0.0793843
0.46 -0.0840588
0.47 -0.0851583
0.48 -0.0824999
0.49 -0.0757372
0.5 -0.0646477
0.51 -0.0491461
0.52 -0.0292948
0.53 -0.0050356
0.54 0.0230706
0.55 0.0542895
0.56 0.0879381
0.57 0.12322
0.58 0.159246
0.59 0.19505
0.6 0.229397
0.61 0.261332
0.62 0.289893
0.63 0.314178
0.64 0.33338
0.65 0.346809
0.66 0.353507
0.67 0.353097
0.68 0.345774
0.69 0.331565
0.7 0.310684
0.71 0.283521
0.72 0.250638
0.73 0.212275
0.74 0.169941
0.75 0.124626
0.76 0.0773751
0.77 0.0292685
0.78 -0.0186076
0.79 -0.0650766
0.8 -0.108966
0.81 -0.149492
0.82 -0.185897
0.83 -0.217563
0.84 -0.244028
0.85 -0.264999
0.86 -0.279776
0.87 -0.28895
0.88 -0.292852
0.89 -0.291884
0.9 -0.286578
0.91 -0.27757
0.92 -0.2655
0.93 -0.251175
0.94 -0.235625
0.95 -0.219649
0.96 -0.204014
0.97 -0.189423
0.98 -0.176503
0.99 -0.166021
1 -0.158267
1.01 -0.153441
1.02 -0.151671
1.03 -0.15296
1.04 -0.157189
1.05 -0.164198
1.06 -0.173756
1.07 -0.185204
1.08 -0.19807
1.09 -0.211848
1.1 -0.226021
1.11 -0.240084
1.12 -0.253474
1.13 -0.265743
1.14 -0.276567
1.15 -0.285676
1.16 -0.292886
1.17 -0.298099
1.18 -0.301275
1.19 -0.302352
1.2 -0.301703
1.21 -0.299566
1.22 -0.296231
1.23 -0.292021
1.24 -0.287278
1.25 -0.282362
1.26 -0.277654
1.27 -0.273455
1.28 -0.270016
1.29 -0.267532
1.3 -0.266135
1.31 -0.265899
1.32 -0.266932
1.33 -0.269017
1.34 -0.272006
1.35 -0.275697
1.36 -0.279849
1.37 -0.284191
1.38 -0.288411
1.39 -0.292178
1.4 -0.295229
1.41 -0.297324
1.42 -0.298267
1.43 -0.297909
1.44 -0.296163
1.45 -0.292853
1.46 -0.288188
1.47 -0.282303
1.48 -0.275382
1.49 -0.267663
1.5 -0.259425
1.51 -0.250986
1.52 -0.242726
1.53 -0.234988
1.54 -0.228085
1.55 -0.222304
1.56 -0.217888
1.57 -0.215027
1.58 -0.214024
1.59 -0.214788
1.6 -0.217255
1.61 -0.221313
1.62 -0.226781
1.63 -0.233412
1.64 -0.240919
1.65 -0.248918
1.66 -0.256954
1.67 -0.264622
1.68 -0.271515
1.69 -0.277246
1.7 -0.281456
1.71 -0.283644
1.72 -0.283649
1.73 -0.281354
1.74 -0.276666
1.75 -0.269575
1.76 -0.260148
1.77 -0.248485
1.78 -0.234716
1.79 -0.219343
1.8 -0.202721
1.81 -0.185244
1.82 -0.167329
1.83 -0.149403
1.84 -0.13195
1.85 -0.115396
1.86 -0.100072
1.87 -0.0862729
1.88 -0.0742296
1.89 -0.0641037
1.9 -0.056011
1.91 -0.0501281
1.92 -0.046161
1.93 -0.0439524
1.94 -0.0432828
1.95 -0.0438812
1.96 -0.0454367
1.97 -0.0476297
1.98 -0.0500498
1.99 -0.0523286
2 -0.0541488
2.01 -0.0552298
2.02 -0.0553396
2.03 -0.0543009
2.04 -0.0518662
2.05 -0.0481556
2.06 -0.0432305
2.07 -0.0372249
2.08 -0.0303408
2.09 -0.0228415
2.1 -0.0150457
2.11 -0.00736716
2.12 -0.000205576
2.13 0.0060477
2.14 0.0110096
2.15 0.01432
2.16 0.0156564
2.17 0.0144767
2.18 0.010792
2.19 0.00450007
2.2 -0.00444043
2.21 -0.0159899
2.22 -0.0300282
2.23 -0.0464487
2.24 -0.0649849
2.25 -0.085127
2.26 -0.106478
2.27 -0.128603
2.28 -0.151049
2.29 -0.173353
2.3 -0.194958
2.31 -0.215441
2.32 -0.234431
2.33 -0.2516
2.34 -0.266681
2.35 -0.279478
2.36 -0.289783
2.37 -0.297441
2.38 -0.302705
2.39 -0.305701
2.4 -0.306625
2.41 -0.305727
2.42 -0.303307
2.43 -0.299631
2.44 -0.295174
2.45 -0.29034
2.46 -0.285494
2.47 -0.280982
2.48 -0.277117
2.49 -0.2742
2.5 -0.272562
2.51 -0.272263
2.52 -0.273396
2.53 -0.275995
2.54 -0.28003
2.55 -0.285417
2.56 -0.292095
2.57 -0.299809
2.58 -0.308282
2.59 -0.317264
2.6 -0.326489
2.61 -0.335689
2.62 -0.344594
2.63 -0.35288
2.64 -0.360369
2.65 -0.366879
2.66 -0.372269
2.67 -0.376438
2.68 -0.37933
2.69 -0.380852
2.7 -0.381062
2.71 -0.380109
2.72 -0.378104
2.73 -0.375188
2.74 -0.371522
2.75 -0.367279
2.76 -0.362614
2.77 -0.357765
2.78 -0.352899
2.79 -0.348165
2.8 -0.343691
2.81 -0.33958
2.82 -0.335934
2.83 -0.332808
2.84 -0.330182
2.85 -0.32804
2.86 -0.32634
2.87 -0.325018
2.88 -0.323995
2.89 -0.32319
2.9 -0.322471
2.91 -0.321733
2.92 -0.320876
2.93 -0.319807
2.94 -0.318442
2.95 -0.316692
2.96 -0.314481
2.97 -0.311797
2.98 -0.308616
2.99 -0.304924
3 -0.300719
3.01 -0.296003
3.02 -0.290738
3.03 -0.284967
3.04 -0.278704
3.05 -0.271941
3.06 -0.264662
3.07 -0.256835
3.08 -0.248395
3.09 -0.239234
3.1 -0.229324
3.11 -0.21857
3.12 -0.206868
3.13 -0.194106
3.14 -0.180168
3.15 -0.164823
3.16 -0.14802
3.17 -0.12971
3.18 -0.109825
3.19 -0.0883178
3.2 -0.065172
3.21 -0.0403715
3.22 -0.0138623
3.23 0.014099
3.24 0.0433728
3.25 0.0737819
3.26 0.105114
3.27 0.137123
3.28 0.169546
3.29 0.202032
3.3 0.234252
3.31 0.265887
3.32 0.296618
3.33 0.326136
3.34 0.354128
3.35 0.380119
3.36 0.404044
3.37 0.425705
3.38 0.444942
3.39 0.461639
3.4 0.475724
3.41 0.487003
3.42 0.495524
3.43 0.501496
3.44 0.50502
3.45 0.506232
3.46 0.50529
3.47 0.502376
3.48 0.497501
3.49 0.49109
3.5 0.483348
3.51 0.474473
3.52 0.46465
3.53 0.454052
3.54 0.442808
3.55 0.43106
3.56 0.418954
3.57 0.406572
3.58 0.393979
3.59 0.381219
3.6 0.368322
3.61 0.355291
3.62 0.342146
3.63 0.328892
3.64 0.315532
3.65 0.302075
3.66 0.28854
3.67 0.274954
3.68 0.26137
3.69 0.247854
3.7 0.234487
3.71 0.221367
3.72 0.208604
3.73 0.196327
3.74 0.184745
3.75 0.173977
3.76 0.164159
3.77 0.15544
3.78 0.147963
3.79 0.141864
3.8 0.13731
3.81 0.134512
3.82 0.133413
3.83 0.134068
3.84 0.136507
3.85 0.140733
3.86 0.146725
3.87 0.15457
3.88 0.1641
3.89 0.175156
3.9 0.18762
3.91 0.201356
3.92 0.216218
3.93 0.232065
3.94 0.248778
3.95 0.266103
3.96 0.283877
3.97 0.301946
3.98 0.32016
3.99 0.33838
4 0.356458
4.01 0.374266
4.02 0.391705
4.03 0.408684
4.04 0.42512
4.05 0.440941
4.06 0.456074
4.07 0.470379
4.08 0.483878
4.09 0.49652
4.1 0.508256
4.11 0.519036
4.12 0.52881
4.13 0.537462
4.14 0.544933
4.15 0.551232
4.16 0.556305
4.17 0.560101
4.18 0.562569
4.19 0.563663
4.2 0.563178
4.21 0.561232
4.22 0.557807
4.23 0.552888
4.24 0.546471
4.25 0.538565
4.26 0.529119
4.27 0.518144
4.28 0.505786
4.29 0.492102
4.3 0.477158
4.31 0.461027
4.32 0.44379
4.33 0.425436
4.34 0.406149
4.35 0.386031
4.36 0.365169
4.37 0.343641
4.38 0.321526
4.39 0.298877
4.4 0.275747
4.41 0.252232
4.42 0.228382
4.43 0.204239
4.44 0.179843
4.45 0.155228
4.46 0.130413
4.47 0.105449
4.48 0.080373
4.49 0.0552247
4.5 0.030047
4.51 0.00488933
4.52 -0.0201876
4.53 -0.0451005
4.54 -0.0697827
4.55 -0.0941518
4.56 -0.118119
4.57 -0.14159
4.58 -0.164467
4.59 -0.186586
4.6 -0.207866
4.61 -0.22824
4.62 -0.247618
4.63 -0.265923
4.64 -0.283089
4.65 -0.299041
4.66 -0.313635
4.67 -0.326976
4.68 -0.339068
4.69 -0.34993
4.7 -0.3596
4.71 -0.368135
4.72 -0.375537
4.73 -0.381926
4.74 -0.387452
4.75 -0.39222
4.76 -0.396339
4.77 -0.399921
4.78 -0.403074
4.79 -0.405878
4.8 -0.408474
4.81 -0.410945
4.82 -0.41336
4.83 -0.415776
4.84 -0.418233
4.85 -0.42076
4.86 -0.423367
4.87 -0.42604
4.88 -0.428756
4.89 -0.431484
4.9 -0.434179
4.91 -0.436795
4.92 -0.439255
4.93 -0.441513
4.94 -0.443518
4.95 -0.44522
4.96 -0.446573
4.97 -0.447542
4.98 -0.448076
4.99 -0.448145
5 -0.447768
5.01 -0.446948
5.02 -0.445691
5.03 -0.444012
5.04 -0.441932
5.05 -0.439438
5.06 -0.436589
5.07 -0.433416
5.08 -0.429939
5.09 -0.426175
5.1 -0.422136
5.11 -0.417816
5.12 -0.413198
5.13 -0.408292
5.14 -0.403079
5.15 -0.397535
5.16 -0.391629
5.17 -0.385329
5.18 -0.378562
5.19 -0.371317
5.2 -0.36358
5.21 -0.355329
5.22 -0.346553
5.23 -0.337251
5.24 -0.327421
5.25 -0.31706
5.26 -0.306257
5.27 -0.295069
5.28 -0.283567
5.29 -0.271833
5.3 -0.259963
5.31 -0.248064
5.32 -0.236263
5.33 -0.224676
5.34 -0.213413
5.35 -0.202585
5.36 -0.192294
5.37 -0.182643
5.38 -0.173784
5.39 -0.16571
5.4 -0.158466
5.41 -0.152076
5.42 -0.146546
5.43 -0.141865
5.44 -0.138052
5.45 -0.135039
5.46 -0.132716
5.47 -0.131008
5.48 -0.129826
5.49 -0.129078
5.5 -0.128669
5.51 -0.12852
5.52 -0.128503
5.53 -0.128535
5.54 -0.128541
5.55 -0.128458
5.56 -0.128235
5.57 -0.127822
5.58 -0.127191
5.59 -0.126345
5.6 -0.125284
5.61 -0.124021
5.62 -0.122573
5.63 -0.120963
5.64 -0.119205
5.65 -0.117337
5.66 -0.115381
5.67 -0.113349
5.68 -0.111245
5.69 -0.109063
5.7 -0.106781
5.71 -0.104358
5.72 -0.101759
5.73 -0.0989268
5.74 -0.0957982
5.75 -0.0923015
5.76 -0.0883609
5.77 -0.0838408
5.78 -0.0786978
5.79 -0.0728739
5.8 -0.0663101
5.81 -0.0589598
5.82 -0.0507918
5.83 -0.0417658
5.84 -0.0318498
5.85 -0.0211471
5.86 -0.00971216
5.87 0.00237975
5.88 0.0150339
5.89 0.0281383
5.9 0.0415818
5.91 0.0551896
5.92 0.0688056
5.93 0.082281
5.94 0.0954696
5.95 0.108232
5.96 0.120426
5.97 0.131876
5.98 0.14255
5.99 0.152381
6 0.161327
6.01 0.169371
6.02 0.176523
6.03 0.182756
6.04 0.188166
6.05 0.192873
6.06 0.196975
6.07 0.200584
6.08 0.203821
6.09 0.206807
6.1 0.209664
6.11 0.212529
6.12 0.215499
6.13 0.218657
6.14 0.222062
6.15 0.225752
6.16 0.229756
6.17 0.23405
6.18 0.238566
6.19 0.243229
6.2 0.24794
6.21 0.252578
6.22 0.257005
6.23 0.26101
6.24 0.26446
6.25 0.267196
6.26 0.26906
6.27 0.269905
6.28 0.269598
6.29 0.267954
6.3 0.264857
6.31 0.260334
6.32 0.254359
6.33 0.246936
6.34 0.238102
6.35 0.227921
6.36 0.21637
6.37 0.203704
6.38 0.190086
6.39 0.175683
6.4 0.160671
6.41 0.145237
6.42 0.129566
6.43 0.113867
6.44 0.0983245
6.45 0.0830975
6.46 0.0683238
6.47 0.0541194
6.48 0.0405755
6.49 0.0278289
6.5 0.0158631
6.51 0.00466369
6.52 -0.00579363
6.53 -0.0155572
6.54 -0.0246966
6.55 -0.0332863
6.56 -0.041419
6.57 -0.0492524
6.58 -0.0569033
6.59 -0.0644873
6.6 -0.0721148
6.61 -0.0798864
6.62 -0.0879152
6.63 -0.0962658
6.64 -0.104976
6.65 -0.114069
6.66 -0.123546
6.67 -0.133386
6.68 -0.143549
6.69 -0.153978
6.7 -0.164555
6.71 -0.175174
6.72 -0.185715
6.73 -0.196051
6.74 -0.206049
6.75 -0.215526
6.76 -0.224342
6.77 -0.232392
6.78 -0.239555
6.79 -0.245723
6.8 -0.250802
6.81 -0.254702
6.82 -0.257233
6.83 -0.258482
6.84 -0.258426
6.85 -0.257061
6.86 -0.254394
6.87 -0.25045
6.88 -0.245191
6.89 -0.238679
6.9 -0.231038
6.91 -0.222328
6.92 -0.212612
6.93 -0.201954
6.94 -0.190415
6.95 -0.177967
6.96 -0.164757
6.97 -0.150834
6.98 -0.136238
6.99 -0.121001
7 -0.105148
7.01 -0.0886695
7.02 -0.0715728
7.03 -0.0539063
7.04 -0.0356775
7.05 -0.0168929
7.06 0.00244006
7.07 0.0223113
7.08 0.0427585
7.09 0.0637116
7.1 0.0851344
7.11 0.10699
7.12 0.129231
7.13 0.151803
7.14 0.174648
7.15 0.197686
7.16 0.220812
7.17 0.243932
7.18 0.266946
7.19 0.289748
7.2 0.312228
7.21 0.334222
7.22 0.355635
7.23 0.376365
7.24 0.396303
7.25 0.415347
7.26 0.433397
7.27 0.45033
7.28 0.465981
7.29 0.480376
7.3 0.493453
7.31 0.505159
7.32 0.515452
7.33 0.524297
7.34 0.531548
7.35 0.537254
7.36 0.54146
7.37 0.544165
7.38 0.545373
7.39 0.545092
7.4 0.543309
7.41 0.539918
7.42 0.535084
7.43 0.528823
7.44 0.521154
7.45 0.512097
7.46 0.50167
7.47 0.489802
7.48 0.476549
7.49 0.461999
7.5 0.446182
7.51 0.429128
7.52 0.410877
7.53 0.391467
7.54 0.370841
7.55 0.349189
7.56 0.326585
7.57 0.303114
7.58 0.278871
7.59 0.253962
7.6 0.228483
7.61 0.202584
7.62 0.176439
7.63 0.150201
7.64 0.124027
7.65 0.098083
7.66 0.0725365
7.67 0.0476391
7.68 0.0235137
7.69 0.000318851
7.7 -0.0217921
7.71 -0.0426763
7.72 -0.0622048
7.73 -0.0801896
7.74 -0.0964916
7.75 -0.111146
7.76 -0.124107
7.77 -0.135353
7.78 -0.144885
7.79 -0.152729
7.8 -0.158776
7.81 -0.163248
7.82 -0.166267
7.83 -0.167947
7.84 -0.168416
7.85 -0.167815
7.86 -0.166263
7.87 -0.163899
7.88 -0.160947
7.89 -0.157555
7.9 -0.153862
7.91 -0.149996
7.92 -0.146071
7.93 -0.142196
7.94 -0.138453
7.95 -0.134893
7.96 -0.13155
7.97 -0.128437
7.98 -0.125545
7.99 -0.122852
8 -0.120321
8.01 -0.117875
8.02 -0.115445
8.03 -0.112958
8.04 -0.110337
8.05 -0.107506
8.06 -0.104368
8.07 -0.100865
8.08 -0.0969599
8.09 -0.0926217
8.1 -0.0878348
8.11 -0.0826018
8.12 -0.0769393
8.13 -0.070862
8.14 -0.0644771
8.15 -0.0578652
8.16 -0.0511208
8.17 -0.0443497
8.18 -0.0376656
8.19 -0.0312084
8.2 -0.0251094
8.21 -0.0194699
8.22 -0.0143931
8.23 -0.00996969
8.24 -0.00627403
8.25 -0.00336438
8.26 -0.00136626
8.27 -0.000194093
8.28 0.000171462
8.29 -0.000226628
8.3 -0.00132276
8.31 -0.00303049
8.32 -0.00526646
8.33 -0.00789186
8.34 -0.0107434
8.35 -0.0136817
8.36 -0.016566
8.37 -0.0192591
8.38 -0.0216317
8.39 -0.0235078
8.4 -0.0248249
8.41 -0.0255121
8.42 -0.0255181
8.43 -0.0248171
8.44 -0.0234098
8.45 -0.0212948
8.46 -0.0185202
8.47 -0.015218
8.48 -0.0114927
8.49 -0.00746676
8.5 -0.00327644
8.51 0.000932576
8.52 0.00498169
8.53 0.00871478
8.54 0.0119913
8.55 0.0146788
8.56 0.0166595
8.57 0.0178347
8.58 0.0180946
8.59 0.0173364
8.6 0.0156132
8.61 0.01293
8.62 0.00931672
8.63 0.00482749
8.64 -0.00046203
8.65 -0.00650898
8.66 -0.0131473
8.67 -0.0202326
8.68 -0.0276358
8.69 -0.0352263
8.7 -0.0428764
8.71 -0.0504617
8.72 -0.0578483
8.73 -0.0649539
8.74 -0.0717061
8.75 -0.0780522
8.76 -0.0839604
8.77 -0.08942
8.78 -0.0944095
8.79 -0.0989805
8.8 -0.103202
8.81 -0.107137
8.82 -0.110862
8.83 -0.114459
8.84 -0.118013
8.85 -0.121624
8.86 -0.125372
8.87 -0.129329
8.88 -0.133551
8.89 -0.138083
8.9 -0.142953
8.91 -0.148194
8.92 -0.15379
8.93 -0.159695
8.94 -0.165863
8.95 -0.172234
8.96 -0.178737
8.97 -0.185289
8.98 -0.19179
8.99 -0.198144
9 -0.204262
9.01 -0.210061
9.02 -0.215465
9.03 -0.220408
9.04 -0.224807
9.05 -0.228617
9.06 -0.231854
9.07 -0.234516
9.08 -0.23662
9.09 -0.238196
9.1 -0.239288
9.11 -0.239914
9.12 -0.240189
9.13 -0.24019
9.14 -0.239991
9.15 -0.239667
9.16 -0.239289
9.17 -0.238923
9.18 -0.238632
9.19 -0.238456
9.2 -0.23842
9.21 -0.238538
9.22 -0.238808
9.23 -0.239213
9.24 -0.239732
9.25 -0.240309
9.26 -0.240888
9.27 -0.24141
9.28 -0.241812
9.29 -0.242029
9.3 -0.241988
9.31 -0.241607
9.32 -0.24086
9.33 -0.239709
9.34 -0.238125
9.35 -0.236096
9.36 -0.233623
9.37 -0.230683
9.38 -0.227334
9.39 -0.223631
9.4 -0.219628
9.41 -0.215386
9.42 -0.210969
9.43 -0.206447
9.44 -0.201892
9.45 -0.197378
9.46 -0.192959
9.47 -0.188682
9.48 -0.184582
9.49 -0.180677
9.5 -0.176988
9.51 -0.173493
9.52 -0.170151
9.53 -0.166917
9.54 -0.163729
9.55 -0.160515
9.56 -0.157188
9.57 -0.153628
9.58 -0.149751
9.59 -0.145463
9.6 -0.140668
9.61 -0.13528
9.62 -0.129219
9.63 -0.122369
9.64 -0.114675
9.65 -0.106144
9.66 -0.096758
9.67 -0.0865164
9.68 -0.0754358
9.69 -0.0635488
9.7 -0.0508222
9.71 -0.0374116
9.72 -0.0233928
9.73 -0.00884806
9.74 0.00613476
9.75 0.0214656
9.76 0.0370631
9.77 0.0528303
9.78 0.0686715
9.79 0.0845147
9.8 0.100297
9.81 0.115966
9.82 0.131481
9.83 0.146788
9.84 0.161884
9.85 0.176763
9.86 0.191423
9.87 0.205868
9.88 0.220106
9.89 0.234138
9.9 0.247967
9.91 0.261612
9.92 0.275071
9.93 0.288336
9.94 0.30139
9.95 0.314205
9.96 0.326716
9.97 0.338889
9.98 0.350673
9.99 0.362003
10 0.372808
10.01 0.383014
10.02 0.392523
10.03 0.401205
10.04 0.409052
10.05 0.416
10.06 0.421996
10.07 0.426999
10.08 0.430982
10.09 0.433848
10.1 0.435657
10.11 0.43647
10.12 0.436333
10.13 0.435306
10.14 0.433467
10.15 0.430895
10.16 0.427656
10.17 0.423933
10.18 0.419844
10.19 0.41551
10.2 0.41105
10.21 0.40658
10.22 0.402222
10.23 0.398085
10.24 0.394243
10.25 0.390766
10.26 0.387702
10.27 0.385085
10.28 0.382932
10.29 0.381284
10.3 0.380066
10.31 0.379237
10.32 0.37874
10.33 0.378509
10.34 0.378466
10.35 0.378527
10.36 0.378586
10.37 0.378546
10.38 0.378317
10.39 0.377808
10.4 0.376937
10.41 0.375629
10.42 0.373751
10.43 0.371296
10.44 0.368224
10.45 0.364497
10.46 0.360094
10.47 0.355
10.48 0.349177
10.49 0.342617
10.5 0.33538
10.51 0.327484
10.52 0.318951
10.53 0.309807
10.54 0.300078
10.55 0.28974
10.56 0.278871
10.57 0.267505
10.58 0.255669
10.59 0.243385
10.6 0.230676
10.61 0.217548
10.62 0.204008
10.63 0.190107
10.64 0.175865
10.65 0.161303
10.66 0.146442
10.67 0.131306
10.68 0.115904
10.69 0.100285
10.7 0.0844886
10.71 0.0685516
10.72 0.0525131
10.73 0.0364143
10.74 0.020299
10.75 0.00421827
10.76 -0.0117838
10.77 -0.0276654
10.78 -0.0433871
10.79 -0.0589132
10.8 -0.0742121
10.81 -0.0892359
10.82 -0.103974
10.83 -0.118423
10.84 -0.132578
10.85 -0.146442
10.86 -0.160022
10.87 -0.173328
10.88 -0.186362
10.89 -0.199174
10.9 -0.211794
10.91 -0.224249
10.92 -0.236569
10.93 -0.248781
10.94 -0.260906
10.95 -0.27297
10.96 -0.284989
10.97 -0.29697
10.98 -0.308914
10.99 -0.320813
11 -0.332649
11.01 -0.344383
11.02 -0.355989
11.03 -0.367424
11.04 -0.378638
11.05 -0.389577
11.06 -0.400184
11.07 -0.410369
11.08 -0.420059
11.09 -0.429217
11.1 -0.437781
11.11 -0.445695
11.12 -0.452907
11.13 -0.459371
11.14 -0.464956
11.15 -0.469712
11.16 -0.47362
11.17 -0.476669
11.18 -0.478852
11.19 -0.480171
11.2 -0.480598
11.21 -0.480132
11.22 -0.478856
11.23 -0.476798
11.24 -0.473988
11.25 -0.470459
11.26 -0.466245
11.27 -0.46132
11.28 -0.455773
11.29 -0.449645
11.3 -0.442964
11.31 -0.435756
11.32 -0.42804
11.33 -0.419819
11.34 -0.411085
11.35 -0.401886
11.36 -0.392231
11.37 -0.382122
11.38 -0.371562
11.39 -0.360551
11.4 -0.349053
11.41 -0.337094
11.42 -0.32469
11.43 -0.311847
11.44 -0.298572
11.45 -0.284877
11.46 -0.270767
11.47 -0.25624
11.48 -0.241356
11.49 -0.226147
11.5 -0.210648
11.51 -0.194897
11.52 -0.178938
11.53 -0.162811
11.54 -0.14658
11.55 -0.130307
11.56 -0.114048
11.57 -0.0978628
11.58 -0.081811
11.59 -0.0659561
11.6 -0.0503878
11.61 -0.0351429
11.62 -0.0202769
11.63 -0.00584263
11.64 0.00811065
11.65 0.0215379
11.66 0.034359
11.67 0.0465434
11.68 0.0580927
11.69 0.0689858
11.7 0.0792082
11.71 0.088752
11.72 0.0976148
11.73 0.105728
11.74 0.113184
11.75 0.120003
11.76 0.126212
11.77 0.131844
11.78 0.136933
11.79 0.141496
11.8 0.145579
11.81 0.149259
11.82 0.152581
11.83 0.15559
11.84 0.158329
11.85 0.160839
11.86 0.163137
11.87 0.165275
11.88 0.167278
11.89 0.169159
11.9 0.170925
11.91 0.172576
11.92 0.174094
11.93 0.17545
11.94 0.176626
11.95 0.177582
11.96 0.178274
11.97 0.178651
11.98 0.178655
11.99 0.178178
12 0.177185
12.01 0.175621
12.02 0.173424
12.03 0.170537
12.04 0.166904
12.05 0.162451
12.06 0.157089
12.07 0.150856
12.08 0.143732
12.09 0.135706
12.1 0.126781
12.11 0.116967
12.12 0.106214
12.13 0.0946084
12.14 0.0822207
12.15 0.069104
12.16 0.0553182
12.17 0.0409297
