# xPDFsuite Configuration #
[PDF]
wavelength = 0.1
dataformat = QA
inputfile = BiMsol6_insitu_700 C-00381.xy
backgroundfile = Quartz2mm-dist500-00000.xy
mode = xray
bgscale = 0.0042
composition = Bi2Fe4O9
outputtype = gr
qmaxinst = 24.998449118
qmin = 0.1
qmax = 21.4986662415
rmax = 80.0
rmin = 0.0
rstep = 0.01
rpoly = 0.9

[Misc]
inputdir = C:/Data/Seafile/CPH/Beamtime/Desy Oct 20/In situ data/Processed/BiMsol6/PDF
savedir = C:/Data/Seafile/CPH/Beamtime/Desy Oct 20/In situ data/PDF/BiMsol6
backgroundfilefull = C:/Data/Seafile/CPH/Beamtime/Desy Oct 20/In situ data/Processed/Standard_Empty_Cap/Quartz2mm-dist500-00000.xy

#### start data
#S 1
#L r($\AA$)  G($\AA^{-2}$)
0 0
0.01 0.0065824
0.02 0.0127945
0.03 0.0183195
0.04 0.0228728
0.05 0.0262157
0.06 0.028166
0.07 0.0285242
0.08 0.0272319
0.09 0.0244352
0.1 0.020254
0.11 0.0148748
0.12 0.00854225
0.13 0.0015485
0.14 -0.00577853
0.15 -0.0130245
0.16 -0.0198402
0.17 -0.0258976
0.18 -0.0309027
0.19 -0.0346095
0.2 -0.0367653
0.21 -0.0371971
0.22 -0.0360038
0.23 -0.0332523
0.24 -0.0290892
0.25 -0.0237365
0.26 -0.0174827
0.27 -0.0106561
0.28 -0.00373101
0.29 0.00287054
0.3 0.00873842
0.31 0.0134825
0.32 0.0167517
0.33 0.0181904
0.34 0.01745
0.35 0.0145818
0.36 0.00958108
0.37 0.00254947
0.38 -0.00630343
0.39 -0.016663
0.4 -0.0281651
0.41 -0.0401789
0.42 -0.0520844
0.43 -0.0632514
0.44 -0.0730269
0.45 -0.0807598
0.46 -0.0857611
0.47 -0.0871432
0.48 -0.084708
0.49 -0.0780917
0.5 -0.0670547
0.51 -0.051496
0.52 -0.0314636
0.53 -0.00687612
0.54 0.0217125
0.55 0.0535685
0.56 0.0880119
0.57 0.124246
0.58 0.161379
0.59 0.198439
0.6 0.234191
0.61 0.26765
0.62 0.297836
0.63 0.323825
0.64 0.344788
0.65 0.360009
0.66 0.3685
0.67 0.369851
0.68 0.36423
0.69 0.351636
0.7 0.332251
0.71 0.306443
0.72 0.274747
0.73 0.237356
0.74 0.195783
0.75 0.151
0.76 0.104042
0.77 0.0559821
0.78 0.00790284
0.79 -0.0390306
0.8 -0.0836429
0.81 -0.125124
0.82 -0.162701
0.83 -0.195739
0.84 -0.223755
0.85 -0.246431
0.86 -0.263052
0.87 -0.274166
0.88 -0.280071
0.89 -0.281141
0.9 -0.277875
0.91 -0.270882
0.92 -0.260768
0.93 -0.248309
0.94 -0.234515
0.95 -0.220166
0.96 -0.206008
0.97 -0.192734
0.98 -0.18096
0.99 -0.171431
1 -0.164448
1.01 -0.16022
1.02 -0.158882
1.03 -0.160449
1.04 -0.164817
1.05 -0.171842
1.06 -0.181309
1.07 -0.192595
1.08 -0.205253
1.09 -0.218802
1.1 -0.232751
1.11 -0.24662
1.12 -0.259878
1.13 -0.272099
1.14 -0.282978
1.15 -0.29226
1.16 -0.299776
1.17 -0.305438
1.18 -0.309214
1.19 -0.311057
1.2 -0.311321
1.21 -0.310238
1.22 -0.308083
1.23 -0.305167
1.24 -0.301813
1.25 -0.298361
1.26 -0.295164
1.27 -0.292492
1.28 -0.290569
1.29 -0.289563
1.3 -0.289579
1.31 -0.290661
1.32 -0.29288
1.33 -0.296005
1.34 -0.299872
1.35 -0.304262
1.36 -0.308924
1.37 -0.31358
1.38 -0.317904
1.39 -0.321569
1.4 -0.324335
1.41 -0.325974
1.42 -0.326308
1.43 -0.325213
1.44 -0.322626
1.45 -0.318398
1.46 -0.312782
1.47 -0.305947
1.48 -0.298113
1.49 -0.289553
1.5 -0.280583
1.51 -0.271563
1.52 -0.262913
1.53 -0.25499
1.54 -0.248133
1.55 -0.242645
1.56 -0.238784
1.57 -0.236748
1.58 -0.236868
1.59 -0.239022
1.6 -0.24313
1.61 -0.249063
1.62 -0.256615
1.63 -0.26551
1.64 -0.275429
1.65 -0.28595
1.66 -0.296566
1.67 -0.306827
1.68 -0.316285
1.69 -0.324505
1.7 -0.331089
1.71 -0.335477
1.72 -0.33748
1.73 -0.336954
1.74 -0.333785
1.75 -0.327944
1.76 -0.31949
1.77 -0.308513
1.78 -0.295135
1.79 -0.279901
1.8 -0.263191
1.81 -0.24543
1.82 -0.227077
1.83 -0.208603
1.84 -0.190541
1.85 -0.173384
1.86 -0.157519
1.87 -0.143297
1.88 -0.131005
1.89 -0.120855
1.9 -0.113015
1.91 -0.107733
1.92 -0.104715
1.93 -0.103824
1.94 -0.10485
1.95 -0.107519
1.96 -0.111504
1.97 -0.116478
1.98 -0.121978
1.99 -0.127562
2 -0.132848
2.01 -0.137478
2.02 -0.141136
2.03 -0.143554
2.04 -0.144355
2.05 -0.143575
2.06 -0.141177
2.07 -0.1372
2.08 -0.131758
2.09 -0.125034
2.1 -0.11723
2.11 -0.108693
2.12 -0.099826
2.13 -0.090998
2.14 -0.0825849
2.15 -0.0749575
2.16 -0.0684674
2.17 -0.0636232
2.18 -0.0605675
2.19 -0.0594919
2.2 -0.0605347
2.21 -0.0637654
2.22 -0.0691821
2.23 -0.0768019
2.24 -0.0865058
2.25 -0.0979257
2.26 -0.110792
2.27 -0.124794
2.28 -0.139591
2.29 -0.154825
2.3 -0.170103
2.31 -0.18503
2.32 -0.199278
2.33 -0.212556
2.34 -0.224615
2.35 -0.23526
2.36 -0.244295
2.37 -0.251562
2.38 -0.257191
2.39 -0.261243
2.4 -0.263831
2.41 -0.265122
2.42 -0.26532
2.43 -0.264613
2.44 -0.263346
2.45 -0.261819
2.46 -0.260302
2.47 -0.259057
2.48 -0.258321
2.49 -0.258324
2.5 -0.259314
2.51 -0.261338
2.52 -0.264463
2.53 -0.268709
2.54 -0.274048
2.55 -0.280409
2.56 -0.287733
2.57 -0.295816
2.58 -0.304436
2.59 -0.313389
2.6 -0.322463
2.61 -0.331441
2.62 -0.340105
2.63 -0.34819
2.64 -0.355561
2.65 -0.362073
2.66 -0.367613
2.67 -0.372101
2.68 -0.375488
2.69 -0.377692
2.7 -0.378754
2.71 -0.378784
2.72 -0.37786
2.73 -0.376076
2.74 -0.373537
2.75 -0.370354
2.76 -0.366588
2.77 -0.362411
2.78 -0.357909
2.79 -0.353151
2.8 -0.348184
2.81 -0.343032
2.82 -0.337683
2.83 -0.332101
2.84 -0.326244
2.85 -0.32004
2.86 -0.313397
2.87 -0.306217
2.88 -0.298393
2.89 -0.289726
2.9 -0.280181
2.91 -0.269679
2.92 -0.258149
2.93 -0.245544
2.94 -0.231841
2.95 -0.216997
2.96 -0.201023
2.97 -0.184068
2.98 -0.166229
2.99 -0.147628
3 -0.128409
3.01 -0.108731
3.02 -0.0887599
3.03 -0.0687176
3.04 -0.048791
3.05 -0.0291551
3.06 -0.00997328
3.07 0.00860742
3.08 0.0264344
3.09 0.0433525
3.1 0.0593594
3.11 0.074419
3.12 0.0885246
3.13 0.101698
3.14 0.11399
3.15 0.125412
3.16 0.136118
3.17 0.146248
3.18 0.155927
3.19 0.165285
3.2 0.174454
3.21 0.183559
3.22 0.192733
3.23 0.202076
3.24 0.211666
3.25 0.22156
3.26 0.23179
3.27 0.242366
3.28 0.253295
3.29 0.264519
3.3 0.275961
3.31 0.287537
3.32 0.29915
3.33 0.310693
3.34 0.322049
3.35 0.333055
3.36 0.343621
3.37 0.353638
3.38 0.363009
3.39 0.37165
3.4 0.379492
3.41 0.386432
3.42 0.392443
3.43 0.397565
3.44 0.401812
3.45 0.405217
3.46 0.407828
3.47 0.40971
3.48 0.410873
3.49 0.41149
3.5 0.411657
3.51 0.411473
3.52 0.411039
3.53 0.410454
3.54 0.409816
3.55 0.409228
3.56 0.408772
3.57 0.40852
3.58 0.408532
3.59 0.408862
3.6 0.409552
3.61 0.410677
3.62 0.412227
3.63 0.41421
3.64 0.416633
3.65 0.419495
3.66 0.422793
3.67 0.426534
3.68 0.430717
3.69 0.435293
3.7 0.440241
3.71 0.445539
3.72 0.451161
3.73 0.457077
3.74 0.463276
3.75 0.469698
3.76 0.476294
3.77 0.483015
3.78 0.489808
3.79 0.496613
3.8 0.50336
3.81 0.509958
3.82 0.516333
3.83 0.5224
3.84 0.528069
3.85 0.533245
3.86 0.537834
3.87 0.541671
3.88 0.544682
3.89 0.546794
3.9 0.547916
3.91 0.547963
3.92 0.546854
3.93 0.544493
3.94 0.540707
3.95 0.535567
3.96 0.529033
3.97 0.521074
3.98 0.511674
3.99 0.500823
4 0.488424
4.01 0.474531
4.02 0.459236
4.03 0.442575
4.04 0.424591
4.05 0.405337
4.06 0.384864
4.07 0.363129
4.08 0.340338
4.09 0.316572
4.1 0.291915
4.11 0.266459
4.12 0.2403
4.13 0.213512
4.14 0.186221
4.15 0.158574
4.16 0.130689
4.17 0.102688
4.18 0.0746997
4.19 0.0468524
4.2 0.019324
4.21 -0.00776998
4.22 -0.0342993
4.23 -0.0601354
4.24 -0.0851543
4.25 -0.109239
4.26 -0.132226
4.27 -0.153982
4.28 -0.174501
4.29 -0.193717
4.3 -0.211584
4.31 -0.228071
4.32 -0.24317
4.33 -0.256753
4.34 -0.268976
4.35 -0.279915
4.36 -0.28964
4.37 -0.29824
4.38 -0.305816
4.39 -0.31245
4.4 -0.318247
4.41 -0.323405
4.42 -0.328047
4.43 -0.332297
4.44 -0.336268
4.45 -0.340067
4.46 -0.343786
4.47 -0.347511
4.48 -0.351299
4.49 -0.355184
4.5 -0.359182
4.51 -0.36329
4.52 -0.367484
4.53 -0.371722
4.54 -0.375939
4.55 -0.380063
4.56 -0.384019
4.57 -0.387725
4.58 -0.391096
4.59 -0.394015
4.6 -0.396418
4.61 -0.398259
4.62 -0.399492
4.63 -0.400086
4.64 -0.400027
4.65 -0.399312
4.66 -0.397916
4.67 -0.395953
4.68 -0.393489
4.69 -0.390603
4.7 -0.387389
4.71 -0.38395
4.72 -0.380394
4.73 -0.376853
4.74 -0.37344
4.75 -0.37026
4.76 -0.367409
4.77 -0.36497
4.78 -0.363015
4.79 -0.361657
4.8 -0.360872
4.81 -0.360669
4.82 -0.361042
4.83 -0.361967
4.84 -0.363403
4.85 -0.365319
4.86 -0.367639
4.87 -0.370261
4.88 -0.373105
4.89 -0.376094
4.9 -0.379147
4.91 -0.382194
4.92 -0.385155
4.93 -0.387979
4.94 -0.390627
4.95 -0.39307
4.96 -0.395294
4.97 -0.397293
4.98 -0.399066
4.99 -0.400628
5 -0.402018
5.01 -0.403263
5.02 -0.404389
5.03 -0.405421
5.04 -0.406376
5.05 -0.407258
5.06 -0.408065
5.07 -0.40878
5.08 -0.409365
5.09 -0.40977
5.1 -0.409924
5.11 -0.409727
5.12 -0.409045
5.13 -0.40779
5.14 -0.40584
5.15 -0.403063
5.16 -0.399328
5.17 -0.394503
5.18 -0.388344
5.19 -0.380794
5.2 -0.371789
5.21 -0.361244
5.22 -0.349095
5.23 -0.335298
5.24 -0.319791
5.25 -0.302466
5.26 -0.283507
5.27 -0.262966
5.28 -0.240914
5.29 -0.217442
5.3 -0.19265
5.31 -0.166571
5.32 -0.13939
5.33 -0.111281
5.34 -0.0823718
5.35 -0.0527881
5.36 -0.0226494
5.37 0.00793607
5.38 0.0388833
5.39 0.0700571
5.4 0.101375
5.41 0.132765
5.42 0.164159
5.43 0.195497
5.44 0.226709
5.45 0.25773
5.46 0.288502
5.47 0.318956
5.48 0.349012
5.49 0.378578
5.5 0.407545
5.51 0.435694
5.52 0.462952
5.53 0.489159
5.54 0.514139
5.55 0.537706
5.56 0.559659
5.57 0.579684
5.58 0.597528
5.59 0.613103
5.6 0.626218
5.61 0.636695
5.62 0.644376
5.63 0.649131
5.64 0.650523
5.65 0.648786
5.66 0.643927
5.67 0.635968
5.68 0.624969
5.69 0.611032
5.7 0.594183
5.71 0.574554
5.72 0.552566
5.73 0.528463
5.74 0.50251
5.75 0.474988
5.76 0.446186
5.77 0.416325
5.78 0.385797
5.79 0.354891
5.8 0.323857
5.81 0.292921
5.82 0.262283
5.83 0.232132
5.84 0.202648
5.85 0.173886
5.86 0.145908
5.87 0.118749
5.88 0.0924164
5.89 0.0668969
5.9 0.0422225
5.91 0.0183005
5.92 -0.00494259
5.93 -0.0275552
5.94 -0.0495788
5.95 -0.0710431
5.96 -0.0919498
5.97 -0.112249
5.98 -0.131957
5.99 -0.151017
6 -0.169345
6.01 -0.186837
6.02 -0.203368
6.03 -0.218702
6.04 -0.232699
6.05 -0.245245
6.06 -0.256178
6.07 -0.265342
6.08 -0.272597
6.09 -0.277794
6.1 -0.280621
6.11 -0.281237
6.12 -0.279612
6.13 -0.275757
6.14 -0.269719
6.15 -0.261586
6.16 -0.251365
6.17 -0.239269
6.18 -0.225601
6.19 -0.21059
6.2 -0.194481
6.21 -0.177537
6.22 -0.160028
6.23 -0.142219
6.24 -0.12443
6.25 -0.106905
6.26 -0.0898655
6.27 -0.0735068
6.28 -0.0579917
6.29 -0.0435037
6.3 -0.0301517
6.31 -0.0179113
6.32 -0.00678301
6.33 0.00326995
6.34 0.0123185
6.35 0.0204642
6.36 0.0277683
6.37 0.0344705
6.38 0.0407451
6.39 0.0467643
6.4 0.0527013
6.41 0.0587241
6.42 0.0650065
6.43 0.0717216
6.44 0.0789655
6.45 0.0868316
6.46 0.0953879
6.47 0.104677
6.48 0.114714
6.49 0.125558
6.5 0.137115
6.51 0.149314
6.52 0.16208
6.53 0.175331
6.54 0.188975
6.55 0.202924
6.56 0.217083
6.57 0.231341
6.58 0.245622
6.59 0.25986
6.6 0.274002
6.61 0.288014
6.62 0.30186
6.63 0.315544
6.64 0.329083
6.65 0.342497
6.66 0.355819
6.67 0.369084
6.68 0.38233
6.69 0.395599
6.7 0.40892
6.71 0.42231
6.72 0.435775
6.73 0.449304
6.74 0.462867
6.75 0.476412
6.76 0.489857
6.77 0.50311
6.78 0.516058
6.79 0.528572
6.8 0.540508
6.81 0.551704
6.82 0.561885
6.83 0.570964
6.84 0.578775
6.85 0.585154
6.86 0.589944
6.87 0.593004
6.88 0.594085
6.89 0.593074
6.9 0.589993
6.91 0.584782
6.92 0.577404
6.93 0.567845
6.94 0.556116
6.95 0.542009
6.96 0.525825
6.97 0.507645
6.98 0.487562
6.99 0.465678
7 0.442109
7.01 0.416905
7.02 0.390189
7.03 0.362193
7.04 0.333048
7.05 0.30288
7.06 0.271813
7.07 0.239967
7.08 0.2074
7.09 0.174292
7.1 0.140754
7.11 0.106888
7.12 0.0727892
7.13 0.0385508
7.14 0.00426754
7.15 -0.0299539
7.16 -0.0640186
7.17 -0.0978324
7.18 -0.131299
7.19 -0.164321
7.2 -0.196798
7.21 -0.228559
7.22 -0.259531
7.23 -0.289629
7.24 -0.318751
7.25 -0.346798
7.26 -0.373678
7.27 -0.399264
7.28 -0.423387
7.29 -0.446092
7.3 -0.467324
7.31 -0.48704
7.32 -0.505209
7.33 -0.521817
7.34 -0.536737
7.35 -0.550056
7.36 -0.561861
7.37 -0.572196
7.38 -0.581115
7.39 -0.588682
7.4 -0.594951
7.41 -0.599912
7.42 -0.603776
7.43 -0.606628
7.44 -0.608554
7.45 -0.609637
7.46 -0.609958
7.47 -0.609546
7.48 -0.608492
7.49 -0.606887
7.5 -0.604778
7.51 -0.602204
7.52 -0.599197
7.53 -0.595775
7.54 -0.591913
7.55 -0.587658
7.56 -0.58301
7.57 -0.577961
7.58 -0.5725
7.59 -0.566613
7.6 -0.560257
7.61 -0.553411
7.62 -0.546086
7.63 -0.538267
7.64 -0.52994
7.65 -0.521094
7.66 -0.511724
7.67 -0.501765
7.68 -0.491277
7.69 -0.480266
7.7 -0.468743
7.71 -0.456723
7.72 -0.444222
7.73 -0.431244
7.74 -0.417811
7.75 -0.403988
7.76 -0.389812
7.77 -0.375325
7.78 -0.360574
7.79 -0.34561
7.8 -0.33048
7.81 -0.315265
7.82 -0.300035
7.83 -0.28486
7.84 -0.269814
7.85 -0.254976
7.86 -0.240439
7.87 -0.226312
7.88 -0.212655
7.89 -0.199547
7.9 -0.187069
7.91 -0.175295
7.92 -0.164296
7.93 -0.154216
7.94 -0.145063
7.95 -0.136857
7.96 -0.129632
7.97 -0.123408
7.98 -0.118194
7.99 -0.114013
8 -0.110909
8.01 -0.10876
8.02 -0.107522
8.03 -0.107144
8.04 -0.107564
8.05 -0.108713
8.06 -0.110564
8.07 -0.113004
8.08 -0.115929
8.09 -0.119265
8.1 -0.122939
8.11 -0.126885
8.12 -0.131044
8.13 -0.135375
8.14 -0.139815
8.15 -0.144334
8.16 -0.148911
8.17 -0.153533
8.18 -0.158193
8.19 -0.162896
8.2 -0.167647
8.21 -0.172452
8.22 -0.177318
8.23 -0.182248
8.24 -0.18724
8.25 -0.192285
8.26 -0.197364
8.27 -0.202436
8.28 -0.207452
8.29 -0.212351
8.3 -0.217055
8.31 -0.221474
8.32 -0.225474
8.33 -0.228918
8.34 -0.231702
8.35 -0.23369
8.36 -0.234745
8.37 -0.234728
8.38 -0.233504
8.39 -0.230783
8.4 -0.226573
8.41 -0.220784
8.42 -0.213332
8.43 -0.204152
8.44 -0.193201
8.45 -0.180379
8.46 -0.165646
8.47 -0.149165
8.48 -0.130992
8.49 -0.111205
8.5 -0.0899006
8.51 -0.0671927
8.52 -0.0430962
8.53 -0.0178661
8.54 0.00832929
8.55 0.0353437
8.56 0.0630326
8.57 0.0912564
8.58 0.119893
8.59 0.14882
8.6 0.1779
8.61 0.207045
8.62 0.236177
8.63 0.265237
8.64 0.294176
8.65 0.322945
8.66 0.351527
8.67 0.379914
8.68 0.408096
8.69 0.436066
8.7 0.463814
8.71 0.491321
8.72 0.518542
8.73 0.545467
8.74 0.572047
8.75 0.598221
8.76 0.623909
8.77 0.64902
8.78 0.673382
8.79 0.696877
8.8 0.719392
8.81 0.740778
8.82 0.760878
8.83 0.779528
8.84 0.796544
8.85 0.81158
8.86 0.824657
8.87 0.835631
8.88 0.844373
8.89 0.850769
8.9 0.854724
8.91 0.855996
8.92 0.854556
8.93 0.850511
8.94 0.843855
8.95 0.834605
8.96 0.822794
8.97 0.808475
8.98 0.791447
8.99 0.772086
9 0.750489
9.01 0.726763
9.02 0.701019
9.03 0.673372
9.04 0.643852
9.05 0.612578
9.06 0.579781
9.07 0.545574
9.08 0.510074
9.09 0.473392
9.1 0.435641
9.11 0.396845
9.12 0.357223
9.13 0.316902
9.14 0.276008
9.15 0.234671
9.16 0.193029
9.17 0.151229
9.18 0.109453
9.19 0.0678803
9.2 0.0266887
9.21 -0.0139335
9.22 -0.0537913
9.23 -0.0926838
9.24 -0.130275
9.25 -0.166422
9.26 -0.20095
9.27 -0.233663
9.28 -0.264373
9.29 -0.292908
9.3 -0.31903
9.31 -0.34245
9.32 -0.363259
9.33 -0.381366
9.34 -0.396708
9.35 -0.409247
9.36 -0.41897
9.37 -0.425655
9.38 -0.429493
9.39 -0.430642
9.4 -0.429183
9.41 -0.425219
9.42 -0.418864
9.43 -0.4102
9.44 -0.399214
9.45 -0.386261
9.46 -0.371479
9.47 -0.355001
9.48 -0.33696
9.49 -0.317479
9.5 -0.296588
9.51 -0.274449
9.52 -0.251218
9.53 -0.226987
9.54 -0.20184
9.55 -0.17586
9.56 -0.149118
9.57 -0.121635
9.58 -0.0935696
9.59 -0.0650063
9.6 -0.0360358
9.61 -0.00675685
9.62 0.0227222
9.63 0.0522791
9.64 0.081762
9.65 0.111024
9.66 0.139913
9.67 0.168266
9.68 0.195918
9.69 0.222696
9.7 0.24829
9.71 0.272633
9.72 0.295568
9.73 0.316943
9.74 0.336621
9.75 0.354483
9.76 0.370326
9.77 0.384034
9.78 0.395687
9.79 0.405262
9.8 0.412761
9.81 0.418213
9.82 0.421668
9.83 0.423009
9.84 0.422518
9.85 0.420332
9.86 0.416579
9.87 0.411391
9.88 0.404909
9.89 0.397233
9.9 0.388482
9.91 0.378873
9.92 0.368526
9.93 0.35755
9.94 0.346037
9.95 0.334068
9.96 0.321674
9.97 0.308935
9.98 0.295888
9.99 0.282552
10 0.268934
10.01 0.255032
10.02 0.240832
10.03 0.226305
10.04 0.211469
10.05 0.196318
10.06 0.180853
10.07 0.165086
10.08 0.149034
10.09 0.132711
10.1 0.116179
10.11 0.099502
10.12 0.0827478
10.13 0.0659921
10.14 0.0493183
10.15 0.0328199
10.16 0.0166205
10.17 0.000791745
10.18 -0.0145802
10.19 -0.0294161
10.2 -0.043646
10.21 -0.0572114
10.22 -0.0700152
10.23 -0.082044
10.24 -0.0933216
10.25 -0.103855
10.26 -0.113667
10.27 -0.122797
10.28 -0.131289
10.29 -0.139158
10.3 -0.146544
10.31 -0.153526
10.32 -0.160184
10.33 -0.166597
10.34 -0.172843
10.35 -0.178987
10.36 -0.185101
10.37 -0.191234
10.38 -0.197423
10.39 -0.203686
10.4 -0.210032
10.41 -0.216453
10.42 -0.222935
10.43 -0.229435
10.44 -0.235914
10.45 -0.242322
10.46 -0.248611
10.47 -0.254726
10.48 -0.260606
10.49 -0.266195
10.5 -0.27147
10.51 -0.276407
10.52 -0.280989
10.53 -0.285214
10.54 -0.289092
10.55 -0.292614
10.56 -0.295849
10.57 -0.29885
10.58 -0.301675
10.59 -0.304384
10.6 -0.307047
10.61 -0.309734
10.62 -0.312524
10.63 -0.315474
10.64 -0.318639
10.65 -0.322058
10.66 -0.325764
10.67 -0.329772
10.68 -0.334112
10.69 -0.338747
10.7 -0.343639
10.71 -0.348743
10.72 -0.354004
10.73 -0.359357
10.74 -0.364727
10.75 -0.370023
10.76 -0.375167
10.77 -0.380082
10.78 -0.384698
10.79 -0.388954
10.8 -0.392797
10.81 -0.396152
10.82 -0.399011
10.83 -0.401388
10.84 -0.403293
10.85 -0.404751
10.86 -0.405803
10.87 -0.406496
10.88 -0.406877
10.89 -0.40705
10.9 -0.407093
10.91 -0.407079
10.92 -0.407082
10.93 -0.407169
10.94 -0.40741
10.95 -0.407852
10.96 -0.408516
10.97 -0.409413
10.98 -0.410537
10.99 -0.411864
11 -0.413353
11.01 -0.414949
11.02 -0.416559
11.03 -0.418094
11.04 -0.419457
11.05 -0.420543
11.06 -0.421246
11.07 -0.421425
11.08 -0.420963
11.09 -0.419796
11.1 -0.417845
11.11 -0.415044
11.12 -0.41134
11.13 -0.406703
11.14 -0.401012
11.15 -0.394376
11.16 -0.386829
11.17 -0.378416
11.18 -0.369199
11.19 -0.359252
11.2 -0.348635
11.21 -0.337443
11.22 -0.325818
11.23 -0.313859
11.24 -0.301664
11.25 -0.289325
11.26 -0.276923
11.27 -0.264542
11.28 -0.252243
11.29 -0.240073
11.3 -0.228059
11.31 -0.216219
11.32 -0.204552
11.33 -0.193053
11.34 -0.181701
11.35 -0.170448
11.36 -0.159252
11.37 -0.148065
11.38 -0.136839
11.39 -0.125525
11.4 -0.114057
11.41 -0.102398
11.42 -0.090514
11.43 -0.0783766
11.44 -0.0659647
11.45 -0.0532656
11.46 -0.0402681
11.47 -0.0269574
11.48 -0.0133731
11.49 0.000466813
11.5 0.0145401
11.51 0.0288221
11.52 0.043287
11.53 0.0579202
11.54 0.0726906
11.55 0.0875742
11.56 0.102558
11.57 0.117635
11.58 0.132805
11.59 0.148073
11.6 0.163462
11.61 0.17898
11.62 0.194647
11.63 0.210486
11.64 0.226519
11.65 0.242768
11.66 0.259268
11.67 0.276028
11.68 0.29304
11.69 0.310298
11.7 0.327787
11.71 0.345478
11.72 0.363332
11.73 0.381302
11.74 0.399303
11.75 0.417258
11.76 0.435076
11.77 0.452661
11.78 0.469909
11.79 0.486681
11.8 0.502843
11.81 0.518313
11.82 0.532982
11.83 0.546745
11.84 0.559505
11.85 0.571173
11.86 0.581535
11.87 0.590633
11.88 0.598425
11.89 0.60487
11.9 0.609937
11.91 0.613608
11.92 0.615814
11.93 0.616518
11.94 0.615834
11.95 0.613781
11.96 0.610382
11.97 0.605664
11.98 0.599657
11.99 0.592271
12 0.583636
12.01 0.573807
12.02 0.562811
12.03 0.550675
12.04 0.537425
12.05 0.523052
12.06 0.507531
12.07 0.490983
12.08 0.47344
12.09 0.45494
12.1 0.435527
12.11 0.415252
12.12 0.394113
12.13 0.372237
12.14 0.349732
12.15 0.326694
12.16 0.303232
12.17 0.279462
12.18 0.255512
12.19 0.231534
12.2 0.20769
12.21 0.184128
12.22 0.161001
12.23 0.138459
12.24 0.116652
12.25 0.0957972
12.26 0.076018
12.27 0.0573954
