# xPDFsuite Configuration #
[PDF]
wavelength = 0.1
dataformat = QA
inputfile = BiMsol6_insitu_700 C-00360.xy
backgroundfile = Quartz2mm-dist500-00000.xy
mode = xray
bgscale = 0.0042
composition = Bi2Fe4O9
outputtype = gr
qmaxinst = 24.998449118
qmin = 0.1
qmax = 21.4986662415
rmax = 80.0
rmin = 0.0
rstep = 0.01
rpoly = 0.9

[Misc]
inputdir = C:/Data/Seafile/CPH/Beamtime/Desy Oct 20/In situ data/Processed/BiMsol6/PDF
savedir = C:/Data/Seafile/CPH/Beamtime/Desy Oct 20/In situ data/PDF/BiMsol6
backgroundfilefull = C:/Data/Seafile/CPH/Beamtime/Desy Oct 20/In situ data/Processed/Standard_Empty_Cap/Quartz2mm-dist500-00000.xy

#### start data
#S 1
#L r($\AA$)  G($\AA^{-2}$)
0 0
0.01 0.00654522
0.02 0.0127215
0.03 0.018213
0.04 0.0227365
0.05 0.0260539
0.06 0.0279841
0.07 0.0283285
0.08 0.0270293
0.09 0.0242323
0.1 0.0200576
0.11 0.0146915
0.12 0.0083782
0.13 0.00140928
0.14 -0.00588765
0.15 -0.0130998
0.16 -0.0198788
0.17 -0.025898
0.18 -0.0308645
0.19 -0.0345335
0.2 -0.0366536
0.21 -0.0370533
0.22 -0.0358324
0.23 -0.0330587
0.24 -0.0288799
0.25 -0.0235184
0.26 -0.0172636
0.27 -0.0104446
0.28 -0.00353555
0.29 0.00304183
0.3 0.00887769
0.31 0.0135824
0.32 0.0168055
0.33 0.0181922
0.34 0.0173949
0.35 0.0144669
0.36 0.00940484
0.37 0.00231216
0.38 -0.00659967
0.39 -0.017014
0.4 -0.0285641
0.41 -0.0406168
0.42 -0.0525504
0.43 -0.0637324
0.44 -0.0735082
0.45 -0.0812248
0.46 -0.0861912
0.47 -0.0875172
0.48 -0.0850056
0.49 -0.0782925
0.5 -0.0671388
0.51 -0.0514441
0.52 -0.031258
0.53 -0.00650052
0.54 0.0222708
0.55 0.0543177
0.56 0.088956
0.57 0.125384
0.58 0.162705
0.59 0.199941
0.6 0.235847
0.61 0.269437
0.62 0.29972
0.63 0.325771
0.64 0.346752
0.65 0.361944
0.66 0.370352
0.67 0.371562
0.68 0.365745
0.69 0.352898
0.7 0.333207
0.71 0.307039
0.72 0.274937
0.73 0.237096
0.74 0.195038
0.75 0.149748
0.76 0.10227
0.77 0.0536869
0.78 0.0050943
0.79 -0.0423293
0.8 -0.0873942
0.81 -0.12928
0.82 -0.167204
0.83 -0.200519
0.84 -0.228735
0.85 -0.251528
0.86 -0.268167
0.87 -0.279205
0.88 -0.284943
0.89 -0.285755
0.9 -0.282147
0.91 -0.274735
0.92 -0.264132
0.93 -0.251123
0.94 -0.236738
0.95 -0.221772
0.96 -0.206986
0.97 -0.193089
0.98 -0.180712
0.99 -0.170621
1 -0.163131
1.01 -0.158461
1.02 -0.156757
1.03 -0.158042
1.04 -0.162219
1.05 -0.169148
1.06 -0.178621
1.07 -0.190002
1.08 -0.202837
1.09 -0.216637
1.1 -0.230901
1.11 -0.245134
1.12 -0.258791
1.13 -0.271428
1.14 -0.282722
1.15 -0.292402
1.16 -0.300281
1.17 -0.306259
1.18 -0.310289
1.19 -0.312306
1.2 -0.312663
1.21 -0.311587
1.22 -0.309352
1.23 -0.30627
1.24 -0.302669
1.25 -0.298892
1.26 -0.295306
1.27 -0.292197
1.28 -0.289805
1.29 -0.288314
1.3 -0.287845
1.31 -0.288461
1.32 -0.290255
1.33 -0.29301
1.34 -0.296574
1.35 -0.300743
1.36 -0.305272
1.37 -0.30989
1.38 -0.314282
1.39 -0.318118
1.4 -0.321148
1.41 -0.323138
1.42 -0.323898
1.43 -0.323292
1.44 -0.321242
1.45 -0.317583
1.46 -0.312545
1.47 -0.306278
1.48 -0.298985
1.49 -0.290921
1.5 -0.282386
1.51 -0.273721
1.52 -0.265332
1.53 -0.257572
1.54 -0.250776
1.55 -0.245245
1.56 -0.241236
1.57 -0.238952
1.58 -0.238722
1.59 -0.240445
1.6 -0.244051
1.61 -0.249427
1.62 -0.256381
1.63 -0.26465
1.64 -0.273934
1.65 -0.283824
1.66 -0.293828
1.67 -0.303508
1.68 -0.312422
1.69 -0.320147
1.7 -0.326285
1.71 -0.330287
1.72 -0.331956
1.73 -0.331148
1.74 -0.32774
1.75 -0.321698
1.76 -0.313075
1.77 -0.301951
1.78 -0.288441
1.79 -0.273079
1.8 -0.256238
1.81 -0.238338
1.82 -0.219833
1.83 -0.201194
1.84 -0.182952
1.85 -0.165603
1.86 -0.149541
1.87 -0.135125
1.88 -0.12265
1.89 -0.112339
1.9 -0.104373
1.91 -0.0990153
1.92 -0.0959827
1.93 -0.095148
1.94 -0.0963102
1.95 -0.0992029
1.96 -0.103505
1.97 -0.108898
1.98 -0.114914
1.99 -0.121103
2 -0.127073
2.01 -0.132454
2.02 -0.136916
2.03 -0.14017
2.04 -0.141822
2.05 -0.141881
2.06 -0.140287
2.07 -0.137058
2.08 -0.132286
2.09 -0.126135
2.1 -0.118784
2.11 -0.110562
2.12 -0.101875
2.13 -0.0930856
2.14 -0.0845722
2.15 -0.0767124
2.16 -0.0698696
2.17 -0.0645606
2.18 -0.0609628
2.19 -0.0592951
2.2 -0.0597255
2.21 -0.062355
2.22 -0.0672147
2.23 -0.0743597
2.24 -0.0837101
2.25 -0.0949206
2.26 -0.107747
2.27 -0.121898
2.28 -0.13705
2.29 -0.152851
2.3 -0.168933
2.31 -0.184875
2.32 -0.200331
2.33 -0.214987
2.34 -0.228568
2.35 -0.240844
2.36 -0.251581
2.37 -0.260571
2.38 -0.267895
2.39 -0.273563
2.4 -0.277645
2.41 -0.280259
2.42 -0.28157
2.43 -0.281705
2.44 -0.280989
2.45 -0.279707
2.46 -0.278118
2.47 -0.276478
2.48 -0.275029
2.49 -0.27401
2.5 -0.273677
2.51 -0.274137
2.52 -0.2755
2.53 -0.277835
2.54 -0.281166
2.55 -0.285477
2.56 -0.290778
2.57 -0.296926
2.58 -0.303756
2.59 -0.311118
2.6 -0.318846
2.61 -0.326763
2.62 -0.334689
2.63 -0.342415
2.64 -0.349781
2.65 -0.356644
2.66 -0.362879
2.67 -0.368384
2.68 -0.373081
2.69 -0.37686
2.7 -0.379701
2.71 -0.381647
2.72 -0.382716
2.73 -0.382936
2.74 -0.382351
2.75 -0.381006
2.76 -0.378875
2.77 -0.376091
2.78 -0.372694
2.79 -0.36871
2.8 -0.364159
2.81 -0.359044
2.82 -0.353321
2.83 -0.346958
2.84 -0.339952
2.85 -0.332257
2.86 -0.32382
2.87 -0.314586
2.88 -0.304504
2.89 -0.293425
2.9 -0.281399
2.91 -0.268415
2.92 -0.254472
2.93 -0.239589
2.94 -0.223805
2.95 -0.20715
2.96 -0.189703
2.97 -0.171636
2.98 -0.153078
2.99 -0.134174
3 -0.11508
3.01 -0.0959591
3.02 -0.0770048
3.03 -0.0583853
3.04 -0.0402473
3.05 -0.0227259
3.06 -0.00593745
3.07 0.0100245
3.08 0.0250622
3.09 0.0390846
3.1 0.0521662
3.11 0.0643335
3.12 0.0756408
3.13 0.0861681
3.14 0.0960183
3.15 0.105277
3.16 0.11413
3.17 0.12274
3.18 0.131257
3.19 0.139827
3.2 0.148588
3.21 0.157674
3.22 0.167237
3.23 0.177324
3.24 0.187991
3.25 0.199266
3.26 0.211151
3.27 0.223619
3.28 0.236654
3.29 0.250146
3.3 0.263972
3.31 0.27801
3.32 0.292128
3.33 0.306186
3.34 0.320033
3.35 0.333476
3.36 0.346402
3.37 0.358687
3.38 0.370218
3.39 0.380903
3.4 0.390666
3.41 0.39939
3.42 0.407053
3.43 0.413704
3.44 0.419363
3.45 0.424066
3.46 0.427871
3.47 0.430849
3.48 0.433009
3.49 0.43454
3.5 0.435544
3.51 0.436125
3.52 0.436387
3.53 0.436429
3.54 0.436345
3.55 0.436233
3.56 0.436177
3.57 0.436241
3.58 0.436481
3.59 0.436939
3.6 0.437651
3.61 0.43867
3.62 0.439984
3.63 0.441597
3.64 0.443505
3.65 0.445702
3.66 0.448177
3.67 0.450926
3.68 0.45394
3.69 0.45718
3.7 0.460628
3.71 0.464263
3.72 0.468065
3.73 0.47201
3.74 0.476085
3.75 0.48025
3.76 0.484472
3.77 0.488718
3.78 0.492948
3.79 0.497118
3.8 0.501176
3.81 0.505048
3.82 0.508685
3.83 0.512018
3.84 0.514978
3.85 0.517489
3.86 0.519474
3.87 0.520796
3.88 0.521396
3.89 0.521216
3.9 0.52018
3.91 0.518217
3.92 0.515262
3.93 0.511233
3.94 0.505985
3.95 0.499581
3.96 0.491988
3.97 0.483183
3.98 0.473153
3.99 0.461893
4 0.449321
4.01 0.435485
4.02 0.420466
4.03 0.404294
4.04 0.387008
4.05 0.368652
4.06 0.349268
4.07 0.328821
4.08 0.307483
4.09 0.28532
4.1 0.262403
4.11 0.238807
4.12 0.214612
4.13 0.189877
4.14 0.164708
4.15 0.139229
4.16 0.113539
4.17 0.0877448
4.18 0.0619551
4.19 0.0362832
4.2 0.0108854
4.21 -0.0141339
4.22 -0.0386567
4.23 -0.0625652
4.24 -0.0857446
4.25 -0.108085
4.26 -0.129432
4.27 -0.14966
4.28 -0.168755
4.29 -0.18665
4.3 -0.203296
4.31 -0.218658
4.32 -0.232719
4.33 -0.245353
4.34 -0.256697
4.35 -0.266816
4.36 -0.27577
4.37 -0.283636
4.38 -0.290503
4.39 -0.296444
4.4 -0.301552
4.41 -0.306013
4.42 -0.309943
4.43 -0.313459
4.44 -0.31667
4.45 -0.319676
4.46 -0.322566
4.47 -0.325428
4.48 -0.328322
4.49 -0.331286
4.5 -0.33434
4.51 -0.337487
4.52 -0.340713
4.53 -0.343984
4.54 -0.347246
4.55 -0.350439
4.56 -0.353496
4.57 -0.356344
4.58 -0.358911
4.59 -0.361092
4.6 -0.362828
4.61 -0.364079
4.62 -0.364803
4.63 -0.364973
4.64 -0.364576
4.65 -0.36361
4.66 -0.362056
4.67 -0.360017
4.68 -0.357553
4.69 -0.354737
4.7 -0.351657
4.71 -0.348407
4.72 -0.345091
4.73 -0.341829
4.74 -0.338725
4.75 -0.335874
4.76 -0.333365
4.77 -0.331274
4.78 -0.329666
4.79 -0.32865
4.8 -0.328195
4.81 -0.32831
4.82 -0.328986
4.83 -0.330199
4.84 -0.331908
4.85 -0.334081
4.86 -0.336646
4.87 -0.339503
4.88 -0.342577
4.89 -0.345789
4.9 -0.349065
4.91 -0.352335
4.92 -0.35552
4.93 -0.358573
4.94 -0.361453
4.95 -0.364132
4.96 -0.366594
4.97 -0.368834
4.98 -0.370848
4.99 -0.372648
5 -0.374271
5.01 -0.375742
5.02 -0.377086
5.03 -0.378326
5.04 -0.379481
5.05 -0.380551
5.06 -0.38154
5.07 -0.382433
5.08 -0.383198
5.09 -0.38379
5.1 -0.384148
5.11 -0.384181
5.12 -0.38377
5.13 -0.382837
5.14 -0.381271
5.15 -0.378957
5.16 -0.375775
5.17 -0.371609
5.18 -0.366241
5.19 -0.35962
5.2 -0.351691
5.21 -0.34238
5.22 -0.331632
5.23 -0.319409
5.24 -0.305659
5.25 -0.290289
5.26 -0.273468
5.27 -0.255243
5.28 -0.235683
5.29 -0.214869
5.3 -0.192895
5.31 -0.169792
5.32 -0.145726
5.33 -0.120852
5.34 -0.0952816
5.35 -0.0691252
5.36 -0.0424864
5.37 -0.0154574
5.38 0.0118914
5.39 0.0394465
5.4 0.0671414
5.41 0.0949179
5.42 0.122724
5.43 0.150514
5.44 0.178235
5.45 0.205835
5.46 0.233268
5.47 0.260475
5.48 0.287389
5.49 0.313928
5.5 0.339997
5.51 0.365403
5.52 0.390072
5.53 0.413853
5.54 0.436584
5.55 0.458088
5.56 0.478177
5.57 0.496558
5.58 0.512991
5.59 0.527386
5.6 0.539556
5.61 0.549333
5.62 0.556563
5.63 0.56112
5.64 0.562594
5.65 0.561195
5.66 0.556924
5.67 0.549798
5.68 0.539871
5.69 0.527237
5.7 0.511919
5.71 0.494043
5.72 0.474002
5.73 0.452027
5.74 0.42837
5.75 0.403299
5.76 0.37709
5.77 0.349968
5.78 0.322303
5.79 0.294372
5.8 0.266422
5.81 0.238674
5.82 0.211325
5.83 0.184568
5.84 0.15859
5.85 0.133439
5.86 0.109181
5.87 0.0858529
5.88 0.0634645
5.89 0.0420029
5.9 0.0215087
5.91 0.00187853
5.92 -0.0169725
5.93 -0.0351043
5.94 -0.0525738
5.95 -0.0694309
5.96 -0.0857019
5.97 -0.10137
5.98 -0.116489
5.99 -0.131039
6 -0.144977
6.01 -0.158244
6.02 -0.170759
6.03 -0.182352
6.04 -0.192926
6.05 -0.202395
6.06 -0.210637
6.07 -0.217528
6.08 -0.222952
6.09 -0.226787
6.1 -0.228777
6.11 -0.229031
6.12 -0.227512
6.13 -0.224211
6.14 -0.219149
6.15 -0.212375
6.16 -0.203875
6.17 -0.193794
6.18 -0.182361
6.19 -0.16974
6.2 -0.156114
6.21 -0.141677
6.22 -0.126635
6.23 -0.111173
6.24 -0.0955593
6.25 -0.0799903
6.26 -0.0646469
6.27 -0.0496926
6.28 -0.0352693
6.29 -0.021534
6.3 -0.0085959
6.31 0.00353224
6.32 0.0148225
6.33 0.025274
6.34 0.0349109
6.35 0.0437804
6.36 0.0518846
6.37 0.0593845
6.38 0.0663868
6.39 0.072998
6.4 0.079328
6.41 0.0854864
6.42 0.0915808
6.43 0.0977242
6.44 0.104007
6.45 0.110502
6.46 0.117273
6.47 0.124365
6.48 0.131813
6.49 0.139674
6.5 0.147928
6.51 0.156564
6.52 0.165568
6.53 0.174922
6.54 0.184606
6.55 0.194604
6.56 0.204908
6.57 0.21547
6.58 0.226274
6.59 0.237309
6.6 0.248568
6.61 0.260047
6.62 0.271767
6.63 0.283722
6.64 0.295909
6.65 0.308333
6.66 0.320995
6.67 0.333892
6.68 0.347017
6.69 0.360364
6.7 0.373875
6.71 0.387506
6.72 0.401198
6.73 0.414877
6.74 0.428457
6.75 0.441815
6.76 0.454829
6.77 0.467383
6.78 0.479347
6.79 0.490584
6.8 0.500956
6.81 0.510315
6.82 0.518396
6.83 0.525186
6.84 0.53057
6.85 0.534445
6.86 0.536721
6.87 0.537327
6.88 0.536097
6.89 0.533002
6.9 0.528123
6.91 0.521461
6.92 0.513035
6.93 0.502877
6.94 0.491033
6.95 0.477382
6.96 0.462179
6.97 0.445501
6.98 0.427426
6.99 0.408033
7 0.387401
7.01 0.365554
7.02 0.34256
7.03 0.318565
7.04 0.293638
7.05 0.267842
7.06 0.241238
7.07 0.213885
7.08 0.185776
7.09 0.157038
7.1 0.127741
7.11 0.0979513
7.12 0.0677397
7.13 0.0371834
7.14 0.00636079
7.15 -0.0246271
7.16 -0.0556575
7.17 -0.0866185
7.18 -0.117391
7.19 -0.147848
7.2 -0.177861
7.21 -0.207229
7.22 -0.235841
7.23 -0.263579
7.24 -0.290317
7.25 -0.315935
7.26 -0.340322
7.27 -0.363341
7.28 -0.384813
7.29 -0.404794
7.3 -0.423241
7.31 -0.440125
7.32 -0.455439
7.33 -0.469192
7.34 -0.481292
7.35 -0.491861
7.36 -0.501016
7.37 -0.508832
7.38 -0.515394
7.39 -0.520794
7.4 -0.525112
7.41 -0.528377
7.42 -0.530791
7.43 -0.532447
7.44 -0.533431
7.45 -0.533824
7.46 -0.533694
7.47 -0.533072
7.48 -0.532024
7.49 -0.530607
7.5 -0.528843
7.51 -0.526749
7.52 -0.524331
7.53 -0.521584
7.54 -0.518464
7.55 -0.514993
7.56 -0.511156
7.57 -0.506933
7.58 -0.502308
7.59 -0.497264
7.6 -0.49176
7.61 -0.485784
7.62 -0.479354
7.63 -0.472469
7.64 -0.465128
7.65 -0.457335
7.66 -0.449098
7.67 -0.440379
7.68 -0.431238
7.69 -0.421691
7.7 -0.411752
7.71 -0.401435
7.72 -0.390754
7.73 -0.379708
7.74 -0.368307
7.75 -0.356587
7.76 -0.344566
7.77 -0.33226
7.78 -0.319688
7.79 -0.306872
7.8 -0.293822
7.81 -0.280592
7.82 -0.267227
7.83 -0.253772
7.84 -0.240282
7.85 -0.22682
7.86 -0.213461
7.87 -0.200302
7.88 -0.187417
7.89 -0.174896
7.9 -0.162832
7.91 -0.151316
7.92 -0.140444
7.93 -0.130377
7.94 -0.121164
7.95 -0.112859
7.96 -0.105527
7.97 -0.0992194
7.98 -0.0939753
7.99 -0.0898456
8 -0.0869077
8.01 -0.0850478
8.02 -0.0842351
8.03 -0.0844234
8.04 -0.0855517
8.05 -0.0875463
8.06 -0.0903765
8.07 -0.0939046
8.08 -0.0980012
8.09 -0.102565
8.1 -0.107494
8.11 -0.112691
8.12 -0.118066
8.13 -0.123535
8.14 -0.129011
8.15 -0.134438
8.16 -0.139768
8.17 -0.14497
8.18 -0.150024
8.19 -0.154912
8.2 -0.159637
8.21 -0.164221
8.22 -0.168678
8.23 -0.173027
8.24 -0.177285
8.25 -0.181467
8.26 -0.185572
8.27 -0.189605
8.28 -0.193549
8.29 -0.197376
8.3 -0.201042
8.31 -0.204487
8.32 -0.207617
8.33 -0.210325
8.34 -0.212528
8.35 -0.21411
8.36 -0.214951
8.37 -0.214925
8.38 -0.213905
8.39 -0.211634
8.4 -0.208097
8.41 -0.2032
8.42 -0.196853
8.43 -0.188985
8.44 -0.179543
8.45 -0.168424
8.46 -0.155578
8.47 -0.141145
8.48 -0.125166
8.49 -0.10771
8.5 -0.0888611
8.51 -0.0687229
8.52 -0.0473106
8.53 -0.0248618
8.54 -0.00153552
8.55 0.0225283
8.56 0.0471911
8.57 0.0723187
8.58 0.0977922
8.59 0.123493
8.6 0.149295
8.61 0.175116
8.62 0.200886
8.63 0.226553
8.64 0.252078
8.65 0.277422
8.66 0.302579
8.67 0.327553
8.68 0.352346
8.69 0.376963
8.7 0.401407
8.71 0.425671
8.72 0.44973
8.73 0.473577
8.74 0.497172
8.75 0.520464
8.76 0.543381
8.77 0.565836
8.78 0.587674
8.79 0.608775
8.8 0.629026
8.81 0.648281
8.82 0.666383
8.83 0.683173
8.84 0.69847
8.85 0.711947
8.86 0.723615
8.87 0.733335
8.88 0.740988
8.89 0.746469
8.9 0.749694
8.91 0.750447
8.92 0.748718
8.93 0.744617
8.94 0.738157
8.95 0.729372
8.96 0.718315
8.97 0.705055
8.98 0.689448
8.99 0.671846
9 0.65236
9.01 0.631102
9.02 0.608189
9.03 0.583737
9.04 0.557788
9.05 0.530454
9.06 0.501925
9.07 0.472296
9.08 0.441655
9.09 0.410085
9.1 0.377664
9.11 0.344393
9.12 0.310428
9.13 0.275854
9.14 0.24075
9.15 0.205205
9.16 0.169314
9.17 0.133179
9.18 0.0969358
9.19 0.0607359
9.2 0.0247298
9.21 -0.0109187
9.22 -0.0460336
9.23 -0.0804277
9.24 -0.113798
9.25 -0.145987
9.26 -0.176811
9.27 -0.206068
9.28 -0.233561
9.29 -0.259105
9.3 -0.282455
9.31 -0.303317
9.32 -0.321747
9.33 -0.337642
9.34 -0.350926
9.35 -0.361553
9.36 -0.369503
9.37 -0.374563
9.38 -0.37692
9.39 -0.376732
9.4 -0.374092
9.41 -0.369115
9.42 -0.361932
9.43 -0.352649
9.44 -0.341295
9.45 -0.328226
9.46 -0.313602
9.47 -0.297578
9.48 -0.280306
9.49 -0.261926
9.5 -0.242505
9.51 -0.222205
9.52 -0.201167
9.53 -0.179481
9.54 -0.157221
9.55 -0.134455
9.56 -0.111234
9.57 -0.0875776
9.58 -0.0635794
9.59 -0.0392871
9.6 -0.0147512
9.61 0.00997179
9.62 0.0348174
9.63 0.0597084
9.64 0.0845432
9.65 0.109218
9.66 0.133618
9.67 0.157617
9.68 0.181079
9.69 0.203858
9.7 0.225689
9.71 0.246498
9.72 0.266135
9.73 0.284452
9.74 0.30131
9.75 0.316584
9.76 0.330071
9.77 0.341644
9.78 0.351355
9.79 0.359163
9.8 0.365056
9.81 0.369047
9.82 0.371173
9.83 0.371317
9.84 0.369742
9.85 0.36658
9.86 0.361957
9.87 0.35601
9.88 0.348884
9.89 0.340696
9.9 0.331583
9.91 0.321769
9.92 0.311388
9.93 0.300565
9.94 0.28941
9.95 0.278016
9.96 0.26645
9.97 0.254783
9.98 0.243053
9.99 0.231279
10 0.219461
10.01 0.207589
10.02 0.195638
10.03 0.183567
10.04 0.17135
10.05 0.158952
10.06 0.146341
10.07 0.133493
10.08 0.120389
10.09 0.107004
10.1 0.0933581
10.11 0.079484
10.12 0.0654188
10.13 0.0512129
10.14 0.0369288
10.15 0.0226415
10.16 0.00845088
10.17 -0.00555464
10.18 -0.0192829
10.19 -0.0326424
10.2 -0.0455449
10.21 -0.0579088
10.22 -0.0696134
10.23 -0.0806069
10.24 -0.0908746
10.25 -0.100389
10.26 -0.109138
10.27 -0.117129
10.28 -0.124376
10.29 -0.130852
10.3 -0.136691
10.31 -0.141961
10.32 -0.146735
10.33 -0.151096
10.34 -0.155129
10.35 -0.158913
10.36 -0.162543
10.37 -0.166113
10.38 -0.169692
10.39 -0.173342
10.4 -0.177114
10.41 -0.181045
10.42 -0.185186
10.43 -0.189526
10.44 -0.194065
10.45 -0.198788
10.46 -0.203673
10.47 -0.208689
10.48 -0.213803
10.49 -0.218968
10.5 -0.224136
10.51 -0.229265
10.52 -0.234315
10.53 -0.239251
10.54 -0.244043
10.55 -0.24865
10.56 -0.253069
10.57 -0.257296
10.58 -0.261332
10.59 -0.265184
10.6 -0.268866
10.61 -0.272389
10.62 -0.275773
10.63 -0.279053
10.64 -0.282251
10.65 -0.28539
10.66 -0.288487
10.67 -0.291558
10.68 -0.294611
10.69 -0.297653
10.7 -0.30068
10.71 -0.303685
10.72 -0.306655
10.73 -0.309571
10.74 -0.31241
10.75 -0.315141
10.76 -0.317746
10.77 -0.320204
10.78 -0.322493
10.79 -0.3246
10.8 -0.326511
10.81 -0.328208
10.82 -0.329703
10.83 -0.331014
10.84 -0.33216
10.85 -0.333166
10.86 -0.334064
10.87 -0.33489
10.88 -0.335684
10.89 -0.336496
10.9 -0.337367
10.91 -0.338334
10.92 -0.339433
10.93 -0.34069
10.94 -0.342138
10.95 -0.343783
10.96 -0.345613
10.97 -0.347613
10.98 -0.349755
10.99 -0.351999
11 -0.354296
11.01 -0.356575
11.02 -0.358758
11.03 -0.360769
11.04 -0.362523
11.05 -0.363934
11.06 -0.364919
11.07 -0.365359
11.08 -0.365164
11.09 -0.364299
11.1 -0.362704
11.11 -0.360334
11.12 -0.357154
11.13 -0.353144
11.14 -0.348209
11.15 -0.342446
11.16 -0.335887
11.17 -0.328572
11.18 -0.320551
11.19 -0.311883
11.2 -0.302614
11.21 -0.292815
11.22 -0.282606
11.23 -0.272064
11.24 -0.261266
11.25 -0.250286
11.26 -0.239191
11.27 -0.228045
11.28 -0.216908
11.29 -0.205824
11.3 -0.194827
11.31 -0.183939
11.32 -0.173174
11.33 -0.162545
11.34 -0.152052
11.35 -0.141676
11.36 -0.131401
11.37 -0.121208
11.38 -0.111075
11.39 -0.10098
11.4 -0.0908983
11.41 -0.0808058
11.42 -0.0706819
11.43 -0.0605093
11.44 -0.0502734
11.45 -0.0399623
11.46 -0.0295645
11.47 -0.019066
11.48 -0.00846947
11.49 0.00222939
11.5 0.013035
11.51 0.0239524
11.52 0.0349883
11.53 0.0461621
11.54 0.0574824
11.55 0.0689591
11.56 0.0806102
11.57 0.0924566
11.58 0.104521
11.59 0.116833
11.6 0.129444
11.61 0.142355
11.62 0.155588
11.63 0.169163
11.64 0.183095
11.65 0.197393
11.66 0.212083
11.67 0.227151
11.68 0.24256
11.69 0.258279
11.7 0.274271
11.71 0.290485
11.72 0.306861
11.73 0.32333
11.74 0.339793
11.75 0.356162
11.76 0.372344
11.77 0.388239
11.78 0.403746
11.79 0.418732
11.8 0.433078
11.81 0.446719
11.82 0.459564
11.83 0.47153
11.84 0.482541
11.85 0.49253
11.86 0.501319
11.87 0.508963
11.88 0.515439
11.89 0.52072
11.9 0.524792
11.91 0.527647
11.92 0.529231
11.93 0.529517
11.94 0.528608
11.95 0.52652
11.96 0.523271
11.97 0.518884
11.98 0.51338
11.99 0.506679
12 0.498888
12.01 0.490052
12.02 0.480195
12.03 0.469338
12.04 0.457506
12.05 0.444696
12.06 0.430892
12.07 0.416209
12.08 0.400684
12.09 0.384365
12.1 0.367301
12.11 0.349554
12.12 0.331144
12.13 0.312193
12.14 0.292808
12.15 0.273082
12.16 0.253119
12.17 0.233027
12.18 0.212924
12.19 0.19295
12.2 0.173225
12.21 0.153868
12.22 0.134996
12.23 0.116723
