# xPDFsuite Configuration #
[PDF]
wavelength = 0.1
dataformat = QA
inputfile = BiMsol6_insitu_700 C-00307.xy
backgroundfile = Quartz2mm-dist500-00000.xy
mode = xray
bgscale = 0.0042
composition = Bi2Fe4O9
outputtype = gr
qmaxinst = 24.998449118
qmin = 0.1
qmax = 21.4986662415
rmax = 80.0
rmin = 0.0
rstep = 0.01
rpoly = 0.9

[Misc]
inputdir = C:/Data/Seafile/CPH/Beamtime/Desy Oct 20/In situ data/Processed/BiMsol6/PDF
savedir = C:/Data/Seafile/CPH/Beamtime/Desy Oct 20/In situ data/PDF/BiMsol6
backgroundfilefull = C:/Data/Seafile/CPH/Beamtime/Desy Oct 20/In situ data/Processed/Standard_Empty_Cap/Quartz2mm-dist500-00000.xy

#### start data
#S 1
#L r($\AA$)  G($\AA^{-2}$)
0 0
0.01 0.00600474
0.02 0.0116676
0.03 0.0166962
0.04 0.0208282
0.05 0.0238437
0.06 0.0255754
0.07 0.0258406
0.08 0.0245873
0.09 0.021952
0.1 0.0180479
0.11 0.0130491
0.12 0.0071841
0.13 0.000724522
0.14 -0.00602296
0.15 -0.0126762
0.16 -0.0189123
0.17 -0.0244289
0.18 -0.0289557
0.19 -0.0322679
0.2 -0.0341352
0.21 -0.0344025
0.22 -0.033168
0.23 -0.0304996
0.24 -0.02654
0.25 -0.0215015
0.26 -0.0156584
0.27 -0.00932511
0.28 -0.00294478
0.29 0.00308778
0.3 0.00838942
0.31 0.0125971
0.32 0.0153856
0.33 0.0164265
0.34 0.0153997
0.35 0.0123646
0.36 0.00732643
0.37 0.000391533
0.38 -0.00823179
0.39 -0.0182361
0.4 -0.0292624
0.41 -0.0407067
0.42 -0.0519769
0.43 -0.0624699
0.44 -0.0715628
0.45 -0.0786356
0.46 -0.083032
0.47 -0.0839047
0.48 -0.0810762
0.49 -0.074206
0.5 -0.0630726
0.51 -0.0475878
0.52 -0.0278059
0.53 -0.00365882
0.54 0.0243128
0.55 0.0553968
0.56 0.0889329
0.57 0.124149
0.58 0.160181
0.59 0.196088
0.6 0.23067
0.61 0.262983
0.62 0.292075
0.63 0.317055
0.64 0.337119
0.65 0.351574
0.66 0.359457
0.67 0.360371
0.68 0.354478
0.69 0.341773
0.7 0.322431
0.71 0.296804
0.72 0.265411
0.73 0.228429
0.74 0.187331
0.75 0.143063
0.76 0.096633
0.77 0.0490874
0.78 0.00148561
0.79 -0.0450311
0.8 -0.0893061
0.81 -0.130535
0.82 -0.167947
0.83 -0.200906
0.84 -0.228921
0.85 -0.251661
0.86 -0.268395
0.87 -0.279641
0.88 -0.285671
0.89 -0.28683
0.9 -0.283591
0.91 -0.276534
0.92 -0.266236
0.93 -0.253443
0.94 -0.239159
0.95 -0.224154
0.96 -0.209171
0.97 -0.194905
0.98 -0.181981
0.99 -0.171151
1 -0.162753
1.01 -0.157027
1.02 -0.154143
1.03 -0.154152
1.04 -0.156992
1.05 -0.162559
1.06 -0.170688
1.07 -0.180787
1.08 -0.192436
1.09 -0.205182
1.1 -0.218553
1.11 -0.23208
1.12 -0.245256
1.13 -0.257636
1.14 -0.268894
1.15 -0.278753
1.16 -0.287014
1.17 -0.293556
1.18 -0.298308
1.19 -0.301178
1.2 -0.302469
1.21 -0.302367
1.22 -0.301106
1.23 -0.298955
1.24 -0.296207
1.25 -0.293155
1.26 -0.290135
1.27 -0.287415
1.28 -0.285216
1.29 -0.283709
1.3 -0.283015
1.31 -0.283198
1.32 -0.284342
1.33 -0.286276
1.34 -0.288871
1.35 -0.291953
1.36 -0.295312
1.37 -0.298714
1.38 -0.301882
1.39 -0.304531
1.4 -0.306444
1.41 -0.307422
1.42 -0.3073
1.43 -0.305966
1.44 -0.30336
1.45 -0.299346
1.46 -0.29414
1.47 -0.287887
1.48 -0.280777
1.49 -0.273051
1.5 -0.264988
1.51 -0.256905
1.52 -0.249179
1.53 -0.242125
1.54 -0.236047
1.55 -0.231215
1.56 -0.227859
1.57 -0.226155
1.58 -0.2264
1.59 -0.228482
1.6 -0.232323
1.61 -0.237803
1.62 -0.24473
1.63 -0.252847
1.64 -0.26186
1.65 -0.271373
1.66 -0.280921
1.67 -0.290088
1.68 -0.298455
1.69 -0.305621
1.7 -0.311213
1.71 -0.314705
1.72 -0.315921
1.73 -0.314729
1.74 -0.311017
1.75 -0.304758
1.76 -0.296004
1.77 -0.284836
1.78 -0.271362
1.79 -0.256095
1.8 -0.239391
1.81 -0.221651
1.82 -0.203304
1.83 -0.184799
1.84 -0.166637
1.85 -0.149292
1.86 -0.133139
1.87 -0.118519
1.88 -0.105716
1.89 -0.094944
1.9 -0.0863781
1.91 -0.0802759
1.92 -0.0763764
1.93 -0.0745689
1.94 -0.0746736
1.95 -0.0764505
1.96 -0.0796093
1.97 -0.0838679
1.98 -0.0888008
1.99 -0.0939955
2 -0.099098
2.01 -0.103776
2.02 -0.107734
2.03 -0.110716
2.04 -0.112383
2.05 -0.112739
2.06 -0.111738
2.07 -0.109404
2.08 -0.10583
2.09 -0.101172
2.1 -0.0956072
2.11 -0.0894432
2.12 -0.0830373
2.13 -0.076719
2.14 -0.0708268
2.15 -0.0656957
2.16 -0.0616435
2.17 -0.0591369
2.18 -0.0583004
2.19 -0.0593077
2.2 -0.0622838
2.21 -0.0672908
2.22 -0.0743249
2.23 -0.0834001
2.24 -0.0944038
2.25 -0.106992
2.26 -0.120913
2.27 -0.135874
2.28 -0.151554
2.29 -0.167615
2.3 -0.183682
2.31 -0.199379
2.32 -0.214394
2.33 -0.228443
2.34 -0.241284
2.35 -0.252722
2.36 -0.262556
2.37 -0.270615
2.38 -0.277016
2.39 -0.281798
2.4 -0.285054
2.41 -0.286926
2.42 -0.287591
2.43 -0.287198
2.44 -0.286072
2.45 -0.284493
2.46 -0.282713
2.47 -0.280979
2.48 -0.279517
2.49 -0.278548
2.5 -0.278309
2.51 -0.278877
2.52 -0.280339
2.53 -0.282738
2.54 -0.286078
2.55 -0.290321
2.56 -0.29545
2.57 -0.30131
2.58 -0.30773
2.59 -0.314554
2.6 -0.321616
2.61 -0.328745
2.62 -0.335768
2.63 -0.342482
2.64 -0.34876
2.65 -0.354482
2.66 -0.359549
2.67 -0.363888
2.68 -0.367452
2.69 -0.370167
2.7 -0.372047
2.71 -0.373163
2.72 -0.373557
2.73 -0.373284
2.74 -0.372405
2.75 -0.370984
2.76 -0.369031
2.77 -0.366659
2.78 -0.363905
2.79 -0.360792
2.8 -0.357325
2.81 -0.353492
2.82 -0.349236
2.83 -0.344494
2.84 -0.339226
2.85 -0.333351
2.86 -0.326784
2.87 -0.319436
2.88 -0.311219
2.89 -0.301943
2.9 -0.291627
2.91 -0.280231
2.92 -0.267729
2.93 -0.254115
2.94 -0.23941
2.95 -0.22362
2.96 -0.206805
2.97 -0.189147
2.98 -0.170773
2.99 -0.151833
3 -0.132487
3.01 -0.112908
3.02 -0.0932863
3.03 -0.0738199
3.04 -0.0546773
3.05 -0.0360122
3.06 -0.0179606
3.07 -0.000636262
3.08 0.0158444
3.09 0.0313703
3.1 0.0459893
3.11 0.0597082
3.12 0.0725621
3.13 0.0846125
3.14 0.0959442
3.15 0.10662
3.16 0.116808
3.17 0.126658
3.18 0.136305
3.19 0.14588
3.2 0.155508
3.21 0.165305
3.22 0.175399
3.23 0.185842
3.24 0.196679
3.25 0.207936
3.26 0.219608
3.27 0.231671
3.28 0.244094
3.29 0.256785
3.3 0.269638
3.31 0.282547
3.32 0.295402
3.33 0.308084
3.34 0.320473
3.35 0.332406
3.36 0.343818
3.37 0.354621
3.38 0.364745
3.39 0.37414
3.4 0.382771
3.41 0.39058
3.42 0.397584
3.43 0.403857
3.44 0.409446
3.45 0.414412
3.46 0.418826
3.47 0.422768
3.48 0.426285
3.49 0.429513
3.5 0.432531
3.51 0.43541
3.52 0.438213
3.53 0.440992
3.54 0.443784
3.55 0.446616
3.56 0.449491
3.57 0.452401
3.58 0.455325
3.59 0.458232
3.6 0.461079
3.61 0.463804
3.62 0.466359
3.63 0.468693
3.64 0.470754
3.65 0.472497
3.66 0.473878
3.67 0.47485
3.68 0.475369
3.69 0.475454
3.7 0.475102
3.71 0.474319
3.72 0.473118
3.73 0.471521
3.74 0.469521
3.75 0.467177
3.76 0.464527
3.77 0.4616
3.78 0.458421
3.79 0.455009
3.8 0.451372
3.81 0.447503
3.82 0.443414
3.83 0.439093
3.84 0.434518
3.85 0.429658
3.86 0.424479
3.87 0.418906
3.88 0.412907
3.89 0.40645
3.9 0.399493
3.91 0.391995
3.92 0.383925
3.93 0.375243
3.94 0.365881
3.95 0.355893
3.96 0.345285
3.97 0.334071
3.98 0.322277
3.99 0.309938
4 0.297063
4.01 0.283722
4.02 0.269994
4.03 0.255934
4.04 0.2416
4.05 0.227048
4.06 0.212329
4.07 0.197484
4.08 0.18257
4.09 0.167619
4.1 0.152656
4.11 0.137699
4.12 0.122758
4.13 0.107841
4.14 0.0929472
4.15 0.0780741
4.16 0.0632189
4.17 0.0483807
4.18 0.0335624
4.19 0.0187724
4.2 0.00403385
4.21 -0.0106298
4.22 -0.0251823
4.23 -0.0395777
4.24 -0.05376
4.25 -0.0676643
4.26 -0.0811966
4.27 -0.0942581
4.28 -0.10679
4.29 -0.11871
4.3 -0.129937
4.31 -0.140397
4.32 -0.150022
4.33 -0.158663
4.34 -0.166356
4.35 -0.173094
4.36 -0.178879
4.37 -0.183727
4.38 -0.187679
4.39 -0.190765
4.4 -0.193043
4.41 -0.194677
4.42 -0.195779
4.43 -0.196469
4.44 -0.196876
4.45 -0.19713
4.46 -0.19737
4.47 -0.197732
4.48 -0.198326
4.49 -0.199248
4.5 -0.200573
4.51 -0.202358
4.52 -0.20465
4.53 -0.207488
4.54 -0.210808
4.55 -0.214564
4.56 -0.218692
4.57 -0.223106
4.58 -0.227708
4.59 -0.23238
4.6 -0.236982
4.61 -0.241387
4.62 -0.245475
4.63 -0.249131
4.64 -0.252251
4.65 -0.254739
4.66 -0.25646
4.67 -0.257437
4.68 -0.257656
4.69 -0.257122
4.7 -0.25587
4.71 -0.253954
4.72 -0.251421
4.73 -0.248397
4.74 -0.245027
4.75 -0.241439
4.76 -0.237768
4.77 -0.234151
4.78 -0.230724
4.79 -0.227664
4.8 -0.225059
4.81 -0.223005
4.82 -0.22158
4.83 -0.220843
4.84 -0.220826
4.85 -0.221584
4.86 -0.223099
4.87 -0.225289
4.88 -0.228094
4.89 -0.231438
4.9 -0.235232
4.91 -0.239373
4.92 -0.24377
4.93 -0.248277
4.94 -0.252785
4.95 -0.257191
4.96 -0.261404
4.97 -0.265342
4.98 -0.26892
4.99 -0.272071
5 -0.274789
5.01 -0.277059
5.02 -0.27888
5.03 -0.280266
5.04 -0.281242
5.05 -0.28181
5.06 -0.282046
5.07 -0.282002
5.08 -0.281721
5.09 -0.281245
5.1 -0.280608
5.11 -0.279832
5.12 -0.278928
5.13 -0.277906
5.14 -0.276755
5.15 -0.27545
5.16 -0.273953
5.17 -0.272217
5.18 -0.270152
5.19 -0.267702
5.2 -0.264807
5.21 -0.261396
5.22 -0.257398
5.23 -0.25275
5.24 -0.247374
5.25 -0.241165
5.26 -0.234157
5.27 -0.22633
5.28 -0.217676
5.29 -0.208204
5.3 -0.197937
5.31 -0.186855
5.32 -0.175045
5.33 -0.162597
5.34 -0.14958
5.35 -0.13607
5.36 -0.122144
5.37 -0.107878
5.38 -0.0933366
5.39 -0.0786249
5.4 -0.0638105
5.41 -0.048954
5.42 -0.0341085
5.43 -0.0193195
5.44 -0.00463331
5.45 0.00991656
5.46 0.0243107
5.47 0.0385281
5.48 0.0525492
5.49 0.066354
5.5 0.0799192
5.51 0.0931838
5.52 0.10614
5.53 0.118744
5.54 0.130941
5.55 0.142669
5.56 0.153854
5.57 0.164374
5.58 0.174119
5.59 0.183031
5.6 0.191009
5.61 0.197952
5.62 0.203763
5.63 0.208349
5.64 0.21148
5.65 0.213214
5.66 0.213516
5.67 0.212361
5.68 0.209742
5.69 0.20568
5.7 0.200161
5.71 0.193229
5.72 0.185084
5.73 0.175848
5.74 0.165661
5.75 0.154679
5.76 0.14307
5.77 0.130987
5.78 0.118663
5.79 0.106284
5.8 0.0940205
5.81 0.0820295
5.82 0.0704528
5.83 0.0594336
5.84 0.0491137
5.85 0.0395141
5.86 0.0306761
5.87 0.0226153
5.88 0.015322
5.89 0.00876318
5.9 0.00293756
5.91 -0.00227467
5.92 -0.00698134
5.93 -0.0112767
5.94 -0.0152574
5.95 -0.0190179
5.96 -0.0226443
5.97 -0.0262159
5.98 -0.0297989
5.99 -0.0334285
6 -0.0371182
6.01 -0.0408578
6.02 -0.0446137
6.03 -0.0483196
6.04 -0.0518841
6.05 -0.0552069
6.06 -0.0581711
6.07 -0.0606495
6.08 -0.0625095
6.09 -0.0636083
6.1 -0.0637195
6.11 -0.0628118
6.12 -0.0607881
6.13 -0.0575727
6.14 -0.053115
6.15 -0.0473925
6.16 -0.0403353
6.17 -0.0320069
6.18 -0.0225533
6.19 -0.0120832
6.2 -0.000733069
6.21 0.0113368
6.22 0.0239461
6.23 0.0369159
6.24 0.0499813
6.25 0.062934
6.26 0.0755699
6.27 0.087695
6.28 0.0991307
6.29 0.109667
6.3 0.119144
6.31 0.127522
6.32 0.134737
6.33 0.140761
6.34 0.145595
6.35 0.149278
6.36 0.151771
6.37 0.153289
6.38 0.15397
6.39 0.153961
6.4 0.153422
6.41 0.152521
6.42 0.151429
6.43 0.15034
6.44 0.149423
6.45 0.148824
6.46 0.148671
6.47 0.14907
6.48 0.150103
6.49 0.151897
6.5 0.154429
6.51 0.157684
6.52 0.161635
6.53 0.166232
6.54 0.171407
6.55 0.177088
6.56 0.183184
6.57 0.189547
6.58 0.196067
6.59 0.202634
6.6 0.209143
6.61 0.215498
6.62 0.221587
6.63 0.227345
6.64 0.232728
6.65 0.2377
6.66 0.242242
6.67 0.246353
6.68 0.250037
6.69 0.253292
6.7 0.256198
6.71 0.2588
6.72 0.261148
6.73 0.263293
6.74 0.265284
6.75 0.267161
6.76 0.268967
6.77 0.27073
6.78 0.272463
6.79 0.274165
6.8 0.275822
6.81 0.277405
6.82 0.278855
6.83 0.280124
6.84 0.281147
6.85 0.28185
6.86 0.282152
6.87 0.281974
6.88 0.281192
6.89 0.279718
6.9 0.277512
6.91 0.274508
6.92 0.270653
6.93 0.265902
6.94 0.260226
6.95 0.253499
6.96 0.245828
6.97 0.237228
6.98 0.22773
6.99 0.217371
7 0.206203
7.01 0.194252
7.02 0.181583
7.03 0.16832
7.04 0.154537
7.05 0.140312
7.06 0.125722
7.07 0.110839
7.08 0.0957182
7.09 0.0804512
7.1 0.0650997
7.11 0.0497173
7.12 0.0343515
7.13 0.0190449
7.14 0.00384
7.15 -0.0112204
7.16 -0.0261151
7.17 -0.0408167
7.18 -0.0552991
7.19 -0.0695364
7.2 -0.0835022
7.21 -0.0971384
7.22 -0.110432
7.23 -0.123359
7.24 -0.135884
7.25 -0.147973
7.26 -0.159589
7.27 -0.170679
7.28 -0.181168
7.29 -0.191066
7.3 -0.200341
7.31 -0.208964
7.32 -0.216911
7.33 -0.224164
7.34 -0.230655
7.35 -0.23641
7.36 -0.241463
7.37 -0.245826
7.38 -0.249522
7.39 -0.25258
7.4 -0.255028
7.41 -0.256869
7.42 -0.25821
7.43 -0.259105
7.44 -0.259609
7.45 -0.259777
7.46 -0.259665
7.47 -0.259314
7.48 -0.258785
7.49 -0.258131
7.5 -0.257389
7.51 -0.256591
7.52 -0.255759
7.53 -0.25491
7.54 -0.25405
7.55 -0.25318
7.56 -0.252292
7.57 -0.251372
7.58 -0.2504
7.59 -0.249353
7.6 -0.248197
7.61 -0.2469
7.62 -0.245439
7.63 -0.243788
7.64 -0.24192
7.65 -0.239815
7.66 -0.237453
7.67 -0.234789
7.68 -0.231845
7.69 -0.22862
7.7 -0.225118
7.71 -0.221349
7.72 -0.217326
7.73 -0.21306
7.74 -0.208573
7.75 -0.203909
7.76 -0.199098
7.77 -0.194173
7.78 -0.189166
7.79 -0.184113
7.8 -0.179048
7.81 -0.174009
7.82 -0.169026
7.83 -0.164129
7.84 -0.159345
7.85 -0.154697
7.86 -0.150213
7.87 -0.145922
7.88 -0.141826
7.89 -0.137938
7.9 -0.134267
7.91 -0.130821
7.92 -0.127605
7.93 -0.124642
7.94 -0.12192
7.95 -0.11943
7.96 -0.117169
7.97 -0.115132
7.98 -0.113315
7.99 -0.111714
8 -0.110333
8.01 -0.109143
8.02 -0.108134
8.03 -0.107295
8.04 -0.106614
8.05 -0.106079
8.06 -0.105688
8.07 -0.105424
8.08 -0.105269
8.09 -0.105216
8.1 -0.105256
8.11 -0.105381
8.12 -0.105588
8.13 -0.105881
8.14 -0.10625
8.15 -0.106697
8.16 -0.107224
8.17 -0.107835
8.18 -0.108536
8.19 -0.109339
8.2 -0.110248
8.21 -0.111262
8.22 -0.112385
8.23 -0.113615
8.24 -0.114948
8.25 -0.116378
8.26 -0.117897
8.27 -0.119474
8.28 -0.121083
8.29 -0.122689
8.3 -0.124253
8.31 -0.125728
8.32 -0.127048
8.33 -0.128145
8.34 -0.128964
8.35 -0.129435
8.36 -0.129489
8.37 -0.129056
8.38 -0.128066
8.39 -0.126378
8.4 -0.123988
8.41 -0.120848
8.42 -0.116912
8.43 -0.112145
8.44 -0.106523
8.45 -0.0999937
8.46 -0.0925378
8.47 -0.0842342
8.48 -0.075113
8.49 -0.0652166
8.5 -0.0545989
8.51 -0.0433242
8.52 -0.0314164
8.53 -0.0190123
8.54 -0.0062089
8.55 0.00690489
8.56 0.0202402
8.57 0.0337103
8.58 0.0472312
8.59 0.0607156
8.6 0.074094
8.61 0.0873095
8.62 0.100316
8.63 0.113078
8.64 0.125572
8.65 0.13776
8.66 0.149658
8.67 0.161282
8.68 0.17265
8.69 0.183783
8.7 0.194707
8.71 0.205446
8.72 0.216018
8.73 0.226462
8.74 0.236794
8.75 0.247023
8.76 0.257148
8.77 0.267158
8.78 0.277018
8.79 0.286691
8.8 0.296133
8.81 0.305285
8.82 0.314074
8.83 0.322422
8.84 0.330235
8.85 0.337351
8.86 0.343735
8.87 0.349292
8.88 0.353934
8.89 0.357574
8.9 0.360139
8.91 0.361485
8.92 0.361567
8.93 0.36041
8.94 0.357996
8.95 0.35432
8.96 0.349395
8.97 0.343247
8.98 0.335792
8.99 0.32723
9 0.317634
9.01 0.307084
9.02 0.295672
9.03 0.283491
9.04 0.270609
9.05 0.257132
9.06 0.243198
9.07 0.228899
9.08 0.214319
9.09 0.199537
9.1 0.184622
9.11 0.169634
9.12 0.154634
9.13 0.139665
9.14 0.124759
9.15 0.109943
9.16 0.095237
9.17 0.0806635
9.18 0.0662432
9.19 0.0519806
9.2 0.0378912
9.21 0.023994
9.22 0.0103128
9.23 -0.00312273
9.24 -0.0162448
9.25 -0.0290241
9.26 -0.0414133
9.27 -0.0533515
9.28 -0.0647719
9.29 -0.075602
9.3 -0.0857415
9.31 -0.0950611
9.32 -0.10354
9.33 -0.111102
9.34 -0.117676
9.35 -0.123195
9.36 -0.127605
9.37 -0.130756
9.38 -0.132675
9.39 -0.133381
9.4 -0.132872
9.41 -0.13116
9.42 -0.128273
9.43 -0.12423
9.44 -0.119013
9.45 -0.112802
9.46 -0.105677
9.47 -0.0977278
9.48 -0.0890513
9.49 -0.0797476
9.5 -0.0698883
9.51 -0.0596052
9.52 -0.0490195
9.53 -0.0382252
9.54 -0.02731
9.55 -0.0163536
9.56 -0.00542827
9.57 0.00538896
9.58 0.0160534
9.59 0.0265252
9.6 0.0367732
9.61 0.0467745
9.62 0.056513
9.63 0.0659608
9.64 0.0751133
9.65 0.083982
9.66 0.0925641
9.67 0.100856
9.68 0.108851
9.69 0.116541
9.7 0.123872
9.71 0.13086
9.72 0.13748
9.73 0.143702
9.74 0.149491
9.75 0.154808
9.76 0.159582
9.77 0.163758
9.78 0.167325
9.79 0.170244
9.8 0.172476
9.81 0.17399
9.82 0.17476
9.83 0.174689
9.84 0.173839
9.85 0.172226
9.86 0.169866
9.87 0.166784
9.88 0.163019
9.89 0.158596
9.9 0.153558
9.91 0.148023
9.92 0.142062
9.93 0.135753
9.94 0.129176
9.95 0.122411
9.96 0.115533
9.97 0.108631
9.98 0.101776
9.99 0.0950261
10 0.0884322
10.01 0.0820341
10.02 0.075868
10.03 0.0699668
10.04 0.0643137
10.05 0.0589016
10.06 0.0537133
10.07 0.0487229
10.08 0.0438973
10.09 0.0392046
10.1 0.0345905
10.11 0.0300061
10.12 0.0254079
10.13 0.0207547
10.14 0.0160098
10.15 0.01114
10.16 0.00610827
10.17 0.000914985
10.18 -0.0044427
10.19 -0.00995798
10.2 -0.0156144
10.21 -0.0213864
10.22 -0.0272425
10.23 -0.0331321
10.24 -0.039003
10.25 -0.0448021
10.26 -0.0504746
10.27 -0.0559649
10.28 -0.0612175
10.29 -0.0661469
10.3 -0.070737
10.31 -0.0749517
10.32 -0.0787634
10.33 -0.0821541
10.34 -0.0851159
10.35 -0.0876268
10.36 -0.0897051
10.37 -0.0914016
10.38 -0.0927519
10.39 -0.0938002
10.4 -0.0945973
10.41 -0.0951998
10.42 -0.0956596
10.43 -0.0960597
10.44 -0.0964623
10.45 -0.096927
10.46 -0.0975089
10.47 -0.098258
10.48 -0.0992289
10.49 -0.100465
10.5 -0.101973
10.51 -0.103767
10.52 -0.105849
10.53 -0.108214
10.54 -0.110844
10.55 -0.113736
10.56 -0.116833
10.57 -0.120091
10.58 -0.123464
10.59 -0.126907
10.6 -0.130369
10.61 -0.1338
10.62 -0.137142
10.63 -0.140358
10.64 -0.143409
10.65 -0.146263
10.66 -0.148896
10.67 -0.151291
10.68 -0.153414
10.69 -0.155281
10.7 -0.156905
10.71 -0.158299
10.72 -0.159482
10.73 -0.16048
10.74 -0.161316
10.75 -0.162018
10.76 -0.162631
10.77 -0.163188
10.78 -0.163718
10.79 -0.16425
10.8 -0.164807
10.81 -0.165415
10.82 -0.166088
10.83 -0.166832
10.84 -0.167649
10.85 -0.168538
10.86 -0.16949
10.87 -0.170494
10.88 -0.171535
10.89 -0.172586
10.9 -0.173628
10.91 -0.174636
10.92 -0.175589
10.93 -0.176465
10.94 -0.177235
10.95 -0.177884
10.96 -0.178401
10.97 -0.178779
10.98 -0.17901
10.99 -0.179094
11 -0.179031
11.01 -0.178812
11.02 -0.178462
11.03 -0.177991
11.04 -0.177409
11.05 -0.176729
11.06 -0.175959
11.07 -0.175103
11.08 -0.174168
11.09 -0.173159
11.1 -0.172073
11.11 -0.170902
11.12 -0.169633
11.13 -0.16825
11.14 -0.166712
11.15 -0.165005
11.16 -0.163101
11.17 -0.160967
11.18 -0.15857
11.19 -0.15588
11.2 -0.152848
11.21 -0.149434
11.22 -0.145639
11.23 -0.141448
11.24 -0.136851
11.25 -0.131846
11.26 -0.12644
11.27 -0.120614
11.28 -0.114427
11.29 -0.107923
11.3 -0.101146
11.31 -0.0941468
11.32 -0.086984
11.33 -0.0797185
11.34 -0.0724238
11.35 -0.0651741
11.36 -0.0580356
11.37 -0.0510711
11.38 -0.0443389
11.39 -0.0378905
11.4 -0.0318011
11.41 -0.0260868
11.42 -0.0207576
11.43 -0.0158208
11.44 -0.0112717
11.45 -0.00709319
11.46 -0.00326331
11.47 0.000244483
11.48 0.00351455
11.49 0.00660845
11.5 0.00959433
11.51 0.0125449
11.52 0.0155354
11.53 0.0186561
11.54 0.0219854
11.55 0.0255862
11.56 0.0295191
11.57 0.0338366
11.58 0.0385806
11.59 0.0437881
11.6 0.0495212
11.61 0.0557335
11.62 0.0624138
11.63 0.0695386
11.64 0.0770721
11.65 0.084968
11.66 0.0931867
11.67 0.10165
11.68 0.110271
11.69 0.118977
11.7 0.127694
11.71 0.136346
11.72 0.144862
11.73 0.153145
11.74 0.161154
11.75 0.168838
11.76 0.176153
11.77 0.183067
11.78 0.189555
11.79 0.195579
11.8 0.20113
11.81 0.20624
11.82 0.210919
11.83 0.215184
11.84 0.219054
11.85 0.222553
11.86 0.225668
11.87 0.228457
11.88 0.230944
11.89 0.233141
11.9 0.235061
11.91 0.236707
11.92 0.238063
11.93 0.239112
11.94 0.239855
11.95 0.240271
11.96 0.240332
11.97 0.240005
11.98 0.239257
11.99 0.238003
12 0.236239
12.01 0.23394
12.02 0.231078
12.03 0.227626
12.04 0.223567
12.05 0.21887
12.06 0.213503
12.07 0.207525
12.08 0.200958
12.09 0.193829
12.1 0.186177
12.11 0.178047
12.12 0.169464
12.13 0.160521
12.14 0.151299
12.15 0.141869
12.16 0.132305
12.17 0.122683
12.18 0.113076
