# xPDFsuite Configuration #
[PDF]
wavelength = 0.1
dataformat = QA
inputfile = BiMsol6_insitu_700 C-00345.xy
backgroundfile = Quartz2mm-dist500-00000.xy
mode = xray
bgscale = 0.0042
composition = Bi2Fe4O9
outputtype = gr
qmaxinst = 24.998449118
qmin = 0.1
qmax = 21.4986662415
rmax = 80.0
rmin = 0.0
rstep = 0.01
rpoly = 0.9

[Misc]
inputdir = C:/Data/Seafile/CPH/Beamtime/Desy Oct 20/In situ data/Processed/BiMsol6/PDF
savedir = C:/Data/Seafile/CPH/Beamtime/Desy Oct 20/In situ data/PDF/BiMsol6
backgroundfilefull = C:/Data/Seafile/CPH/Beamtime/Desy Oct 20/In situ data/Processed/Standard_Empty_Cap/Quartz2mm-dist500-00000.xy

#### start data
#S 1
#L r($\AA$)  G($\AA^{-2}$)
0 0
0.01 0.00711301
0.02 0.0138288
0.03 0.0198074
0.04 0.0247434
0.05 0.0283804
0.06 0.0305222
0.07 0.0309542
0.08 0.0296123
0.09 0.0266523
0.1 0.0222015
0.11 0.0164585
0.12 0.00968455
0.13 0.00219156
0.14 -0.00567093
0.15 -0.0134583
0.16 -0.0207958
0.17 -0.0273316
0.18 -0.0327492
0.19 -0.0367834
0.2 -0.0391609
0.21 -0.0396928
0.22 -0.0384812
0.23 -0.0355933
0.24 -0.0311818
0.25 -0.0254795
0.26 -0.0187908
0.27 -0.0114597
0.28 -0.00399132
0.29 0.00316529
0.3 0.0095737
0.31 0.0148179
0.32 0.0185223
0.33 0.0203064
0.34 0.0197962
0.35 0.0170387
0.36 0.0120227
0.37 0.00484901
0.38 -0.00426735
0.39 -0.0150006
0.4 -0.026976
0.41 -0.0395327
0.42 -0.0520211
0.43 -0.0637818
0.44 -0.0741311
0.45 -0.0823869
0.46 -0.0878282
0.47 -0.089529
0.48 -0.0872774
0.49 -0.080693
0.5 -0.0695255
0.51 -0.0536702
0.52 -0.0331785
0.53 -0.0079704
0.54 0.021374
0.55 0.0540877
0.56 0.0894583
0.57 0.126652
0.58 0.164738
0.59 0.202699
0.6 0.239246
0.61 0.273359
0.62 0.304021
0.63 0.330278
0.64 0.351274
0.65 0.366278
0.66 0.374274
0.67 0.374858
0.68 0.368223
0.69 0.354389
0.7 0.33357
0.71 0.30617
0.72 0.27277
0.73 0.233611
0.74 0.190271
0.75 0.14378
0.76 0.0952242
0.77 0.0457303
0.78 -0.00357222
0.79 -0.051463
0.8 -0.0967252
0.81 -0.138545
0.82 -0.176138
0.83 -0.208868
0.84 -0.236263
0.85 -0.258027
0.86 -0.273451
0.87 -0.283152
0.88 -0.287481
0.89 -0.286864
0.9 -0.281859
0.91 -0.273132
0.92 -0.261352
0.93 -0.247362
0.94 -0.232213
0.95 -0.216726
0.96 -0.201681
0.97 -0.187794
0.98 -0.17569
0.99 -0.166142
1 -0.15942
1.01 -0.1557
1.02 -0.155086
1.03 -0.157549
1.04 -0.162941
1.05 -0.171064
1.06 -0.181641
1.07 -0.193988
1.08 -0.207603
1.09 -0.221958
1.1 -0.236517
1.11 -0.250766
1.12 -0.264124
1.13 -0.276162
1.14 -0.286581
1.15 -0.295139
1.16 -0.301685
1.17 -0.306163
1.18 -0.308578
1.19 -0.308928
1.2 -0.307639
1.21 -0.305001
1.22 -0.301351
1.23 -0.297055
1.24 -0.292496
1.25 -0.288081
1.26 -0.284205
1.27 -0.281162
1.28 -0.279194
1.29 -0.278478
1.3 -0.279119
1.31 -0.281147
1.32 -0.284633
1.33 -0.289274
1.34 -0.294852
1.35 -0.301097
1.36 -0.307694
1.37 -0.314298
1.38 -0.320512
1.39 -0.325932
1.4 -0.330261
1.41 -0.333216
1.42 -0.334571
1.43 -0.334165
1.44 -0.331909
1.45 -0.327594
1.46 -0.321514
1.47 -0.31385
1.48 -0.304848
1.49 -0.294816
1.5 -0.284113
1.51 -0.273143
1.52 -0.262393
1.53 -0.252296
1.54 -0.243257
1.55 -0.235642
1.56 -0.229772
1.57 -0.2259
1.58 -0.224435
1.59 -0.225282
1.6 -0.228387
1.61 -0.23364
1.62 -0.240844
1.63 -0.249721
1.64 -0.259953
1.65 -0.271102
1.66 -0.282603
1.67 -0.293965
1.68 -0.304693
1.69 -0.314306
1.7 -0.322349
1.71 -0.328208
1.72 -0.331636
1.73 -0.33244
1.74 -0.330464
1.75 -0.325641
1.76 -0.318002
1.77 -0.307607
1.78 -0.294548
1.79 -0.279385
1.8 -0.262502
1.81 -0.244338
1.82 -0.225365
1.83 -0.20608
1.84 -0.187034
1.85 -0.16876
1.86 -0.151687
1.87 -0.136201
1.88 -0.122621
1.89 -0.111195
1.9 -0.10212
1.91 -0.0956829
1.92 -0.0916075
1.93 -0.0897758
1.94 -0.0899922
1.95 -0.0919937
1.96 -0.0954613
1.97 -0.100081
1.98 -0.105386
1.99 -0.110925
2 -0.116309
2.01 -0.121176
2.02 -0.1252
2.03 -0.128106
2.04 -0.129521
2.05 -0.129459
2.06 -0.127876
2.07 -0.124806
2.08 -0.120354
2.09 -0.114698
2.1 -0.108039
2.11 -0.100716
2.12 -0.0931226
2.13 -0.0856195
2.14 -0.0785745
2.15 -0.0723489
2.16 -0.0672833
2.17 -0.0638734
2.18 -0.0622454
2.19 -0.0625754
2.2 -0.0649858
2.21 -0.0695295
2.22 -0.0761883
2.23 -0.0849589
2.24 -0.0957032
2.25 -0.108048
2.26 -0.121714
2.27 -0.136384
2.28 -0.151715
2.29 -0.167351
2.3 -0.182892
2.31 -0.197963
2.32 -0.212254
2.33 -0.225489
2.34 -0.237442
2.35 -0.247937
2.36 -0.256803
2.37 -0.263907
2.38 -0.269404
2.39 -0.273371
2.4 -0.275942
2.41 -0.277292
2.42 -0.277634
2.43 -0.277167
2.44 -0.276224
2.45 -0.275091
2.46 -0.274023
2.47 -0.273257
2.48 -0.273005
2.49 -0.273464
2.5 -0.274843
2.51 -0.277154
2.52 -0.280434
2.53 -0.284672
2.54 -0.289811
2.55 -0.29576
2.56 -0.302427
2.57 -0.309608
2.58 -0.317095
2.59 -0.324697
2.6 -0.332223
2.61 -0.339488
2.62 -0.346313
2.63 -0.352479
2.64 -0.357917
2.65 -0.362543
2.66 -0.366301
2.67 -0.369173
2.68 -0.371168
2.69 -0.372277
2.7 -0.372587
2.71 -0.372231
2.72 -0.371309
2.73 -0.369925
2.74 -0.368182
2.75 -0.366176
2.76 -0.363971
2.77 -0.361649
2.78 -0.359239
2.79 -0.35674
2.8 -0.354123
2.81 -0.351329
2.82 -0.348252
2.83 -0.344758
2.84 -0.340731
2.85 -0.336024
2.86 -0.330485
2.87 -0.323964
2.88 -0.316319
2.89 -0.307279
2.9 -0.296858
2.91 -0.285004
2.92 -0.27169
2.93 -0.256923
2.94 -0.240754
2.95 -0.223225
2.96 -0.204454
2.97 -0.184713
2.98 -0.164211
2.99 -0.143179
3 -0.121868
3.01 -0.100535
3.02 -0.0794885
3.03 -0.0589887
3.04 -0.0392589
3.05 -0.0205017
3.06 -0.00288609
3.07 0.0134584
3.08 0.0284012
3.09 0.0418302
3.1 0.0538841
3.11 0.0646314
3.12 0.0741846
3.13 0.0826955
3.14 0.09035
3.15 0.0973259
3.16 0.10392
3.17 0.110393
3.18 0.116988
3.19 0.123933
3.2 0.131441
3.21 0.139715
3.22 0.148991
3.23 0.159294
3.24 0.170682
3.25 0.183169
3.26 0.196723
3.27 0.211265
3.28 0.226732
3.29 0.242915
3.3 0.259584
3.31 0.276526
3.32 0.293513
3.33 0.310308
3.34 0.326675
3.35 0.342302
3.36 0.357041
3.37 0.370721
3.38 0.3832
3.39 0.394374
3.4 0.404175
3.41 0.412489
3.42 0.419348
3.43 0.424887
3.44 0.429199
3.45 0.432406
3.46 0.434655
3.47 0.436108
3.48 0.436891
3.49 0.43727
3.5 0.437421
3.51 0.43751
3.52 0.437686
3.53 0.438079
3.54 0.438816
3.55 0.439989
3.56 0.441618
3.57 0.443718
3.58 0.446278
3.59 0.449262
3.6 0.45261
3.61 0.45627
3.62 0.460114
3.63 0.464042
3.64 0.467954
3.65 0.471753
3.66 0.475351
3.67 0.478656
3.68 0.481588
3.69 0.484127
3.7 0.486252
3.71 0.487961
3.72 0.48927
3.73 0.49021
3.74 0.490806
3.75 0.491144
3.76 0.491301
3.77 0.491344
3.78 0.491341
3.79 0.491352
3.8 0.49143
3.81 0.49162
3.82 0.491929
3.83 0.492351
3.84 0.492858
3.85 0.493402
3.86 0.493911
3.87 0.494275
3.88 0.494376
3.89 0.494092
3.9 0.493285
3.91 0.491813
3.92 0.48953
3.93 0.486276
3.94 0.481812
3.95 0.476116
3.96 0.469086
3.97 0.460639
3.98 0.450715
3.99 0.439277
4 0.426209
4.01 0.411569
4.02 0.395474
4.03 0.377994
4.04 0.35922
4.05 0.339261
4.06 0.318234
4.07 0.2962
4.08 0.273418
4.09 0.250038
4.1 0.22621
4.11 0.202081
4.12 0.177793
4.13 0.153485
4.14 0.129296
4.15 0.105335
4.16 0.0816972
4.17 0.0584647
4.18 0.0357082
4.19 0.0134863
4.2 -0.00808217
4.21 -0.0290195
4.22 -0.0492978
4.23 -0.0688926
4.24 -0.0877831
4.25 -0.105951
4.26 -0.123343
4.27 -0.139925
4.28 -0.155732
4.29 -0.170746
4.3 -0.18495
4.31 -0.198328
4.32 -0.210864
4.33 -0.222455
4.34 -0.233167
4.35 -0.243007
4.36 -0.251978
4.37 -0.260088
4.38 -0.267355
4.39 -0.273774
4.4 -0.279355
4.41 -0.284207
4.42 -0.288385
4.43 -0.291952
4.44 -0.294975
4.45 -0.297528
4.46 -0.299657
4.47 -0.301474
4.48 -0.303063
4.49 -0.304497
4.5 -0.305838
4.51 -0.307144
4.52 -0.308464
4.53 -0.309841
4.54 -0.311294
4.55 -0.312833
4.56 -0.314455
4.57 -0.316147
4.58 -0.317883
4.59 -0.319629
4.6 -0.321337
4.61 -0.322962
4.62 -0.324456
4.63 -0.325772
4.64 -0.326864
4.65 -0.32769
4.66 -0.328189
4.67 -0.328367
4.68 -0.328216
4.69 -0.327737
4.7 -0.326944
4.71 -0.325861
4.72 -0.324511
4.73 -0.322954
4.74 -0.321257
4.75 -0.319485
4.76 -0.317702
4.77 -0.315977
4.78 -0.314379
4.79 -0.312999
4.8 -0.311878
4.81 -0.311066
4.82 -0.310603
4.83 -0.310517
4.84 -0.310827
4.85 -0.311561
4.86 -0.312713
4.87 -0.314239
4.88 -0.31611
4.89 -0.31829
4.9 -0.320734
4.91 -0.323394
4.92 -0.326231
4.93 -0.329169
4.94 -0.332158
4.95 -0.335147
4.96 -0.338094
4.97 -0.34096
4.98 -0.343704
4.99 -0.346293
5 -0.348717
5.01 -0.35096
5.02 -0.353012
5.03 -0.354866
5.04 -0.356514
5.05 -0.357927
5.06 -0.359113
5.07 -0.360061
5.08 -0.360751
5.09 -0.361155
5.1 -0.36124
5.11 -0.360946
5.12 -0.360195
5.13 -0.358953
5.14 -0.357151
5.15 -0.354714
5.16 -0.35156
5.17 -0.347606
5.18 -0.342685
5.19 -0.336759
5.2 -0.329778
5.21 -0.321676
5.22 -0.312397
5.23 -0.301894
5.24 -0.290105
5.25 -0.276927
5.26 -0.26248
5.27 -0.246784
5.28 -0.229874
5.29 -0.2118
5.3 -0.192626
5.31 -0.172355
5.32 -0.151125
5.33 -0.129071
5.34 -0.106293
5.35 -0.0828942
5.36 -0.058977
5.37 -0.0346382
5.38 -0.0099576
5.39 0.0149329
5.4 0.0399488
5.41 0.0650123
5.42 0.0900518
5.43 0.115001
5.44 0.139786
5.45 0.164341
5.46 0.188619
5.47 0.212561
5.48 0.236107
5.49 0.259189
5.5 0.281734
5.51 0.303576
5.52 0.324684
5.53 0.344952
5.54 0.36426
5.55 0.382483
5.56 0.399482
5.57 0.41503
5.58 0.428945
5.59 0.441163
5.6 0.451539
5.61 0.459933
5.62 0.466219
5.63 0.470285
5.64 0.47178
5.65 0.470865
5.66 0.467525
5.67 0.461759
5.68 0.453592
5.69 0.443088
5.7 0.430245
5.71 0.415153
5.72 0.398136
5.73 0.379385
5.74 0.359112
5.75 0.337547
5.76 0.314933
5.77 0.291467
5.78 0.26749
5.79 0.243262
5.8 0.219017
5.81 0.194971
5.82 0.171319
5.83 0.148256
5.84 0.125976
5.85 0.104533
5.86 0.0839995
5.87 0.0644181
5.88 0.0458025
5.89 0.0281397
5.9 0.0114678
5.91 -0.0043285
5.92 -0.0193496
5.93 -0.0336751
5.94 -0.0473868
5.95 -0.060563
5.96 -0.0732649
5.97 -0.0855248
5.98 -0.0974202
5.99 -0.108964
6 -0.120147
6.01 -0.130935
6.02 -0.141271
6.03 -0.151025
6.04 -0.160097
6.05 -0.168387
6.06 -0.17576
6.07 -0.182077
6.08 -0.187193
6.09 -0.190954
6.1 -0.193077
6.11 -0.1936
6.12 -0.192438
6.13 -0.189532
6.14 -0.184853
6.15 -0.178408
6.16 -0.17013
6.17 -0.160131
6.18 -0.148619
6.19 -0.135748
6.2 -0.121697
6.21 -0.106669
6.22 -0.0908883
6.23 -0.0745615
6.24 -0.058016
6.25 -0.0414964
6.26 -0.0252393
6.27 -0.00946721
6.28 0.00561745
6.29 0.0197835
6.3 0.0328547
6.31 0.0447842
6.32 0.0555042
6.33 0.0649844
6.34 0.0732316
6.35 0.0802885
6.36 0.086125
6.37 0.0909693
6.38 0.0949728
6.39 0.0982937
6.4 0.101104
6.41 0.103585
6.42 0.105921
6.43 0.108317
6.44 0.110948
6.45 0.113967
6.46 0.117507
6.47 0.121677
6.48 0.126563
6.49 0.132302
6.5 0.138869
6.51 0.146247
6.52 0.154412
6.53 0.163318
6.54 0.172902
6.55 0.183099
6.56 0.193834
6.57 0.204959
6.58 0.216373
6.59 0.227977
6.6 0.23968
6.61 0.251397
6.62 0.263045
6.63 0.274561
6.64 0.285905
6.65 0.29705
6.66 0.307979
6.67 0.31869
6.68 0.329186
6.69 0.339472
6.7 0.349587
6.71 0.359553
6.72 0.369392
6.73 0.379116
6.74 0.388733
6.75 0.398227
6.76 0.407578
6.77 0.416756
6.78 0.425705
6.79 0.434358
6.8 0.442629
6.81 0.450412
6.82 0.457521
6.83 0.463886
6.84 0.469373
6.85 0.473848
6.86 0.477175
6.87 0.479222
6.88 0.479772
6.89 0.478703
6.9 0.475999
6.91 0.471583
6.92 0.465395
6.93 0.4574
6.94 0.447583
6.95 0.435746
6.96 0.422131
6.97 0.406799
6.98 0.389827
6.99 0.371309
7 0.351355
7.01 0.330027
7.02 0.307456
7.03 0.283867
7.04 0.2594
7.05 0.234194
7.06 0.208385
7.07 0.182105
7.08 0.155452
7.09 0.128582
7.1 0.1016
7.11 0.0745985
7.12 0.0476569
7.13 0.0208457
7.14 -0.00576433
7.15 -0.0321039
7.16 -0.0581436
7.17 -0.0838429
7.18 -0.109164
7.19 -0.13407
7.2 -0.158524
7.21 -0.182438
7.22 -0.205798
7.23 -0.228569
7.24 -0.250702
7.25 -0.27214
7.26 -0.292824
7.27 -0.312669
7.28 -0.331546
7.29 -0.349465
7.3 -0.366361
7.31 -0.382172
7.32 -0.396842
7.33 -0.41032
7.34 -0.422463
7.35 -0.433291
7.36 -0.442832
7.37 -0.45108
7.38 -0.458044
7.39 -0.463746
7.4 -0.468204
7.41 -0.471375
7.42 -0.473448
7.43 -0.474499
7.44 -0.474614
7.45 -0.473884
7.46 -0.472409
7.47 -0.470252
7.48 -0.467545
7.49 -0.464418
7.5 -0.460964
7.51 -0.457271
7.52 -0.45342
7.53 -0.449478
7.54 -0.445503
7.55 -0.441543
7.56 -0.437623
7.57 -0.433754
7.58 -0.429934
7.59 -0.426145
7.6 -0.422356
7.61 -0.418518
7.62 -0.414579
7.63 -0.410478
7.64 -0.406149
7.65 -0.401525
7.66 -0.396537
7.67 -0.39106
7.68 -0.385073
7.69 -0.378522
7.7 -0.371362
7.71 -0.363555
7.72 -0.355077
7.73 -0.345886
7.74 -0.335971
7.75 -0.325402
7.76 -0.314213
7.77 -0.302457
7.78 -0.290196
7.79 -0.277506
7.8 -0.264451
7.81 -0.251169
7.82 -0.237771
7.83 -0.224369
7.84 -0.211077
7.85 -0.198011
7.86 -0.1853
7.87 -0.173086
7.88 -0.161442
7.89 -0.150458
7.9 -0.140217
7.91 -0.130787
7.92 -0.122223
7.93 -0.11465
7.94 -0.10804
7.95 -0.102374
7.96 -0.0976459
7.97 -0.0938354
7.98 -0.090909
7.99 -0.0888424
8 -0.0876246
8.01 -0.0871157
8.02 -0.0872468
8.03 -0.0879457
8.04 -0.0891395
8.05 -0.0907565
8.06 -0.092751
8.07 -0.0950382
8.08 -0.0975504
8.09 -0.100242
8.1 -0.103075
8.11 -0.106023
8.12 -0.109069
8.13 -0.112214
8.14 -0.11545
8.15 -0.118787
8.16 -0.12224
8.17 -0.125829
8.18 -0.129573
8.19 -0.133506
8.2 -0.137644
8.21 -0.141987
8.22 -0.146539
8.23 -0.15129
8.24 -0.156223
8.25 -0.161306
8.26 -0.166499
8.27 -0.171722
8.28 -0.176899
8.29 -0.181942
8.3 -0.186748
8.31 -0.191209
8.32 -0.195172
8.33 -0.198492
8.34 -0.201073
8.35 -0.202791
8.36 -0.203529
8.37 -0.203174
8.38 -0.201628
8.39 -0.198657
8.4 -0.194317
8.41 -0.188573
8.42 -0.181398
8.43 -0.172787
8.44 -0.162754
8.45 -0.151275
8.46 -0.138381
8.47 -0.124246
8.48 -0.108964
8.49 -0.092636
8.5 -0.0753756
8.51 -0.0573
8.52 -0.0384723
8.53 -0.0190781
8.54 0.000758242
8.55 0.0209342
8.56 0.0413584
8.57 0.0619525
8.58 0.0826552
8.59 0.103417
8.6 0.124203
8.61 0.145
8.62 0.16581
8.63 0.186646
8.64 0.207529
8.65 0.228499
8.66 0.249585
8.67 0.270817
8.68 0.29222
8.69 0.313808
8.7 0.335588
8.71 0.357552
8.72 0.379677
8.73 0.401894
8.74 0.42413
8.75 0.44629
8.76 0.468261
8.77 0.48991
8.78 0.511038
8.79 0.531472
8.8 0.551055
8.81 0.569603
8.82 0.586932
8.83 0.602859
8.84 0.617187
8.85 0.629571
8.86 0.640037
8.87 0.648461
8.88 0.654744
8.89 0.65881
8.9 0.660612
8.91 0.659979
8.92 0.656954
8.93 0.651697
8.94 0.644272
8.95 0.634766
8.96 0.623283
8.97 0.609943
8.98 0.594693
8.99 0.577886
9 0.559662
9.01 0.540159
9.02 0.519509
9.03 0.497838
9.04 0.475212
9.05 0.451736
9.06 0.427546
9.07 0.402708
9.08 0.377271
9.09 0.351275
9.1 0.324745
9.11 0.297648
9.12 0.270048
9.13 0.241963
9.14 0.213409
9.15 0.184407
9.16 0.154992
9.17 0.125195
9.18 0.095082
9.19 0.0647654
9.2 0.0343512
9.21 0.00396577
9.22 -0.0262446
9.23 -0.056115
9.24 -0.0853947
9.25 -0.113903
9.26 -0.141443
9.27 -0.167803
9.28 -0.192771
9.29 -0.216137
9.3 -0.23764
9.31 -0.256967
9.32 -0.274116
9.33 -0.288949
9.34 -0.301362
9.35 -0.311274
9.36 -0.318642
9.37 -0.323237
9.38 -0.325221
9.39 -0.324738
9.4 -0.321878
9.41 -0.316757
9.42 -0.309514
9.43 -0.300272
9.44 -0.289091
9.45 -0.276342
9.46 -0.262213
9.47 -0.24689
9.48 -0.230554
9.49 -0.213376
9.5 -0.195474
9.51 -0.177028
9.52 -0.158185
9.53 -0.139044
9.54 -0.119687
9.55 -0.100174
9.56 -0.0805497
9.57 -0.0608389
9.58 -0.0410675
9.59 -0.0212429
9.6 -0.00136843
9.61 0.0185531
9.62 0.0385159
9.63 0.0585077
9.64 0.0785009
9.65 0.0984558
9.66 0.11832
9.67 0.138023
9.68 0.157483
9.69 0.176597
9.7 0.195184
9.71 0.213155
9.72 0.230371
9.73 0.246688
9.74 0.26196
9.75 0.276042
9.76 0.288722
9.77 0.299834
9.78 0.30936
9.79 0.31721
9.8 0.323318
9.81 0.327642
9.82 0.330163
9.83 0.33071
9.84 0.329494
9.85 0.326607
9.86 0.322143
9.87 0.316217
9.88 0.308965
9.89 0.300493
9.9 0.290947
9.91 0.280582
9.92 0.269564
9.93 0.258057
9.94 0.246215
9.95 0.234181
9.96 0.22209
9.97 0.210066
9.98 0.198196
9.99 0.186545
10 0.175158
10.01 0.164057
10.02 0.153255
10.03 0.142751
10.04 0.132485
10.05 0.122415
10.06 0.112486
10.07 0.102643
10.08 0.0928268
10.09 0.0829733
10.1 0.0730274
10.11 0.0629495
10.12 0.0527095
10.13 0.0422901
10.14 0.0316875
10.15 0.0209094
10.16 0.00997326
10.17 -0.00106282
10.18 -0.0121459
10.19 -0.0232135
10.2 -0.0341955
10.21 -0.0450172
10.22 -0.0555791
10.23 -0.0658005
10.24 -0.0756214
10.25 -0.0849774
10.26 -0.0938129
10.27 -0.102083
10.28 -0.109752
10.29 -0.116736
10.3 -0.1231
10.31 -0.128857
10.32 -0.134033
10.33 -0.138665
10.34 -0.1428
10.35 -0.146473
10.36 -0.149758
10.37 -0.152747
10.38 -0.155509
10.39 -0.158111
10.4 -0.160618
10.41 -0.163088
10.42 -0.16558
10.43 -0.168139
10.44 -0.170796
10.45 -0.173575
10.46 -0.176487
10.47 -0.179538
10.48 -0.182726
10.49 -0.186041
10.5 -0.189453
10.51 -0.192938
10.52 -0.196471
10.53 -0.200024
10.54 -0.20357
10.55 -0.207082
10.56 -0.210538
10.57 -0.213926
10.58 -0.217235
10.59 -0.220461
10.6 -0.223607
10.61 -0.226676
10.62 -0.229679
10.63 -0.232638
10.64 -0.235571
10.65 -0.238497
10.66 -0.241434
10.67 -0.244398
10.68 -0.247409
10.69 -0.250472
10.7 -0.253591
10.71 -0.256761
10.72 -0.259974
10.73 -0.263214
10.74 -0.266459
10.75 -0.269678
10.76 -0.272838
10.77 -0.275904
10.78 -0.278842
10.79 -0.281614
10.8 -0.284189
10.81 -0.286514
10.82 -0.288572
10.83 -0.290354
10.84 -0.291852
10.85 -0.293065
10.86 -0.294
10.87 -0.294671
10.88 -0.295088
10.89 -0.295313
10.9 -0.295387
10.91 -0.295359
10.92 -0.295277
10.93 -0.295194
10.94 -0.295166
10.95 -0.295247
10.96 -0.295472
10.97 -0.295876
10.98 -0.29648
10.99 -0.297294
11 -0.29832
11.01 -0.299561
11.02 -0.300961
11.03 -0.302476
11.04 -0.304049
11.05 -0.305612
11.06 -0.307088
11.07 -0.308376
11.08 -0.309371
11.09 -0.309991
11.1 -0.310145
11.11 -0.309745
11.12 -0.308709
11.13 -0.306964
11.14 -0.30436
11.15 -0.300927
11.16 -0.296643
11.17 -0.291494
11.18 -0.285488
11.19 -0.278646
11.2 -0.270972
11.21 -0.262513
11.22 -0.253397
11.23 -0.243706
11.24 -0.233533
11.25 -0.222977
11.26 -0.21214
11.27 -0.201119
11.28 -0.190038
11.29 -0.178997
11.3 -0.168081
11.31 -0.157367
11.32 -0.146918
11.33 -0.136799
11.34 -0.127065
11.35 -0.117705
11.36 -0.108721
11.37 -0.1001
11.38 -0.0918152
11.39 -0.0838276
11.4 -0.0761043
11.41 -0.068564
11.42 -0.0611338
11.43 -0.0537443
11.44 -0.0463249
11.45 -0.0388062
11.46 -0.0311163
11.47 -0.0231713
11.48 -0.0149358
11.49 -0.00636637
11.5 0.00257102
11.51 0.0119001
11.52 0.0216345
11.53 0.0318084
11.54 0.0423977
11.55 0.0533682
11.56 0.0646947
11.57 0.0763455
11.58 0.0882838
11.59 0.100472
11.6 0.112882
11.61 0.125446
11.62 0.138123
11.63 0.150873
11.64 0.163662
11.65 0.176457
11.66 0.189229
11.67 0.201952
11.68 0.214611
11.69 0.227193
11.7 0.23969
11.71 0.252094
11.72 0.264401
11.73 0.276594
11.74 0.28868
11.75 0.300651
11.76 0.312497
11.77 0.324205
11.78 0.335753
11.79 0.347107
11.8 0.358226
11.81 0.369083
11.82 0.379632
11.83 0.38982
11.84 0.399588
11.85 0.408872
11.86 0.417538
11.87 0.425561
11.88 0.432873
11.89 0.439399
11.9 0.445067
11.91 0.449806
11.92 0.453505
11.93 0.456062
11.94 0.457499
11.95 0.457771
11.96 0.456843
11.97 0.454688
11.98 0.451289
11.99 0.446521
12 0.440488
12.01 0.433233
12.02 0.424786
12.03 0.415185
12.04 0.40448
12.05 0.392696
12.06 0.379857
12.07 0.366126
12.08 0.351583
12.09 0.336315
12.1 0.320409
12.11 0.303961
12.12 0.287034
12.13 0.269764
12.14 0.252259
12.15 0.234619
12.16 0.216938
12.17 0.199311
12.18 0.181837
12.19 0.164632
12.2 0.147766
12.21 0.131321
12.22 0.115373
12.23 0.0999952
12.24 0.0852547
