# xPDFsuite Configuration #
[PDF]
wavelength = 0.1
dataformat = QA
inputfile = BiMsol6_insitu_700 C-00003.xy
backgroundfile = Quartz2mm-dist500-00000.xy
mode = xray
bgscale = 0.0042
composition = Bi2Fe4O9
outputtype = gr
qmaxinst = 24.998449118
qmin = 0.1
qmax = 21.4986662415
rmax = 80.0
rmin = 0.0
rstep = 0.01
rpoly = 0.9

[Misc]
inputdir = C:/Data/Seafile/CPH/Beamtime/Desy Oct 20/In situ data/Processed/BiMsol6/PDF
savedir = C:/Data/Seafile/CPH/Beamtime/Desy Oct 20/In situ data/PDF/BiMsol6
backgroundfilefull = C:/Data/Seafile/CPH/Beamtime/Desy Oct 20/In situ data/Processed/Standard_Empty_Cap/Quartz2mm-dist500-00000.xy

#### start data
#S 1
#L r($\AA$)  G($\AA^{-2}$)
0 0
0.01 0.00682802
0.02 0.0132793
0.03 0.0190312
0.04 0.0237939
0.05 0.0273232
0.06 0.0294323
0.07 0.0299156
0.08 0.0287103
0.09 0.0259621
0.1 0.0217893
0.11 0.0163779
0.12 0.00997322
0.13 0.00286909
0.14 -0.00460665
0.15 -0.0120313
0.16 -0.0190492
0.17 -0.0253253
0.18 -0.0305574
0.19 -0.0344903
0.2 -0.0368609
0.21 -0.0374839
0.22 -0.036449
0.23 -0.0338133
0.24 -0.0297145
0.25 -0.0243666
0.26 -0.0180517
0.27 -0.0110863
0.28 -0.00394727
0.29 0.00294122
0.3 0.00916624
0.31 0.0143322
0.32 0.0180798
0.33 0.020044
0.34 0.0198631
0.35 0.0175693
0.36 0.0131411
0.37 0.0066622
0.38 -0.00167598
0.39 -0.011577
0.4 -0.0227019
0.41 -0.034434
0.42 -0.0461647
0.43 -0.0572748
0.44 -0.0671201
0.45 -0.0750543
0.46 -0.0803929
0.47 -0.0822558
0.48 -0.0804258
0.49 -0.0745295
0.5 -0.0643149
0.51 -0.0496661
0.52 -0.0306141
0.53 -0.00706211
0.54 0.020459
0.55 0.0512359
0.56 0.0846063
0.57 0.119789
0.58 0.155906
0.59 0.191995
0.6 0.226836
0.61 0.259443
0.62 0.288832
0.63 0.314078
0.64 0.334344
0.65 0.348906
0.66 0.356764
0.67 0.357495
0.68 0.35125
0.69 0.338015
0.7 0.317963
0.71 0.291452
0.72 0.25901
0.73 0.220826
0.74 0.178416
0.75 0.132765
0.76 0.0849181
0.77 0.0359667
0.78 -0.0129844
0.79 -0.0607405
0.8 -0.106091
0.81 -0.148197
0.82 -0.186254
0.83 -0.219592
0.84 -0.247698
0.85 -0.270227
0.86 -0.286409
0.87 -0.296795
0.88 -0.301678
0.89 -0.301424
0.9 -0.296539
0.91 -0.287642
0.92 -0.275351
0.93 -0.260462
0.94 -0.244045
0.95 -0.226919
0.96 -0.20988
0.97 -0.193671
0.98 -0.178958
0.99 -0.166551
1 -0.156804
1.01 -0.149971
1.02 -0.146229
1.03 -0.145628
1.04 -0.148094
1.05 -0.153509
1.06 -0.161687
1.07 -0.171976
1.08 -0.183918
1.09 -0.197011
1.1 -0.210736
1.11 -0.224577
1.12 -0.237969
1.13 -0.25043
1.14 -0.261597
1.15 -0.271172
1.16 -0.278936
1.17 -0.28476
1.18 -0.288573
1.19 -0.290281
1.2 -0.290231
1.21 -0.288645
1.22 -0.285798
1.23 -0.282006
1.24 -0.277611
1.25 -0.272972
1.26 -0.268484
1.27 -0.264464
1.28 -0.26118
1.29 -0.258846
1.3 -0.257614
1.31 -0.257575
1.32 -0.258858
1.33 -0.261255
1.34 -0.264622
1.35 -0.268761
1.36 -0.273424
1.37 -0.278329
1.38 -0.283148
1.39 -0.287525
1.4 -0.291166
1.41 -0.293803
1.42 -0.295205
1.43 -0.295191
1.44 -0.293645
1.45 -0.290338
1.46 -0.285477
1.47 -0.279181
1.48 -0.271628
1.49 -0.263058
1.5 -0.253764
1.51 -0.244078
1.52 -0.234416
1.53 -0.225176
1.54 -0.216724
1.55 -0.209403
1.56 -0.203521
1.57 -0.199333
1.58 -0.197235
1.59 -0.197187
1.6 -0.199177
1.61 -0.203144
1.62 -0.208943
1.63 -0.216352
1.64 -0.225113
1.65 -0.234856
1.66 -0.245063
1.67 -0.255289
1.68 -0.265074
1.69 -0.273958
1.7 -0.281502
1.71 -0.287109
1.72 -0.2905
1.73 -0.291451
1.74 -0.289763
1.75 -0.285323
1.76 -0.278104
1.77 -0.268104
1.78 -0.255334
1.79 -0.240294
1.8 -0.223307
1.81 -0.204755
1.82 -0.185063
1.83 -0.164688
1.84 -0.144122
1.85 -0.1239
1.86 -0.104467
1.87 -0.0862233
1.88 -0.069518
1.89 -0.0546356
1.9 -0.0418204
1.91 -0.031403
1.92 -0.0232008
1.93 -0.017163
1.94 -0.0131622
1.95 -0.0110019
1.96 -0.0104254
1.97 -0.0111904
1.98 -0.0128804
1.99 -0.0150723
2 -0.0174037
2.01 -0.019527
2.02 -0.021124
2.03 -0.0219149
2.04 -0.0215457
2.05 -0.0199731
2.06 -0.0171278
2.07 -0.0130142
2.08 -0.00771057
2.09 -0.00136622
2.1 0.00583463
2.11 0.013572
2.12 0.0214686
2.13 0.0291646
2.14 0.0362834
2.15 0.0424463
2.16 0.0472872
2.17 0.0502513
2.18 0.0511889
2.19 0.049882
2.2 0.0461641
2.21 0.03994
2.22 0.03119
2.23 0.0198656
2.24 0.00607046
2.25 -0.00979479
2.26 -0.0274418
2.27 -0.0465281
2.28 -0.0666683
2.29 -0.0874465
2.3 -0.108406
2.31 -0.129047
2.32 -0.148949
2.33 -0.167721
2.34 -0.185012
2.35 -0.200522
2.36 -0.213936
2.37 -0.224959
2.38 -0.233676
2.39 -0.240073
2.4 -0.244207
2.41 -0.246201
2.42 -0.246235
2.43 -0.244418
2.44 -0.241167
2.45 -0.236844
2.46 -0.231782
2.47 -0.226316
2.48 -0.220775
2.49 -0.215484
2.5 -0.210794
2.51 -0.206914
2.52 -0.204034
2.53 -0.202296
2.54 -0.201786
2.55 -0.20254
2.56 -0.20463
2.57 -0.207929
2.58 -0.212264
2.59 -0.217475
2.6 -0.223378
2.61 -0.229764
2.62 -0.236413
2.63 -0.243082
2.64 -0.249533
2.65 -0.255566
2.66 -0.261006
2.67 -0.265704
2.68 -0.269542
2.69 -0.272372
2.7 -0.274159
2.71 -0.274949
2.72 -0.274774
2.73 -0.273695
2.74 -0.2718
2.75 -0.269195
2.76 -0.265953
2.77 -0.262287
2.78 -0.258333
2.79 -0.254222
2.8 -0.250076
2.81 -0.246003
2.82 -0.242107
2.83 -0.238466
2.84 -0.235109
2.85 -0.232055
2.86 -0.229297
2.87 -0.226811
2.88 -0.224552
2.89 -0.222469
2.9 -0.220466
2.91 -0.218461
2.92 -0.216371
2.93 -0.214115
2.94 -0.211616
2.95 -0.208794
2.96 -0.205577
2.97 -0.201951
2.98 -0.197896
2.99 -0.193409
3 -0.1885
3.01 -0.183195
3.02 -0.177503
3.03 -0.171506
3.04 -0.16527
3.05 -0.158856
3.06 -0.152324
3.07 -0.145732
3.08 -0.139132
3.09 -0.132574
3.1 -0.126086
3.11 -0.119682
3.12 -0.113363
3.13 -0.107115
3.14 -0.100911
3.15 -0.0947078
3.16 -0.088445
3.17 -0.0820613
3.18 -0.0754893
3.19 -0.0686592
3.2 -0.0615012
3.21 -0.0539392
3.22 -0.0458713
3.23 -0.037287
3.24 -0.0281474
3.25 -0.0184256
3.26 -0.00810802
3.27 0.00280608
3.28 0.0143456
3.29 0.0264633
3.3 0.0390966
3.31 0.0522002
3.32 0.0657229
3.33 0.0796101
3.34 0.0938089
3.35 0.108284
3.36 0.122956
3.37 0.137781
3.38 0.152726
3.39 0.167766
3.4 0.182884
3.41 0.198078
3.42 0.21335
3.43 0.228706
3.44 0.244162
3.45 0.259734
3.46 0.275439
3.47 0.291293
3.48 0.307323
3.49 0.323507
3.5 0.339833
3.51 0.356271
3.52 0.37278
3.53 0.389298
3.54 0.40574
3.55 0.421994
3.56 0.437951
3.57 0.453484
3.58 0.468453
3.59 0.482713
3.6 0.496109
3.61 0.508365
3.62 0.51941
3.63 0.529112
3.64 0.537343
3.65 0.543986
3.66 0.548944
3.67 0.552068
3.68 0.55324
3.69 0.552574
3.7 0.550081
3.71 0.545794
3.72 0.539773
3.73 0.532104
3.74 0.522761
3.75 0.511998
3.76 0.499998
3.77 0.486919
3.78 0.472929
3.79 0.4582
3.8 0.44289
3.81 0.427167
3.82 0.411237
3.83 0.395247
3.84 0.379331
3.85 0.363609
3.86 0.348182
3.87 0.333172
3.88 0.318633
3.89 0.304595
3.9 0.291087
3.91 0.27812
3.92 0.265693
3.93 0.253802
3.94 0.242459
3.95 0.231581
3.96 0.22113
3.97 0.211065
3.98 0.201345
3.99 0.191926
4 0.182787
4.01 0.173876
4.02 0.165151
4.03 0.156581
4.04 0.148141
4.05 0.139811
4.06 0.131572
4.07 0.123418
4.08 0.115325
4.09 0.107287
4.1 0.0992932
4.11 0.0913382
4.12 0.0834157
4.13 0.0755213
4.14 0.0676495
4.15 0.0597952
4.16 0.0519555
4.17 0.0441297
4.18 0.0363189
4.19 0.0285269
4.2 0.0207654
4.21 0.0130443
4.22 0.00538007
4.23 -0.00220609
4.24 -0.00968847
4.25 -0.0170369
4.26 -0.024207
4.27 -0.0311513
4.28 -0.037841
4.29 -0.0442343
4.3 -0.05029
4.31 -0.0559684
4.32 -0.061233
4.33 -0.066004
4.34 -0.0702934
4.35 -0.0740926
4.36 -0.0773951
4.37 -0.0802046
4.38 -0.0825351
4.39 -0.0843955
4.4 -0.0858107
4.41 -0.086864
4.42 -0.0876121
4.43 -0.0881189
4.44 -0.0884541
4.45 -0.0886908
4.46 -0.0889084
4.47 -0.0891904
4.48 -0.0896063
4.49 -0.090219
4.5 -0.0910827
4.51 -0.0922418
4.52 -0.0937378
4.53 -0.0956123
4.54 -0.0978362
4.55 -0.100396
4.56 -0.103265
4.57 -0.106401
4.58 -0.109751
4.59 -0.113258
4.6 -0.116833
4.61 -0.120389
4.62 -0.123845
4.63 -0.127118
4.64 -0.130126
4.65 -0.132788
4.66 -0.134996
4.67 -0.13673
4.68 -0.137948
4.69 -0.138623
4.7 -0.138742
4.71 -0.138308
4.72 -0.137304
4.73 -0.135782
4.74 -0.133818
4.75 -0.131475
4.76 -0.128826
4.77 -0.125953
4.78 -0.122943
4.79 -0.119892
4.8 -0.116903
4.81 -0.114065
4.82 -0.11146
4.83 -0.109162
4.84 -0.107238
4.85 -0.10577
4.86 -0.104806
4.87 -0.104346
4.88 -0.104402
4.89 -0.104974
4.9 -0.106047
4.91 -0.107595
4.92 -0.109626
4.93 -0.11204
4.94 -0.114779
4.95 -0.117782
4.96 -0.120981
4.97 -0.124312
4.98 -0.127704
4.99 -0.131083
5 -0.134384
5.01 -0.137549
5.02 -0.140527
5.03 -0.143274
5.04 -0.145753
5.05 -0.147902
5.06 -0.149723
5.07 -0.15121
5.08 -0.152358
5.09 -0.153169
5.1 -0.153653
5.11 -0.153815
5.12 -0.153664
5.13 -0.153252
5.14 -0.152607
5.15 -0.151762
5.16 -0.150751
5.17 -0.149608
5.18 -0.148365
5.19 -0.147069
5.2 -0.145757
5.21 -0.144464
5.22 -0.143222
5.23 -0.142062
5.24 -0.141015
5.25 -0.140115
5.26 -0.139372
5.27 -0.138798
5.28 -0.138402
5.29 -0.138189
5.3 -0.138154
5.31 -0.138301
5.32 -0.138604
5.33 -0.139033
5.34 -0.139558
5.35 -0.140143
5.36 -0.140746
5.37 -0.141322
5.38 -0.141807
5.39 -0.142153
5.4 -0.142307
5.41 -0.142218
5.42 -0.141836
5.43 -0.141116
5.44 -0.139991
5.45 -0.138431
5.46 -0.136436
5.47 -0.133995
5.48 -0.13111
5.49 -0.127792
5.5 -0.124067
5.51 -0.119935
5.52 -0.115495
5.53 -0.110809
5.54 -0.105947
5.55 -0.100987
5.56 -0.0960113
5.57 -0.0911139
5.58 -0.086393
5.59 -0.0819237
5.6 -0.0777796
5.61 -0.0740252
5.62 -0.0707134
5.63 -0.0678833
5.64 -0.0656139
5.65 -0.063859
5.66 -0.0625984
5.67 -0.0617984
5.68 -0.0614084
5.69 -0.0613618
5.7 -0.0615848
5.71 -0.0619745
5.72 -0.062409
5.73 -0.0627794
5.74 -0.0629756
5.75 -0.0628895
5.76 -0.0624193
5.77 -0.0614183
5.78 -0.0598378
5.79 -0.057629
5.8 -0.0547525
5.81 -0.0511897
5.82 -0.0469441
5.83 -0.0420214
5.84 -0.0364477
5.85 -0.0303517
5.86 -0.0238255
5.87 -0.0169767
5.88 -0.00992473
5.89 -0.00279764
5.9 0.00425584
5.91 0.0110911
5.92 0.0175852
5.93 0.0236233
5.94 0.0291044
5.95 0.0339452
5.96 0.0380666
5.97 0.0413726
5.98 0.0439226
5.99 0.0457335
6 0.0468468
6.01 0.0473275
6.02 0.0472622
6.03 0.0467324
6.04 0.0458915
6.05 0.0448911
6.06 0.0438701
6.07 0.0429682
6.08 0.0423205
6.09 0.0420591
6.1 0.0423562
6.11 0.0432596
6.12 0.0448384
6.13 0.047138
6.14 0.0501784
6.15 0.0539532
6.16 0.058471
6.17 0.0636542
6.18 0.069379
6.19 0.075539
6.2 0.0820116
6.21 0.0886623
6.22 0.095349
6.23 0.101897
6.24 0.108164
6.25 0.114016
6.26 0.119331
6.27 0.124005
6.28 0.127952
6.29 0.131063
6.3 0.133287
6.31 0.134667
6.32 0.135221
6.33 0.134988
6.34 0.134032
6.35 0.132436
6.36 0.130254
6.37 0.127662
6.38 0.124788
6.39 0.12176
6.4 0.118701
6.41 0.11573
6.42 0.112972
6.43 0.110543
6.44 0.108506
6.45 0.106916
6.46 0.105811
6.47 0.105206
6.48 0.105097
6.49 0.105497
6.5 0.106318
6.51 0.107483
6.52 0.108914
6.53 0.11052
6.54 0.112205
6.55 0.113864
6.56 0.11538
6.57 0.116663
6.58 0.117629
6.59 0.118205
6.6 0.118331
6.61 0.117964
6.62 0.117033
6.63 0.115556
6.64 0.113564
6.65 0.111085
6.66 0.108164
6.67 0.104856
6.68 0.101226
6.69 0.0973388
6.7 0.093307
6.71 0.0892129
6.72 0.0851378
6.73 0.0811584
6.74 0.0773446
6.75 0.0737777
6.76 0.0705062
6.77 0.0675542
6.78 0.0649428
6.79 0.0626803
6.8 0.0607618
6.81 0.0591729
6.82 0.0579114
6.83 0.0569028
6.84 0.0561012
6.85 0.0554556
6.86 0.0549129
6.87 0.0544195
6.88 0.05392
6.89 0.05336
6.9 0.0526989
6.91 0.0519031
6.92 0.0509467
6.93 0.0498128
6.94 0.0484932
6.95 0.0469683
6.96 0.0452696
6.97 0.0434155
6.98 0.0414293
6.99 0.039339
7 0.037175
7.01 0.034969
7.02 0.0327567
7.03 0.0305694
7.04 0.0284325
7.05 0.0263664
7.06 0.0243863
7.07 0.0225011
7.08 0.0207231
7.09 0.0190381
7.1 0.0174334
7.11 0.0158925
7.12 0.0143947
7.13 0.0129161
7.14 0.0114294
7.15 0.0099033
7.16 0.00831369
7.17 0.00663802
7.18 0.0048575
7.19 0.00295818
7.2 0.000931734
7.21 -0.00123528
7.22 -0.0035276
7.23 -0.00592855
7.24 -0.00841808
7.25 -0.01097
7.26 -0.0135528
7.27 -0.0161291
7.28 -0.0186512
7.29 -0.0210783
7.3 -0.0233681
7.31 -0.0254795
7.32 -0.0273736
7.33 -0.0290149
7.34 -0.0303478
7.35 -0.0313581
7.36 -0.0320398
7.37 -0.032384
7.38 -0.0323893
7.39 -0.0320622
7.4 -0.0314116
7.41 -0.030438
7.42 -0.0292027
7.43 -0.0277413
7.44 -0.0260944
7.45 -0.0243063
7.46 -0.0224242
7.47 -0.0204971
7.48 -0.0185823
7.49 -0.0167298
7.5 -0.0149857
7.51 -0.0133931
7.52 -0.0119913
7.53 -0.0108167
7.54 -0.00992837
7.55 -0.00932288
7.56 -0.00901639
7.57 -0.00901893
7.58 -0.00933432
7.59 -0.00996029
7.6 -0.0109057
7.61 -0.0121535
7.62 -0.0136663
7.63 -0.0154193
7.64 -0.017384
7.65 -0.0195287
7.66 -0.021819
7.67 -0.0242267
7.68 -0.0266987
7.69 -0.0291967
7.7 -0.0316831
7.71 -0.0341218
7.72 -0.0364783
7.73 -0.0387137
7.74 -0.0407927
7.75 -0.0426996
7.76 -0.0444148
7.77 -0.0459235
7.78 -0.0472161
7.79 -0.0482879
7.8 -0.0491184
7.81 -0.0497338
7.82 -0.0501503
7.83 -0.0503852
7.84 -0.05046
7.85 -0.0503996
7.86 -0.0502293
7.87 -0.0499797
7.88 -0.0496901
7.89 -0.049391
7.9 -0.0491118
7.91 -0.0488792
7.92 -0.0487168
7.93 -0.0486528
7.94 -0.0486961
7.95 -0.0488504
7.96 -0.0491153
7.97 -0.0494837
7.98 -0.0499417
7.99 -0.0504698
8 -0.05104
8.01 -0.0516131
8.02 -0.0521521
8.03 -0.0526168
8.04 -0.0529659
8.05 -0.0531582
8.06 -0.0531361
8.07 -0.0528673
8.08 -0.0523306
8.09 -0.0515039
8.1 -0.0503733
8.11 -0.0489345
8.12 -0.0471891
8.13 -0.0451322
8.14 -0.042825
8.15 -0.0403083
8.16 -0.0376328
8.17 -0.0348576
8.18 -0.0320491
8.19 -0.0292866
8.2 -0.0266555
8.21 -0.024229
8.22 -0.0220804
8.23 -0.0202782
8.24 -0.0188839
8.25 -0.0179514
8.26 -0.0175793
8.27 -0.0177375
8.28 -0.0184339
8.29 -0.0196604
8.3 -0.0213926
8.31 -0.0235899
8.32 -0.026215
8.33 -0.0291857
8.34 -0.0323915
8.35 -0.0357362
8.36 -0.0391163
8.37 -0.0424244
8.38 -0.0455516
8.39 -0.0483485
8.4 -0.0507344
8.41 -0.0526217
8.42 -0.0539326
8.43 -0.0546039
8.44 -0.0545893
8.45 -0.0538278
8.46 -0.0522932
8.47 -0.0500532
8.48 -0.0471436
8.49 -0.0436184
8.5 -0.0395482
8.51 -0.0350183
8.52 -0.0301012
8.53 -0.0249455
8.54 -0.019671
8.55 -0.0143925
8.56 -0.00922249
8.57 -0.00426833
8.58 0.000357442
8.59 0.0045381
8.6 0.00823239
8.61 0.0113882
8.62 0.0139711
8.63 0.0159652
8.64 0.0173734
8.65 0.0181704
8.66 0.018434
8.67 0.0182377
8.68 0.0176507
8.69 0.0167519
8.7 0.0156269
8.71 0.0143643
8.72 0.013062
8.73 0.0118173
8.74 0.0107099
8.75 0.00981038
8.76 0.00917814
8.77 0.0088597
8.78 0.00891501
8.79 0.00934894
8.8 0.0101451
8.81 0.011287
8.82 0.0127444
8.83 0.0144755
8.84 0.01643
8.85 0.0185547
8.86 0.0207612
8.87 0.022981
8.88 0.0251463
8.89 0.0271926
8.9 0.0290606
8.91 0.0306807
8.92 0.0320089
8.93 0.0330287
8.94 0.0337229
8.95 0.0340863
8.96 0.0341252
8.97 0.0338566
8.98 0.0332801
8.99 0.0324689
9 0.0314672
9.01 0.0303239
9.02 0.0290898
9.03 0.027816
9.04 0.0265549
9.05 0.0253586
9.06 0.0242641
9.07 0.0233024
9.08 0.0224962
9.09 0.0218595
9.1 0.0213974
9.11 0.0211232
9.12 0.0210058
9.13 0.0210227
9.14 0.0211476
9.15 0.0213499
9.16 0.0215968
9.17 0.0218539
9.18 0.0220836
9.19 0.0222571
9.2 0.0223503
9.21 0.022345
9.22 0.0222299
9.23 0.022001
9.24 0.0216521
9.25 0.0212049
9.26 0.0206814
9.27 0.0201069
9.28 0.0195112
9.29 0.0189272
9.3 0.018392
9.31 0.0179487
9.32 0.0176239
9.33 0.017445
9.34 0.0174332
9.35 0.0176032
9.36 0.0179615
9.37 0.0185207
9.38 0.0192568
9.39 0.0201413
9.4 0.0211432
9.41 0.0222243
9.42 0.0233402
9.43 0.0244404
9.44 0.0254612
9.45 0.0263526
9.46 0.027064
9.47 0.0275486
9.48 0.0277657
9.49 0.0276822
9.5 0.027249
9.51 0.0264625
9.52 0.0253378
9.53 0.0238878
9.54 0.0221369
9.55 0.0201206
9.56 0.0178831
9.57 0.0154706
9.58 0.0129688
9.59 0.0104455
9.6 0.00797063
9.61 0.00561404
9.62 0.00344286
9.63 0.00153847
9.64 -3.90985e-05
9.65 -0.00126081
9.66 -0.00209488
9.67 -0.00252198
9.68 -0.00253597
9.69 -0.0021442
9.7 -0.00132682
9.71 -0.000166726
9.72 0.00128744
9.73 0.00297802
9.74 0.00483973
9.75 0.00680187
9.76 0.00878803
9.77 0.0107124
9.78 0.0125032
9.79 0.0140947
9.8 0.0154291
9.81 0.0164582
9.82 0.017145
9.83 0.017426
9.84 0.0173256
9.85 0.0168557
9.86 0.0160371
9.87 0.0149039
9.88 0.0135017
9.89 0.0118811
9.9 0.0101116
9.91 0.00828102
9.92 0.00646465
9.93 0.00473847
9.94 0.00317644
9.95 0.00184806
9.96 0.000848802
9.97 0.000216137
9.98 -1.75108e-05
9.99 0.000174926
10 0.000807025
10.01 0.00187839
10.02 0.00338612
10.03 0.00531982
10.04 0.0075983
10.05 0.0101663
10.06 0.0129593
10.07 0.0159052
10.08 0.0189268
10.09 0.0219366
10.1 0.0248442
10.11 0.0275723
10.12 0.0300479
10.13 0.0322051
10.14 0.0339865
10.15 0.0353368
10.16 0.0361805
10.17 0.0365408
10.18 0.0364111
10.19 0.0357974
10.2 0.0347186
10.21 0.0332049
10.22 0.0312732
10.23 0.0289922
10.24 0.0264395
10.25 0.0236803
10.26 0.0207831
10.27 0.0178182
10.28 0.0148556
10.29 0.0119778
10.3 0.0092448
10.31 0.00671258
10.32 0.00442967
10.33 0.0024362
10.34 0.000763163
10.35 -0.00054694
10.36 -0.00148363
10.37 -0.00206784
10.38 -0.00231027
10.39 -0.00223047
10.4 -0.00185601
10.41 -0.00122151
10.42 -0.000347844
10.43 0.000690761
10.44 0.00184416
10.45 0.00306145
10.46 0.00429139
10.47 0.00548367
10.48 0.00658355
10.49 0.00753749
10.5 0.00831248
10.51 0.00887443
10.52 0.00919516
10.53 0.00925294
10.54 0.00903276
10.55 0.00849733
10.56 0.00767161
10.57 0.00656758
10.58 0.00519939
10.59 0.00358726
10.6 0.00175696
10.61 -0.000266446
10.62 -0.00244882
10.63 -0.00473645
10.64 -0.00708762
10.65 -0.00945905
10.66 -0.0118068
10.67 -0.0140869
10.68 -0.016243
10.69 -0.0182367
10.7 -0.0200339
10.71 -0.0216009
10.72 -0.0229087
10.73 -0.0239328
10.74 -0.0246462
10.75 -0.0250149
10.76 -0.0250618
10.77 -0.0247885
10.78 -0.0242032
10.79 -0.0233203
10.8 -0.0221607
10.81 -0.0207337
10.82 -0.0190873
10.83 -0.0172688
10.84 -0.0153202
10.85 -0.0132867
10.86 -0.0112159
10.87 -0.00915709
10.88 -0.00717047
10.89 -0.00530142
10.9 -0.00359522
10.91 -0.00209391
10.92 -0.000835327
10.93 0.000147758
10.94 0.000806278
10.95 0.00112429
10.96 0.00110551
10.97 0.000746437
10.98 5.13207e-05
10.99 -0.000967827
11 -0.00229265
11.01 -0.00392222
11.02 -0.00578745
11.03 -0.00784718
11.04 -0.0100553
11.05 -0.0123618
11.06 -0.0147137
11.07 -0.0170525
11.08 -0.0193143
11.09 -0.0214462
11.1 -0.0233964
11.11 -0.0251167
11.12 -0.0265633
11.13 -0.0276979
11.14 -0.0284478
11.15 -0.0288231
11.16 -0.0288112
11.17 -0.0284051
11.18 -0.0276064
11.19 -0.0264247
11.2 -0.024862
11.21 -0.0229401
11.22 -0.0207188
11.23 -0.0182384
11.24 -0.0155441
11.25 -0.0126856
11.26 -0.00971563
11.27 -0.00668864
11.28 -0.00367075
11.29 -0.000717401
11.3 0.00211886
11.31 0.00478854
11.32 0.00724625
11.33 0.00944143
11.34 0.0113224
11.35 0.0128843
11.36 0.0141083
11.37 0.0149831
11.38 0.015505
11.39 0.0156776
11.4 0.0154842
11.41 0.0149665
11.42 0.0141606
11.43 0.0130983
11.44 0.0118163
11.45 0.0103551
11.46 0.00875578
11.47 0.00706292
11.48 0.00533385
11.49 0.00361313
11.5 0.0019434
11.51 0.000364353
11.52 -0.00108815
11.53 -0.00236868
11.54 -0.00345484
11.55 -0.00433492
11.56 -0.0049971
11.57 -0.00543612
11.58 -0.00565318
11.59 -0.0056532
11.6 -0.0054338
11.61 -0.00503737
11.62 -0.00448872
11.63 -0.00381632
11.64 -0.00305138
11.65 -0.00222685
11.66 -0.00137696
11.67 -0.000540062
11.68 0.000251529
11.69 0.00096927
11.7 0.00158818
11.71 0.00208759
11.72 0.00245146
11.73 0.00265247
11.74 0.00270343
11.75 0.00260708
11.76 0.0023717
11.77 0.00201087
11.78 0.00154291
11.79 0.000987055
11.8 0.000372947
11.81 -0.000265887
11.82 -0.000899902
11.83 -0.00149957
