# xPDFsuite Configuration #
[PDF]
wavelength = 0.1
dataformat = QA
inputfile = BiMsol6_insitu_700 C-00667.xy
backgroundfile = Quartz2mm-dist500-00000.xy
mode = xray
bgscale = 0.0042
composition = Bi2Fe4O9
outputtype = gr
qmaxinst = 24.998449118
qmin = 0.1
qmax = 21.4986662415
rmax = 80.0
rmin = 0.0
rstep = 0.01
rpoly = 0.9

[Misc]
inputdir = C:/Data/Seafile/CPH/Beamtime/Desy Oct 20/In situ data/Processed/BiMsol6/PDF
savedir = C:/Data/Seafile/CPH/Beamtime/Desy Oct 20/In situ data/PDF/BiMsol6
backgroundfilefull = C:/Data/Seafile/CPH/Beamtime/Desy Oct 20/In situ data/Processed/Standard_Empty_Cap/Quartz2mm-dist500-00000.xy

#### start data
#S 1
#L r($\AA$)  G($\AA^{-2}$)
0 0
0.01 0.0058792
0.02 0.0114207
0.03 0.0163357
0.04 0.0203652
0.05 0.0232923
0.06 0.0249521
0.07 0.0251649
0.08 0.0238803
0.09 0.0212339
0.1 0.0173384
0.11 0.012367
0.12 0.00654632
0.13 0.000145617
0.14 -0.00653054
0.15 -0.0131049
0.16 -0.0192587
0.17 -0.0246936
0.18 -0.0291432
0.19 -0.0323868
0.2 -0.0341985
0.21 -0.0344276
0.22 -0.0331738
0.23 -0.0305071
0.24 -0.0265715
0.25 -0.0215796
0.26 -0.0158052
0.27 -0.00956306
0.28 -0.003292
0.29 0.00261709
0.3 0.00778529
0.31 0.0118545
0.32 0.0145051
0.33 0.0154147
0.34 0.0142711
0.35 0.0111389
0.36 0.00602923
0.37 -0.000946265
0.38 -0.00957475
0.39 -0.0195451
0.4 -0.0304924
0.41 -0.0418136
0.42 -0.0529188
0.43 -0.0632075
0.44 -0.0720609
0.45 -0.078865
0.46 -0.0829709
0.47 -0.0835412
0.48 -0.0804119
0.49 -0.0732551
0.5 -0.061863
0.51 -0.0461618
0.52 -0.0262213
0.53 -0.00199432
0.54 0.0259636
0.55 0.0569302
0.56 0.0902328
0.57 0.125089
0.58 0.160626
0.59 0.195897
0.6 0.229685
0.61 0.261062
0.62 0.289082
0.63 0.312862
0.64 0.331611
0.65 0.344653
0.66 0.351041
0.67 0.350404
0.68 0.342936
0.69 0.328661
0.7 0.307783
0.71 0.280687
0.72 0.247922
0.73 0.209716
0.74 0.167559
0.75 0.122425
0.76 0.0753432
0.77 0.027383
0.78 -0.0203813
0.79 -0.0667843
0.8 -0.11066
0.81 -0.151223
0.82 -0.187714
0.83 -0.219507
0.84 -0.246135
0.85 -0.267291
0.86 -0.282262
0.87 -0.291621
0.88 -0.295683
0.89 -0.294833
0.9 -0.289589
0.91 -0.280577
0.92 -0.268419
0.93 -0.253913
0.94 -0.238094
0.95 -0.221763
0.96 -0.205689
0.97 -0.19059
0.98 -0.177102
0.99 -0.16601
1 -0.157629
1.01 -0.152181
1.02 -0.149818
1.03 -0.150564
1.04 -0.154324
1.05 -0.160962
1.06 -0.170268
1.07 -0.181591
1.08 -0.194464
1.09 -0.208386
1.1 -0.222836
1.11 -0.237301
1.12 -0.251214
1.13 -0.264101
1.14 -0.275611
1.15 -0.285448
1.16 -0.2934
1.17 -0.299341
1.18 -0.303199
1.19 -0.304875
1.2 -0.304722
1.21 -0.302958
1.22 -0.299853
1.23 -0.295719
1.24 -0.290894
1.25 -0.285724
1.26 -0.280602
1.27 -0.275851
1.28 -0.271739
1.29 -0.268486
1.3 -0.26625
1.31 -0.265135
1.32 -0.265285
1.33 -0.266517
1.34 -0.268715
1.35 -0.271704
1.36 -0.275269
1.37 -0.279158
1.38 -0.283085
1.39 -0.286726
1.4 -0.289812
1.41 -0.292097
1.42 -0.293371
1.43 -0.293469
1.44 -0.292281
1.45 -0.289607
1.46 -0.285617
1.47 -0.280411
1.48 -0.27414
1.49 -0.267011
1.5 -0.259274
1.51 -0.251213
1.52 -0.243184
1.53 -0.235521
1.54 -0.228533
1.55 -0.222503
1.56 -0.217681
1.57 -0.214271
1.58 -0.212584
1.59 -0.212566
1.6 -0.214187
1.61 -0.217367
1.62 -0.221961
1.63 -0.227756
1.64 -0.234503
1.65 -0.241859
1.66 -0.249389
1.67 -0.256709
1.68 -0.263429
1.69 -0.269169
1.7 -0.273571
1.71 -0.276143
1.72 -0.276697
1.73 -0.275088
1.74 -0.271197
1.75 -0.264978
1.76 -0.256464
1.77 -0.245713
1.78 -0.23281
1.79 -0.218219
1.8 -0.202259
1.81 -0.185292
1.82 -0.167711
1.83 -0.149922
1.84 -0.132381
1.85 -0.11552
1.86 -0.0996828
1.87 -0.085179
1.88 -0.0722623
1.89 -0.0611228
1.9 -0.0519101
1.91 -0.0448397
1.92 -0.0396713
1.93 -0.0362917
1.94 -0.0345257
1.95 -0.0341442
1.96 -0.0348745
1.97 -0.036445
1.98 -0.0384717
1.99 -0.0405939
2 -0.0425034
2.01 -0.04392
2.02 -0.0446033
2.03 -0.0443597
2.04 -0.0429349
2.05 -0.0403909
2.06 -0.0367498
2.07 -0.0321023
2.08 -0.026605
2.09 -0.0204742
2.1 -0.0139765
2.11 -0.00747589
2.12 -0.00133819
2.13 0.00407731
2.14 0.0084126
2.15 0.0113249
2.16 0.0124999
2.17 0.0114205
2.18 0.00806162
2.19 0.00229927
2.2 -0.00593545
2.21 -0.0166373
2.22 -0.0297257
2.23 -0.0451373
2.24 -0.0626583
2.25 -0.0818292
2.26 -0.102298
2.27 -0.123672
2.28 -0.145535
2.29 -0.167456
2.3 -0.188926
2.31 -0.20952
2.32 -0.228868
2.33 -0.246639
2.34 -0.262552
2.35 -0.276389
2.36 -0.287921
2.37 -0.296955
2.38 -0.303688
2.39 -0.308202
2.4 -0.310641
2.41 -0.311208
2.42 -0.310154
2.43 -0.307684
2.44 -0.304236
2.45 -0.300185
2.46 -0.295868
2.47 -0.291613
2.48 -0.287723
2.49 -0.284492
2.5 -0.282238
2.51 -0.281069
2.52 -0.281103
2.53 -0.282406
2.54 -0.284989
2.55 -0.28881
2.56 -0.293856
2.57 -0.299929
2.58 -0.306804
2.59 -0.314278
2.6 -0.322132
2.61 -0.330136
2.62 -0.338059
2.63 -0.345633
2.64 -0.352673
2.65 -0.359013
2.66 -0.364513
2.67 -0.369069
2.68 -0.372615
2.69 -0.375052
2.7 -0.376406
2.71 -0.376777
2.72 -0.376244
2.73 -0.374906
2.74 -0.372881
2.75 -0.3703
2.76 -0.367267
2.77 -0.363981
2.78 -0.360568
2.79 -0.357145
2.8 -0.353813
2.81 -0.35065
2.82 -0.347731
2.83 -0.345096
2.84 -0.342738
2.85 -0.340644
2.86 -0.338784
2.87 -0.337111
2.88 -0.335567
2.89 -0.334086
2.9 -0.332586
2.91 -0.330997
2.92 -0.329257
2.93 -0.327308
2.94 -0.325106
2.95 -0.322601
2.96 -0.31976
2.97 -0.316594
2.98 -0.313106
2.99 -0.309302
3 -0.305195
3.01 -0.300799
3.02 -0.296097
3.03 -0.291113
3.04 -0.285842
3.05 -0.280262
3.06 -0.274329
3.07 -0.267983
3.08 -0.261126
3.09 -0.253608
3.1 -0.24535
3.11 -0.236212
3.12 -0.226043
3.13 -0.214685
3.14 -0.201977
3.15 -0.187622
3.16 -0.171537
3.17 -0.153649
3.18 -0.133859
3.19 -0.112101
3.2 -0.0883441
3.21 -0.0625582
3.22 -0.0346657
3.23 -0.00497111
3.24 0.0263648
3.25 0.0591362
3.26 0.0930942
3.27 0.127952
3.28 0.163405
3.29 0.199036
3.3 0.234455
3.31 0.269282
3.32 0.303142
3.33 0.335668
3.34 0.366491
3.35 0.39506
3.36 0.421285
3.37 0.444932
3.38 0.465813
3.39 0.483793
3.4 0.498788
3.41 0.510578
3.42 0.519222
3.43 0.524966
3.44 0.527937
3.45 0.528299
3.46 0.526249
3.47 0.522008
3.48 0.515616
3.49 0.507566
3.5 0.498109
3.51 0.487485
3.52 0.475918
3.53 0.463615
3.54 0.450737
3.55 0.437456
3.56 0.423922
3.57 0.410226
3.58 0.39643
3.59 0.382569
3.6 0.368657
3.61 0.354682
3.62 0.340628
3.63 0.326469
3.64 0.312176
3.65 0.297729
3.66 0.283113
3.67 0.268324
3.68 0.253382
3.69 0.238347
3.7 0.22329
3.71 0.208304
3.72 0.193509
3.73 0.179042
3.74 0.165125
3.75 0.151921
3.76 0.139603
3.77 0.128365
3.78 0.118395
3.79 0.10988
3.8 0.103043
3.81 0.0981611
3.82 0.0952156
3.83 0.0943054
3.84 0.0954992
3.85 0.0988334
3.86 0.104311
3.87 0.11207
3.88 0.121931
3.89 0.133719
3.9 0.147303
3.91 0.162527
3.92 0.179218
3.93 0.197204
3.94 0.216344
3.95 0.236309
3.96 0.256891
3.97 0.277888
3.98 0.299105
3.99 0.32036
4 0.341462
4.01 0.362244
4.02 0.382582
4.03 0.402365
4.04 0.421496
4.05 0.439896
4.06 0.457493
4.07 0.474144
4.08 0.489897
4.09 0.504718
4.1 0.518578
4.11 0.53145
4.12 0.543305
4.13 0.55405
4.14 0.563649
4.15 0.572121
4.16 0.579423
4.17 0.585505
4.18 0.590315
4.19 0.593797
4.2 0.59573
4.21 0.596205
4.22 0.595174
4.23 0.59259
4.24 0.588413
4.25 0.582613
4.26 0.575089
4.27 0.565806
4.28 0.554885
4.29 0.542354
4.3 0.528252
4.31 0.512634
4.32 0.495567
4.33 0.477
4.34 0.457156
4.35 0.436154
4.36 0.414102
4.37 0.391108
4.38 0.367287
4.39 0.342725
4.4 0.317522
4.41 0.291835
4.42 0.265764
4.43 0.239398
4.44 0.212823
4.45 0.186114
4.46 0.159342
4.47 0.132582
4.48 0.105891
4.49 0.0793238
4.5 0.05293
4.51 0.026759
4.52 0.000868645
4.53 -0.0246636
4.54 -0.0498101
4.55 -0.0745148
4.56 -0.0987187
4.57 -0.122359
4.58 -0.145372
4.59 -0.167627
4.6 -0.189079
4.61 -0.209685
4.62 -0.229381
4.63 -0.248106
4.64 -0.265807
4.65 -0.28242
4.66 -0.29781
4.67 -0.312067
4.68 -0.32518
4.69 -0.337157
4.7 -0.348016
4.71 -0.357792
4.72 -0.366466
4.73 -0.37413
4.74 -0.380909
4.75 -0.386887
4.76 -0.392156
4.77 -0.396809
4.78 -0.400943
4.79 -0.404619
4.8 -0.407983
4.81 -0.411121
4.82 -0.414107
4.83 -0.417004
4.84 -0.419863
4.85 -0.422724
4.86 -0.425611
4.87 -0.428528
4.88 -0.431466
4.89 -0.434403
4.9 -0.437307
4.91 -0.440133
4.92 -0.442812
4.93 -0.445296
4.94 -0.447525
4.95 -0.449443
4.96 -0.450992
4.97 -0.452121
4.98 -0.452763
4.99 -0.452864
5 -0.452431
5.01 -0.451448
5.02 -0.449909
5.03 -0.447818
5.04 -0.445186
5.05 -0.441984
5.06 -0.438285
5.07 -0.434128
5.08 -0.429549
5.09 -0.424583
5.1 -0.419264
5.11 -0.413614
5.12 -0.407651
5.13 -0.401424
5.14 -0.39495
5.15 -0.388241
5.16 -0.381303
5.17 -0.374137
5.18 -0.36672
5.19 -0.359059
5.2 -0.351156
5.21 -0.343005
5.22 -0.334602
5.23 -0.325949
5.24 -0.317048
5.25 -0.307901
5.26 -0.298556
5.27 -0.289048
5.28 -0.279422
5.29 -0.269733
5.3 -0.260044
5.31 -0.250438
5.32 -0.241003
5.33 -0.231818
5.34 -0.222969
5.35 -0.214543
5.36 -0.206621
5.37 -0.199289
5.38 -0.192681
5.39 -0.186792
5.4 -0.181664
5.41 -0.177323
5.42 -0.173784
5.43 -0.17104
5.44 -0.169121
5.45 -0.16797
5.46 -0.167492
5.47 -0.167617
5.48 -0.168266
5.49 -0.169348
5.5 -0.170769
5.51 -0.172444
5.52 -0.174236
5.53 -0.176047
5.54 -0.177786
5.55 -0.179367
5.56 -0.180715
5.57 -0.181745
5.58 -0.182396
5.59 -0.182651
5.6 -0.182484
5.61 -0.181882
5.62 -0.180843
5.63 -0.179372
5.64 -0.177439
5.65 -0.175107
5.66 -0.172399
5.67 -0.169335
5.68 -0.165935
5.69 -0.16221
5.7 -0.158153
5.71 -0.153754
5.72 -0.149024
5.73 -0.143943
5.74 -0.138481
5.75 -0.132603
5.76 -0.126265
5.77 -0.119366
5.78 -0.111891
5.79 -0.103799
5.8 -0.0950462
5.81 -0.085593
5.82 -0.0754091
5.83 -0.0644508
5.84 -0.0526757
5.85 -0.0401618
5.86 -0.0269408
5.87 -0.0130619
5.88 0.00140832
5.89 0.0163864
5.9 0.0317987
5.91 0.0474941
5.92 0.0633343
5.93 0.079186
5.94 0.0949123
5.95 0.110376
5.96 0.125431
5.97 0.139898
5.98 0.153705
5.99 0.166753
6 0.178962
6.01 0.190272
6.02 0.200641
6.03 0.20998
6.04 0.218326
6.05 0.225749
6.06 0.232297
6.07 0.238033
6.08 0.243035
6.09 0.247384
6.1 0.251135
6.11 0.25445
6.12 0.257424
6.13 0.260143
6.14 0.262685
6.15 0.265114
6.16 0.267475
6.17 0.269799
6.18 0.272094
6.19 0.274342
6.2 0.276508
6.21 0.278536
6.22 0.280353
6.23 0.281823
6.24 0.282872
6.25 0.283389
6.26 0.283262
6.27 0.282378
6.28 0.28063
6.29 0.277864
6.3 0.273971
6.31 0.26895
6.32 0.262756
6.33 0.255363
6.34 0.246772
6.35 0.237004
6.36 0.225991
6.37 0.213919
6.38 0.200893
6.39 0.187023
6.4 0.172434
6.41 0.157259
6.42 0.141627
6.43 0.125694
6.44 0.109631
6.45 0.0935755
6.46 0.0776506
6.47 0.0619686
6.48 0.0466253
6.49 0.0317433
6.5 0.0173536
6.51 0.00347851
6.52 -0.00987025
6.53 -0.0227006
6.54 -0.0350385
6.55 -0.0469139
6.56 -0.0583691
6.57 -0.0695103
6.58 -0.0804115
6.59 -0.0911493
6.6 -0.101799
6.61 -0.112432
6.62 -0.12312
6.63 -0.133918
6.64 -0.144859
6.65 -0.155963
6.66 -0.167233
6.67 -0.178653
6.68 -0.190193
6.69 -0.201797
6.7 -0.213384
6.71 -0.224869
6.72 -0.236155
6.73 -0.247134
6.74 -0.257692
6.75 -0.267662
6.76 -0.276925
6.77 -0.285387
6.78 -0.292939
6.79 -0.299476
6.8 -0.304905
6.81 -0.309135
6.82 -0.311964
6.83 -0.313472
6.84 -0.313625
6.85 -0.312402
6.86 -0.309795
6.87 -0.305811
6.88 -0.300388
6.89 -0.293567
6.9 -0.285464
6.91 -0.276126
6.92 -0.265603
6.93 -0.253949
6.94 -0.241219
6.95 -0.227356
6.96 -0.212529
6.97 -0.196791
6.98 -0.180185
6.99 -0.162749
7 -0.144519
7.01 -0.125487
7.02 -0.10567
7.03 -0.0851419
7.04 -0.0639209
7.05 -0.0420261
7.06 -0.0194764
7.07 0.00370751
7.08 0.0275625
7.09 0.0520022
7.1 0.0769834
7.11 0.102465
7.12 0.128396
7.13 0.154722
7.14 0.181384
7.15 0.208307
7.16 0.23538
7.17 0.262508
7.18 0.289591
7.19 0.31652
7.2 0.343181
7.21 0.369408
7.22 0.39509
7.23 0.420114
7.24 0.444355
7.25 0.467689
7.26 0.489997
7.27 0.511127
7.28 0.530877
7.29 0.549247
7.3 0.566143
7.31 0.581478
7.32 0.595173
7.33 0.60716
7.34 0.617234
7.35 0.62542
7.36 0.631749
7.37 0.636193
7.38 0.638737
7.39 0.639375
7.4 0.638077
7.41 0.634702
7.42 0.62946
7.43 0.622382
7.44 0.613505
7.45 0.602873
7.46 0.590537
7.47 0.576443
7.48 0.560701
7.49 0.543458
7.5 0.52479
7.51 0.504777
7.52 0.483505
7.53 0.461059
7.54 0.437435
7.55 0.412863
7.56 0.387452
7.57 0.361314
7.58 0.334566
7.59 0.307332
7.6 0.279724
7.61 0.251893
7.62 0.223994
7.63 0.196163
7.64 0.168539
7.65 0.141258
7.66 0.114461
7.67 0.0883656
7.68 0.0630523
7.69 0.0386443
7.7 0.0152619
7.71 -0.00698259
7.72 -0.0279863
7.73 -0.0475895
7.74 -0.0656725
7.75 -0.0822665
7.76 -0.0973242
7.77 -0.110814
7.78 -0.122721
7.79 -0.133046
7.8 -0.141654
7.81 -0.148717
7.82 -0.154314
7.83 -0.158515
7.84 -0.161399
7.85 -0.163061
7.86 -0.163566
7.87 -0.162995
7.88 -0.161552
7.89 -0.159355
7.9 -0.156522
7.91 -0.153166
7.92 -0.149398
7.93 -0.145299
7.94 -0.140991
7.95 -0.136561
7.96 -0.132074
7.97 -0.127583
7.98 -0.123127
7.99 -0.118732
8 -0.114413
8.01 -0.110161
8.02 -0.105961
8.03 -0.101787
8.04 -0.0976084
8.05 -0.0933883
8.06 -0.0890777
8.07 -0.0846355
8.08 -0.080029
8.09 -0.0752271
8.1 -0.0702065
8.11 -0.0649526
8.12 -0.0594585
8.13 -0.0537143
8.14 -0.047768
8.15 -0.0416558
8.16 -0.0354256
8.17 -0.0291363
8.18 -0.0228563
8.19 -0.0166732
8.2 -0.0106797
8.21 -0.00495601
8.22 0.000413443
8.23 0.00534736
8.24 0.00977047
8.25 0.0136139
8.26 0.0167473
8.27 0.0191995
8.28 0.0209473
8.29 0.0219845
8.3 0.0223216
8.31 0.0219863
8.32 0.0209913
8.33 0.0194057
8.34 0.0173442
8.35 0.0148953
8.36 0.0121557
8.37 0.00922737
8.38 0.00621469
8.39 0.00323375
8.4 0.000389727
8.41 -0.00222954
8.42 -0.00454763
8.43 -0.00650233
8.44 -0.00804777
8.45 -0.00913591
8.46 -0.00974792
8.47 -0.00993178
8.48 -0.00972306
8.49 -0.00917551
8.5 -0.00835954
8.51 -0.0073601
8.52 -0.00627617
8.53 -0.00523351
8.54 -0.00434589
8.55 -0.00372678
8.56 -0.00348727
8.57 -0.00373268
8.58 -0.00458223
8.59 -0.00616228
8.6 -0.00848859
8.61 -0.0116094
8.62 -0.0155544
8.63 -0.0203345
8.64 -0.0259409
8.65 -0.0324122
8.66 -0.0396488
8.67 -0.0475619
8.68 -0.0560729
8.69 -0.0650927
8.7 -0.0745241
8.71 -0.0842697
8.72 -0.0942266
8.73 -0.104266
8.74 -0.11429
8.75 -0.12421
8.76 -0.133946
8.77 -0.143427
8.78 -0.152572
8.79 -0.161343
8.8 -0.169727
8.81 -0.177711
8.82 -0.185294
8.83 -0.192484
8.84 -0.199297
8.85 -0.205729
8.86 -0.21185
8.87 -0.217695
8.88 -0.223297
8.89 -0.228689
8.9 -0.233898
8.91 -0.238938
8.92 -0.243827
8.93 -0.248581
8.94 -0.253197
8.95 -0.257665
8.96 -0.261969
8.97 -0.266083
8.98 -0.269949
8.99 -0.273556
9 -0.276866
9.01 -0.279845
9.02 -0.282457
9.03 -0.284671
9.04 -0.286437
9.05 -0.28773
9.06 -0.288567
9.07 -0.288947
9.08 -0.288878
9.09 -0.288375
9.1 -0.287464
9.11 -0.286141
9.12 -0.284486
9.13 -0.282547
9.14 -0.280372
9.15 -0.27801
9.16 -0.275509
9.17 -0.272913
9.18 -0.270267
9.19 -0.267611
9.2 -0.264974
9.21 -0.262373
9.22 -0.259821
9.23 -0.257319
9.24 -0.254866
9.25 -0.252443
9.26 -0.250027
9.27 -0.247593
9.28 -0.245113
9.29 -0.242557
9.3 -0.239891
9.31 -0.237079
9.32 -0.23411
9.33 -0.230967
9.34 -0.227644
9.35 -0.224142
9.36 -0.22047
9.37 -0.216635
9.38 -0.212678
9.39 -0.208641
9.4 -0.204565
9.41 -0.200499
9.42 -0.196492
9.43 -0.192599
9.44 -0.188887
9.45 -0.185387
9.46 -0.182135
9.47 -0.179158
9.48 -0.176472
9.49 -0.17408
9.5 -0.17199
9.51 -0.170163
9.52 -0.168542
9.53 -0.16707
9.54 -0.165676
9.55 -0.164277
9.56 -0.162779
9.57 -0.16105
9.58 -0.158997
9.59 -0.156514
9.6 -0.153497
9.61 -0.149845
9.62 -0.145468
9.63 -0.140227
9.64 -0.134053
9.65 -0.126941
9.66 -0.118856
9.67 -0.109782
9.68 -0.0997217
9.69 -0.0886924
9.7 -0.0766275
9.71 -0.0636915
9.72 -0.0499529
9.73 -0.0354898
9.74 -0.0203884
9.75 -0.00474087
9.76 0.0113759
9.77 0.0278576
9.78 0.0445834
9.79 0.0614664
9.8 0.0784269
9.81 0.0953934
9.82 0.112304
9.83 0.129092
9.84 0.145724
9.85 0.162171
9.86 0.178414
9.87 0.194441
9.88 0.210246
9.89 0.225815
9.9 0.241142
9.91 0.256242
9.92 0.271111
9.93 0.285743
9.94 0.300124
9.95 0.314233
9.96 0.32801
9.97 0.341434
9.98 0.354465
9.99 0.367048
10 0.379124
10.01 0.390627
10.02 0.401468
10.03 0.411528
10.04 0.420799
10.05 0.429221
10.06 0.43674
10.07 0.443314
10.08 0.448909
10.09 0.453428
10.1 0.456917
10.11 0.459428
10.12 0.460997
10.13 0.461673
10.14 0.461523
10.15 0.460614
10.16 0.459
10.17 0.456856
10.18 0.454294
10.19 0.451427
10.2 0.44837
10.21 0.445233
10.22 0.442132
10.23 0.439173
10.24 0.436436
10.25 0.433987
10.26 0.431876
10.27 0.430137
10.28 0.428786
10.29 0.427857
10.3 0.427281
10.31 0.427015
10.32 0.427002
10.33 0.427173
10.34 0.427447
10.35 0.427732
10.36 0.427921
10.37 0.42792
10.38 0.427636
10.39 0.426982
10.4 0.425876
10.41 0.424245
10.42 0.421955
10.43 0.419016
10.44 0.415396
10.45 0.411071
10.46 0.406031
10.47 0.400277
10.48 0.393785
10.49 0.386566
10.5 0.378695
10.51 0.370205
10.52 0.361132
10.53 0.351512
10.54 0.341379
10.55 0.330722
10.56 0.319614
10.57 0.308086
10.58 0.296155
10.59 0.283835
10.6 0.271133
10.61 0.258037
10.62 0.244531
10.63 0.23064
10.64 0.216361
10.65 0.201688
10.66 0.18662
10.67 0.171158
10.68 0.155276
10.69 0.139014
10.7 0.122405
10.71 0.105479
10.72 0.088274
10.73 0.0708363
10.74 0.0532163
10.75 0.0354752
10.76 0.0176944
10.77 -5.64461e-05
10.78 -0.0177068
10.79 -0.0351866
10.8 -0.0524282
10.81 -0.0693404
10.82 -0.0858735
10.83 -0.101994
10.84 -0.117665
10.85 -0.132865
10.86 -0.147579
10.87 -0.161801
10.88 -0.175504
10.89 -0.188762
10.9 -0.201611
10.91 -0.214095
10.92 -0.226262
10.93 -0.238168
10.94 -0.249858
10.95 -0.261398
10.96 -0.27285
10.97 -0.284259
10.98 -0.295662
10.99 -0.307086
11 -0.318547
11.01 -0.330052
11.02 -0.341583
11.03 -0.353114
11.04 -0.364604
11.05 -0.376003
11.06 -0.387247
11.07 -0.398247
11.08 -0.408911
11.09 -0.41917
11.1 -0.428937
11.11 -0.438126
11.12 -0.446656
11.13 -0.45445
11.14 -0.461345
11.15 -0.46736
11.16 -0.472455
11.17 -0.476598
11.18 -0.479769
11.19 -0.481961
11.2 -0.483135
11.21 -0.483288
11.22 -0.48252
11.23 -0.480871
11.24 -0.478386
11.25 -0.475116
11.26 -0.471114
11.27 -0.466372
11.28 -0.461003
11.29 -0.455068
11.3 -0.448609
11.31 -0.441663
11.32 -0.434257
11.33 -0.426397
11.34 -0.418077
11.35 -0.409334
11.36 -0.400164
11.37 -0.390557
11.38 -0.380496
11.39 -0.369965
11.4 -0.3589
11.41 -0.34731
11.42 -0.335195
11.43 -0.322547
11.44 -0.309363
11.45 -0.29565
11.46 -0.281411
11.47 -0.266644
11.48 -0.251434
11.49 -0.235833
11.5 -0.219901
11.51 -0.203706
11.52 -0.187327
11.53 -0.170847
11.54 -0.154371
11.55 -0.137997
11.56 -0.121816
11.57 -0.105919
11.58 -0.0903941
11.59 -0.0753282
11.6 -0.0608504
11.61 -0.0469731
11.62 -0.0337463
11.63 -0.0212082
11.64 -0.00938474
11.65 0.00171051
11.66 0.0120286
11.67 0.0215942
11.68 0.0304681
11.69 0.0386828
11.7 0.0462786
11.71 0.0533017
11.72 0.0598014
11.73 0.0657838
11.74 0.0713609
11.75 0.0765845
11.76 0.0815032
11.77 0.0861612
11.78 0.0905974
11.79 0.0948356
11.8 0.0989032
11.81 0.102828
11.82 0.10662
11.83 0.110281
11.84 0.113808
11.85 0.117191
11.86 0.120397
11.87 0.12342
11.88 0.126239
11.89 0.12883
11.9 0.131166
11.91 0.133224
11.92 0.134962
11.93 0.136343
11.94 0.137367
11.95 0.138012
11.96 0.138258
11.97 0.138088
11.98 0.137484
11.99 0.136384
12 0.134805
12.01 0.132741
12.02 0.130176
12.03 0.127091
12.04 0.12347
12.05 0.119275
12.06 0.114452
12.07 0.109026
12.08 0.102977
12.09 0.0962816
12.1 0.0889188
12.11 0.0808688
12.12 0.0720525
12.13 0.0624935
12.14 0.0522059
12.15 0.0411877
