# xPDFsuite Configuration #
[PDF]
wavelength = 0.1
dataformat = QA
inputfile = BiMsol6_insitu_700 C-00109.xy
backgroundfile = Quartz2mm-dist500-00000.xy
mode = xray
bgscale = 0.0042
composition = Bi2Fe4O9
outputtype = gr
qmaxinst = 24.998449118
qmin = 0.1
qmax = 21.4986662415
rmax = 80.0
rmin = 0.0
rstep = 0.01
rpoly = 0.9

[Misc]
inputdir = C:/Data/Seafile/CPH/Beamtime/Desy Oct 20/In situ data/Processed/BiMsol6/PDF
savedir = C:/Data/Seafile/CPH/Beamtime/Desy Oct 20/In situ data/PDF/BiMsol6
backgroundfilefull = C:/Data/Seafile/CPH/Beamtime/Desy Oct 20/In situ data/Processed/Standard_Empty_Cap/Quartz2mm-dist500-00000.xy

#### start data
#S 1
#L r($\AA$)  G($\AA^{-2}$)
0 0
0.01 0.00672876
0.02 0.0130817
0.03 0.0187373
0.04 0.0234067
0.05 0.0268476
0.06 0.0288749
0.07 0.0292861
0.08 0.0280218
0.09 0.0252298
0.1 0.0210319
0.11 0.0156169
0.12 0.00923284
0.13 0.00217595
0.14 -0.00522151
0.15 -0.0125391
0.16 -0.0194225
0.17 -0.0255389
0.18 -0.0305898
0.19 -0.0343253
0.2 -0.0364885
0.21 -0.036903
0.22 -0.0356683
0.23 -0.0328506
0.24 -0.0285973
0.25 -0.0231316
0.26 -0.0167444
0.27 -0.00976494
0.28 -0.00267231
0.29 0.00410771
0.3 0.0101618
0.31 0.015097
0.32 0.0185594
0.33 0.0201913
0.34 0.0196427
0.35 0.0169641
0.36 0.0121509
0.37 0.00530531
0.38 -0.00336204
0.39 -0.0135352
0.4 -0.0248485
0.41 -0.03667
0.42 -0.0483795
0.43 -0.0593472
0.44 -0.068922
0.45 -0.0764559
0.46 -0.0812649
0.47 -0.0824704
0.48 -0.0798825
0.49 -0.0731488
0.5 -0.0620427
0.51 -0.0464776
0.52 -0.0265175
0.53 -0.00210657
0.54 0.0261842
0.55 0.057608
0.56 0.0914684
0.57 0.126954
0.58 0.163159
0.59 0.1991
0.6 0.233517
0.61 0.265443
0.62 0.293901
0.63 0.317976
0.64 0.336852
0.65 0.349833
0.66 0.355948
0.67 0.354823
0.68 0.346667
0.69 0.331518
0.7 0.309602
0.71 0.281328
0.72 0.247279
0.73 0.207718
0.74 0.164187
0.75 0.117701
0.76 0.0693331
0.77 0.0201917
0.78 -0.0286118
0.79 -0.0758697
0.8 -0.120383
0.81 -0.161362
0.82 -0.198034
0.83 -0.229773
0.84 -0.256116
0.85 -0.276767
0.86 -0.291014
0.87 -0.299475
0.88 -0.302498
0.89 -0.300502
0.9 -0.294037
0.91 -0.283763
0.92 -0.270337
0.93 -0.254592
0.94 -0.237588
0.95 -0.220145
0.96 -0.203048
0.97 -0.187021
0.98 -0.172706
0.99 -0.160889
1 -0.151868
1.01 -0.145849
1.02 -0.142962
1.03 -0.143213
1.04 -0.146484
1.05 -0.152615
1.06 -0.161374
1.07 -0.172092
1.08 -0.184294
1.09 -0.197469
1.1 -0.211099
1.11 -0.224673
1.12 -0.237636
1.13 -0.249537
1.14 -0.260054
1.15 -0.26892
1.16 -0.275956
1.17 -0.281073
1.18 -0.284237
1.19 -0.285401
1.2 -0.284938
1.21 -0.283091
1.22 -0.28015
1.23 -0.276442
1.24 -0.272307
1.25 -0.268107
1.26 -0.264209
1.27 -0.260898
1.28 -0.258409
1.29 -0.256916
1.3 -0.256532
1.31 -0.257302
1.32 -0.259302
1.33 -0.262288
1.34 -0.266081
1.35 -0.270454
1.36 -0.275137
1.37 -0.279837
1.38 -0.284208
1.39 -0.287902
1.4 -0.290659
1.41 -0.292236
1.42 -0.292437
1.43 -0.291125
1.44 -0.28823
1.45 -0.283579
1.46 -0.277436
1.47 -0.269969
1.48 -0.261404
1.49 -0.252021
1.5 -0.242146
1.51 -0.23215
1.52 -0.222468
1.53 -0.213481
1.54 -0.205544
1.55 -0.198979
1.56 -0.19406
1.57 -0.191
1.58 -0.190151
1.59 -0.191401
1.6 -0.194674
1.61 -0.199848
1.62 -0.206718
1.63 -0.215006
1.64 -0.224392
1.65 -0.234447
1.66 -0.244645
1.67 -0.254526
1.68 -0.263623
1.69 -0.271489
1.7 -0.277705
1.71 -0.281691
1.72 -0.28324
1.73 -0.282194
1.74 -0.278423
1.75 -0.271885
1.76 -0.262629
1.77 -0.250734
1.78 -0.236306
1.79 -0.219896
1.8 -0.201883
1.81 -0.182694
1.82 -0.162788
1.83 -0.142642
1.84 -0.122785
1.85 -0.103721
1.86 -0.085849
1.87 -0.0695267
1.88 -0.0550483
1.89 -0.0426341
1.9 -0.0324575
1.91 -0.0247692
1.92 -0.0192906
1.93 -0.0158917
1.94 -0.01437
1.95 -0.0144604
1.96 -0.0158467
1.97 -0.0182129
1.98 -0.02111
1.99 -0.0241139
2 -0.0268591
2.01 -0.0290092
2.02 -0.0302711
2.03 -0.0304019
2.04 -0.0290735
2.05 -0.0263388
2.06 -0.0221948
2.07 -0.0167157
2.08 -0.0100504
2.09 -0.00241641
2.1 0.00592711
2.11 0.0145955
2.12 0.0231761
2.13 0.0312761
2.14 0.0384988
2.15 0.0444588
2.16 0.0487965
2.17 0.0509499
2.18 0.0508352
2.19 0.0482822
2.2 0.0431784
2.21 0.0354889
2.22 0.0252579
2.23 0.0125078
2.24 -0.00258205
2.25 -0.0195571
2.26 -0.0380777
2.27 -0.0577592
2.28 -0.0781847
2.29 -0.0989187
2.3 -0.119465
2.31 -0.139362
2.32 -0.158216
2.33 -0.17567
2.34 -0.19142
2.35 -0.20522
2.36 -0.216812
2.37 -0.225973
2.38 -0.232864
2.39 -0.237538
2.4 -0.240111
2.41 -0.240761
2.42 -0.23972
2.43 -0.23716
2.44 -0.233508
2.45 -0.229131
2.46 -0.224359
2.47 -0.219513
2.48 -0.214899
2.49 -0.210808
2.5 -0.20756
2.51 -0.205283
2.52 -0.204112
2.53 -0.204126
2.54 -0.205354
2.55 -0.207775
2.56 -0.211396
2.57 -0.216042
2.58 -0.221511
2.59 -0.22762
2.6 -0.234168
2.61 -0.240944
2.62 -0.247734
2.63 -0.254292
2.64 -0.260435
2.65 -0.266003
2.66 -0.270861
2.67 -0.274906
2.68 -0.278071
2.69 -0.280259
2.7 -0.281486
2.71 -0.281838
2.72 -0.281379
2.73 -0.280195
2.74 -0.278388
2.75 -0.276074
2.76 -0.27334
2.77 -0.270361
2.78 -0.267246
2.79 -0.264093
2.8 -0.260983
2.81 -0.25798
2.82 -0.255134
2.83 -0.252465
2.84 -0.249955
2.85 -0.247578
2.86 -0.245287
2.87 -0.243025
2.88 -0.240721
2.89 -0.23828
2.9 -0.235627
2.91 -0.23269
2.92 -0.229404
2.93 -0.225714
2.94 -0.221581
2.95 -0.216959
2.96 -0.211828
2.97 -0.20624
2.98 -0.200227
2.99 -0.193838
3 -0.187133
3.01 -0.180185
3.02 -0.173063
3.03 -0.165869
3.04 -0.158684
3.05 -0.15158
3.06 -0.14462
3.07 -0.137851
3.08 -0.131315
3.09 -0.12504
3.1 -0.118997
3.11 -0.113159
3.12 -0.107481
3.13 -0.101899
3.14 -0.0963372
3.15 -0.0906934
3.16 -0.0848615
3.17 -0.0787434
3.18 -0.072239
3.19 -0.0652531
3.2 -0.0576991
3.21 -0.0494877
3.22 -0.0405008
3.23 -0.030764
3.24 -0.0202593
3.25 -0.00898825
3.26 0.0030282
3.27 0.0157503
3.28 0.0291641
3.29 0.0431663
3.3 0.0576441
3.31 0.0725044
3.32 0.0876507
3.33 0.102986
3.34 0.118417
3.35 0.133849
3.36 0.149199
3.37 0.164406
3.38 0.179423
3.39 0.194217
3.4 0.208773
3.41 0.223073
3.42 0.237136
3.43 0.250999
3.44 0.264698
3.45 0.278272
3.46 0.291762
3.47 0.305209
3.48 0.318651
3.49 0.332117
3.5 0.345621
3.51 0.359161
3.52 0.372721
3.53 0.386268
3.54 0.399745
3.55 0.413069
3.56 0.426158
3.57 0.438908
3.58 0.451209
3.59 0.462936
3.6 0.473965
3.61 0.484065
3.62 0.493176
3.63 0.501187
3.64 0.507991
3.65 0.513493
3.66 0.517613
3.67 0.520229
3.68 0.521245
3.69 0.520757
3.7 0.518772
3.71 0.515317
3.72 0.510441
3.73 0.504207
3.74 0.496589
3.75 0.487785
3.76 0.477932
3.77 0.467149
3.78 0.455556
3.79 0.443276
3.8 0.430418
3.81 0.41709
3.82 0.403452
3.83 0.389607
3.84 0.37565
3.85 0.361667
3.86 0.347734
3.87 0.333932
3.88 0.320316
3.89 0.306928
3.9 0.293803
3.91 0.280972
3.92 0.268459
3.93 0.256288
3.94 0.244503
3.95 0.233078
3.96 0.222022
3.97 0.211336
3.98 0.201023
3.99 0.19108
4 0.181529
4.01 0.172351
4.02 0.163517
4.03 0.15501
4.04 0.14681
4.05 0.138891
4.06 0.131224
4.07 0.123791
4.08 0.116526
4.09 0.109384
4.1 0.102319
4.11 0.0952856
4.12 0.0882356
4.13 0.0811185
4.14 0.0738878
4.15 0.066514
4.16 0.058971
4.17 0.0512425
4.18 0.0433226
4.19 0.0352173
4.2 0.0269292
4.21 0.0185132
4.22 0.0100164
4.23 0.00149687
4.24 -0.00697759
4.25 -0.0153309
4.26 -0.0234667
4.27 -0.0312815
4.28 -0.0387048
4.29 -0.0456549
4.3 -0.0520571
4.31 -0.0578458
4.32 -0.0629683
4.33 -0.0673123
4.34 -0.0709193
4.35 -0.0738022
4.36 -0.0759828
4.37 -0.0775023
4.38 -0.0784202
4.39 -0.0787972
4.4 -0.0787225
4.41 -0.0783438
4.42 -0.0777766
4.43 -0.0771411
4.44 -0.0765578
4.45 -0.0761439
4.46 -0.0760438
4.47 -0.0763467
4.48 -0.0771235
4.49 -0.078434
4.5 -0.0803171
4.51 -0.0827891
4.52 -0.0858577
4.53 -0.0895202
4.54 -0.0936656
4.55 -0.0982151
4.56 -0.103072
4.57 -0.108126
4.58 -0.113256
4.59 -0.118321
4.6 -0.123175
4.61 -0.127698
4.62 -0.131773
4.63 -0.135296
4.64 -0.13818
4.65 -0.140343
4.66 -0.141672
4.67 -0.142222
4.68 -0.142001
4.69 -0.141038
4.7 -0.139386
4.71 -0.137121
4.72 -0.134305
4.73 -0.131073
4.74 -0.127568
4.75 -0.123918
4.76 -0.120248
4.77 -0.116683
4.78 -0.11334
4.79 -0.110373
4.8 -0.107842
4.81 -0.105818
4.82 -0.104351
4.83 -0.103472
4.84 -0.103193
4.85 -0.103535
4.86 -0.104462
4.87 -0.105891
4.88 -0.107758
4.89 -0.109987
4.9 -0.112496
4.91 -0.115199
4.92 -0.118012
4.93 -0.120833
4.94 -0.123586
4.95 -0.126204
4.96 -0.128634
4.97 -0.130833
4.98 -0.132763
4.99 -0.134403
5 -0.135778
5.01 -0.136903
5.02 -0.137808
5.03 -0.138528
5.04 -0.139107
5.05 -0.139586
5.06 -0.140027
5.07 -0.140476
5.08 -0.140972
5.09 -0.141548
5.1 -0.142229
5.11 -0.143033
5.12 -0.143967
5.13 -0.145012
5.14 -0.146146
5.15 -0.147338
5.16 -0.148552
5.17 -0.149744
5.18 -0.150855
5.19 -0.151836
5.2 -0.152643
5.21 -0.153235
5.22 -0.153575
5.23 -0.153638
5.24 -0.153399
5.25 -0.152834
5.26 -0.151979
5.27 -0.150855
5.28 -0.149492
5.29 -0.14793
5.3 -0.146218
5.31 -0.144404
5.32 -0.142556
5.33 -0.140733
5.34 -0.138986
5.35 -0.137361
5.36 -0.135897
5.37 -0.134621
5.38 -0.133569
5.39 -0.132718
5.4 -0.132052
5.41 -0.131542
5.42 -0.131146
5.43 -0.13081
5.44 -0.130469
5.45 -0.130042
5.46 -0.129458
5.47 -0.128644
5.48 -0.127532
5.49 -0.12606
5.5 -0.124177
5.51 -0.121791
5.52 -0.11893
5.53 -0.115593
5.54 -0.111797
5.55 -0.107574
5.56 -0.102977
5.57 -0.0980613
5.58 -0.0929207
5.59 -0.0876688
5.6 -0.082408
5.61 -0.0772436
5.62 -0.0722802
5.63 -0.0676175
5.64 -0.0633975
5.65 -0.0596645
5.66 -0.0564723
5.67 -0.0538588
5.68 -0.0518407
5.69 -0.050412
5.7 -0.0495663
5.71 -0.0492567
5.72 -0.0493654
5.73 -0.0497975
5.74 -0.0504434
5.75 -0.0511831
5.76 -0.0518897
5.77 -0.0524066
5.78 -0.0526076
5.79 -0.0523812
5.8 -0.0516259
5.81 -0.0502572
5.82 -0.0482115
5.83 -0.0454239
5.84 -0.0418433
5.85 -0.0375482
5.86 -0.0325819
5.87 -0.0270121
5.88 -0.0209282
5.89 -0.0144389
5.9 -0.00765546
5.91 -0.000745879
5.92 0.00614075
5.93 0.0128643
5.94 0.0192906
5.95 0.025296
5.96 0.0307588
5.97 0.0355364
5.98 0.0396216
5.99 0.042981
6 0.0456081
6.01 0.0475238
6.02 0.0487753
6.03 0.0493979
6.04 0.0495217
6.05 0.0492891
6.06 0.0488306
6.07 0.0482856
6.08 0.0477965
6.09 0.0475072
6.1 0.0475973
6.11 0.0481595
6.12 0.0492921
6.13 0.0510718
6.14 0.0535504
6.15 0.0567531
6.16 0.0607214
6.17 0.065408
6.18 0.0707099
6.19 0.076538
6.2 0.0827822
6.21 0.0893148
6.22 0.0959948
6.23 0.102655
6.24 0.10913
6.25 0.11527
6.26 0.120936
6.27 0.126001
6.28 0.130356
6.29 0.133867
6.3 0.136455
6.31 0.138141
6.32 0.138921
6.33 0.138817
6.34 0.137879
6.35 0.13618
6.36 0.133752
6.37 0.130785
6.38 0.127414
6.39 0.123774
6.4 0.120002
6.41 0.116237
6.42 0.112619
6.43 0.109293
6.44 0.10635
6.45 0.103874
6.46 0.101928
6.47 0.100555
6.48 0.0997733
6.49 0.0996332
6.5 0.10006
6.51 0.100989
6.52 0.102352
6.53 0.104066
6.54 0.106037
6.55 0.108162
6.56 0.110324
6.57 0.112404
6.58 0.1143
6.59 0.115916
6.6 0.117167
6.61 0.117982
6.62 0.118257
6.63 0.117972
6.64 0.117124
6.65 0.115708
6.66 0.113736
6.67 0.111234
6.68 0.108234
6.69 0.104763
6.7 0.10093
6.71 0.0968051
6.72 0.0924627
6.73 0.0879781
6.74 0.0834264
6.75 0.0788851
6.76 0.0744303
6.77 0.0701208
6.78 0.0660085
6.79 0.0621369
6.8 0.0585405
6.81 0.0552477
6.82 0.0523082
6.83 0.0496951
6.84 0.0474073
6.85 0.0454369
6.86 0.0437708
6.87 0.042391
6.88 0.0412905
6.89 0.0404395
6.9 0.0397967
6.91 0.0393347
6.92 0.0390256
6.93 0.0388414
6.94 0.0387544
6.95 0.0387423
6.96 0.0387681
6.97 0.0388054
6.98 0.0388283
6.99 0.0388113
7 0.038729
7.01 0.0385505
7.02 0.0382453
7.03 0.0377957
7.04 0.0371783
7.05 0.0363711
7.06 0.035354
7.07 0.0341092
7.08 0.0325956
7.09 0.0308236
7.1 0.028791
7.11 0.0264978
7.12 0.0239493
7.13 0.0211569
7.14 0.0181305
7.15 0.0148904
7.16 0.0114854
7.17 0.00795262
7.18 0.00433384
7.19 0.000674748
7.2 -0.0029761
7.21 -0.00655836
7.22 -0.0100197
7.23 -0.0133128
7.24 -0.0163918
7.25 -0.0192152
7.26 -0.0217467
7.27 -0.023947
7.28 -0.0257712
7.29 -0.0272369
7.3 -0.028341
7.31 -0.0290892
7.32 -0.0294955
7.33 -0.0295818
7.34 -0.0293564
7.35 -0.0288729
7.36 -0.0281827
7.37 -0.0273296
7.38 -0.0263594
7.39 -0.0253176
7.4 -0.0242492
7.41 -0.0232017
7.42 -0.0222138
7.43 -0.0213168
7.44 -0.0205365
7.45 -0.0198923
7.46 -0.019397
7.47 -0.0190681
7.48 -0.0189019
7.49 -0.0188847
7.5 -0.0190059
7.51 -0.0192516
7.52 -0.0196055
7.53 -0.0200506
7.54 -0.020575
7.55 -0.0211529
7.56 -0.0217702
7.57 -0.0224158
7.58 -0.0230819
7.59 -0.0237641
7.6 -0.024463
7.61 -0.0251823
7.62 -0.0259277
7.63 -0.0267081
7.64 -0.0275335
7.65 -0.0284147
7.66 -0.0293617
7.67 -0.0303921
7.68 -0.0315042
7.69 -0.0326992
7.7 -0.0339748
7.71 -0.0353244
7.72 -0.0367363
7.73 -0.0381956
7.74 -0.0396788
7.75 -0.0411582
7.76 -0.0426063
7.77 -0.0439941
7.78 -0.0452925
7.79 -0.0464735
7.8 -0.0474945
7.81 -0.0483441
7.82 -0.049009
7.83 -0.0494798
7.84 -0.0497537
7.85 -0.0498352
7.86 -0.0497305
7.87 -0.049455
7.88 -0.0490504
7.89 -0.0485492
7.9 -0.047988
7.91 -0.0474058
7.92 -0.0468426
7.93 -0.0463455
7.94 -0.0459504
7.95 -0.0456849
7.96 -0.0455715
7.97 -0.0456243
7.98 -0.045848
7.99 -0.046241
8 -0.0467938
8.01 -0.0474625
8.02 -0.0482088
8.03 -0.0489863
8.04 -0.0497422
8.05 -0.050419
8.06 -0.0509416
8.07 -0.0512487
8.08 -0.0512914
8.09 -0.0510213
8.1 -0.0503992
8.11 -0.0493971
8.12 -0.0479944
8.13 -0.0461583
8.14 -0.0439492
8.15 -0.0414031
8.16 -0.0385715
8.17 -0.0355203
8.18 -0.0323282
8.19 -0.0290874
8.2 -0.0259109
8.21 -0.0229023
8.22 -0.0201629
8.23 -0.0177905
8.24 -0.0158748
8.25 -0.0144963
8.26 -0.0137904
8.27 -0.0137351
8.28 -0.0143503
8.29 -0.0156339
8.3 -0.0175607
8.31 -0.0200824
8.32 -0.023153
8.33 -0.0266666
8.34 -0.0304786
8.35 -0.0344622
8.36 -0.0384806
8.37 -0.0423914
8.38 -0.0460516
8.39 -0.0492648
8.4 -0.05193
8.41 -0.0539376
8.42 -0.0551942
8.43 -0.055628
8.44 -0.0551923
8.45 -0.053827
8.46 -0.051522
8.47 -0.0483841
8.48 -0.044483
8.49 -0.0399123
8.5 -0.0347867
8.51 -0.0292385
8.52 -0.0234011
8.53 -0.0174678
8.54 -0.0115994
8.55 -0.00594756
8.56 -0.000654936
8.57 0.00415005
8.58 0.0083338
8.59 0.0117667
8.6 0.0144446
8.61 0.0163404
8.62 0.0174548
8.63 0.0178167
8.64 0.0174819
8.65 0.0164857
8.66 0.0149807
8.67 0.0131075
8.68 0.0110001
8.69 0.00879821
8.7 0.0066428
8.71 0.00467753
8.72 0.00306578
8.73 0.00189537
8.74 0.0012539
8.75 0.00120596
8.76 0.00179085
8.77 0.0030212
8.78 0.00492727
8.79 0.007436
8.8 0.0104495
8.81 0.0138745
8.82 0.0176001
8.83 0.0215024
8.84 0.0254477
8.85 0.0292751
8.86 0.0328505
8.87 0.0360506
8.88 0.0387652
8.89 0.0409019
8.9 0.0423892
8.91 0.0431329
8.92 0.0431213
8.93 0.0424029
8.94 0.0410159
8.95 0.0390228
8.96 0.0365082
8.97 0.0335753
8.98 0.0303233
8.99 0.0269288
9 0.0235265
9.01 0.0202497
9.02 0.0172258
9.03 0.014571
9.04 0.0124163
9.05 0.0108578
9.06 0.0099181
9.07 0.00962571
9.08 0.00998369
9.09 0.0109696
9.1 0.0125368
9.11 0.0146611
9.12 0.0171917
9.13 0.0200152
9.14 0.0230124
9.15 0.0260587
9.16 0.0290281
9.17 0.0317851
9.18 0.0341917
9.19 0.0361679
9.2 0.0376353
9.21 0.0385357
9.22 0.0388338
9.23 0.0385177
9.24 0.0375455
9.25 0.0360057
9.26 0.033974
9.27 0.0315315
9.28 0.0287742
9.29 0.0258093
9.3 0.0227518
9.31 0.0197349
9.32 0.0168771
9.33 0.0142827
9.34 0.0120436
9.35 0.0102363
9.36 0.00891882
9.37 0.00817441
9.38 0.00798888
9.39 0.00833198
9.4 0.00916918
9.41 0.0104461
9.42 0.0120909
9.43 0.0140206
9.44 0.0161385
9.45 0.0183136
9.46 0.0204395
9.47 0.0224124
9.48 0.0241358
9.49 0.0255243
9.5 0.0264726
9.51 0.0269345
9.52 0.0268989
9.53 0.0263573
9.54 0.0253222
9.55 0.0238263
9.56 0.021918
9.57 0.0196424
9.58 0.0171278
9.59 0.0144692
9.6 0.0117668
9.61 0.00912268
9.62 0.00663604
9.63 0.00442069
9.64 0.00256751
9.65 0.00112662
9.66 0.00014559
9.67 -0.000346744
9.68 -0.000341366
9.69 0.000150642
9.7 0.00114557
9.71 0.00253449
9.72 0.00424744
9.73 0.00620251
9.74 0.00830847
9.75 0.0104684
9.76 0.0125761
9.77 0.0145193
9.78 0.016214
9.79 0.0175829
9.8 0.0185625
9.81 0.0191055
9.82 0.0191828
9.83 0.018736
9.84 0.0178234
9.85 0.0164855
9.86 0.0147744
9.87 0.0127578
9.88 0.0105165
9.89 0.00813999
9.9 0.00573851
9.91 0.00342082
9.92 0.00128429
9.93 -0.000579785
9.94 -0.00208963
9.95 -0.00317608
9.96 -0.00373722
9.97 -0.00376879
9.98 -0.0032697
9.99 -0.00224666
10 -0.00072539
10.01 0.00125038
10.02 0.00362978
10.03 0.00634573
10.04 0.0092766
10.05 0.0123272
10.06 0.0153989
10.07 0.0183926
10.08 0.021213
10.09 0.0237429
10.1 0.0259079
10.11 0.0276549
10.12 0.0289365
10.13 0.0297216
10.14 0.0299964
10.15 0.0297556
10.16 0.0289847
10.17 0.0277733
10.18 0.0261745
10.19 0.0242524
10.2 0.022079
10.21 0.0197322
10.22 0.0172913
10.23 0.0148489
10.24 0.0124836
10.25 0.0102629
10.26 0.0082456
10.27 0.00647945
10.28 0.00500229
10.29 0.00386975
10.3 0.00305528
10.31 0.00255177
10.32 0.00234025
10.33 0.0023912
10.34 0.00266625
10.35 0.00312772
10.36 0.00371696
10.37 0.00437164
10.38 0.00503982
10.39 0.00567221
10.4 0.00622413
10.41 0.0066571
10.42 0.00692068
10.43 0.00700831
10.44 0.00690956
10.45 0.00662228
10.46 0.00615281
10.47 0.00551513
10.48 0.00472387
10.49 0.00380678
10.5 0.0028036
10.51 0.00174565
10.52 0.00066398
10.53 -0.000412191
10.54 -0.00145689
10.55 -0.00244149
10.56 -0.00335385
10.57 -0.00418635
10.58 -0.00493674
10.59 -0.00560877
10.6 -0.00621168
10.61 -0.00675796
10.62 -0.00726626
10.63 -0.00776074
10.64 -0.00826174
10.65 -0.00878844
10.66 -0.00935742
10.67 -0.00998133
10.68 -0.0106736
10.69 -0.0114307
10.7 -0.012244
10.71 -0.0130996
10.72 -0.013977
10.73 -0.0148497
10.74 -0.0156838
10.75 -0.0164338
10.76 -0.0170651
10.77 -0.017539
10.78 -0.0178184
10.79 -0.01787
10.8 -0.0176661
10.81 -0.0171627
10.82 -0.0163599
10.83 -0.0152689
10.84 -0.0139015
10.85 -0.0122808
10.86 -0.0104411
10.87 -0.00842506
10.88 -0.00628464
10.89 -0.00410073
10.9 -0.00194302
10.91 0.000115476
10.92 0.0020009
10.93 0.0036411
10.94 0.00494243
10.95 0.00584305
10.96 0.00631012
10.97 0.0063073
10.98 0.00581195
10.99 0.00481644
11 0.00332678
11.01 0.00132135
11.02 -0.00110073
11.03 -0.00388095
11.04 -0.00694797
11.05 -0.0102195
11.06 -0.0136048
11.07 -0.0170024
11.08 -0.020297
11.09 -0.0233904
11.1 -0.0261885
11.11 -0.0286045
11.12 -0.0305618
11.13 -0.0319961
11.14 -0.0327906
11.15 -0.0329713
11.16 -0.0325302
11.17 -0.0314735
11.18 -0.0298243
11.19 -0.0276226
11.2 -0.0249037
11.21 -0.0217377
11.22 -0.0182411
11.23 -0.0145041
11.24 -0.0106216
11.25 -0.00669032
11.26 -0.00280629
11.27 0.000915942
11.28 0.00439444
11.29 0.00755822
11.3 0.0103452
11.31 0.0127062
11.32 0.0146061
11.33 0.0160072
11.34 0.0168819
11.35 0.0172819
11.36 0.0172319
11.37 0.0167681
11.38 0.0159363
11.39 0.0147901
11.4 0.0133717
11.41 0.0117664
11.42 0.0100445
11.43 0.0082674
11.44 0.00649268
11.45 0.00477251
11.46 0.00315561
11.47 0.00169261
11.48 0.000399751
11.49 -0.000705681
11.5 -0.00161524
11.51 -0.00232885
11.52 -0.00285403
11.53 -0.003193
11.54 -0.00337507
11.55 -0.00343133
11.56 -0.00338811
11.57 -0.00327236
11.58 -0.00311037
11.59 -0.00292648
11.6 -0.00274422
11.61 -0.00258169
11.62 -0.00245069
11.63 -0.00235821
11.64 -0.00230647
11.65 -0.00229319
11.66 -0.00231349
11.67 -0.00235535
11.68 -0.0024045
11.69 -0.00244703
11.7 -0.00246877
11.71 -0.00245631
11.72 -0.00239784
11.73 -0.00227721
11.74 -0.00209497
11.75 -0.00184995
11.76 -0.00154501
11.77 -0.00118703
11.78 -0.000786717
11.79 -0.000357582
11.8 8.06675e-05
11.81 0.00050723
11.82 0.000902149
11.83 0.00124571
