# xPDFsuite Configuration #
[PDF]
wavelength = 0.1
dataformat = QA
inputfile = BiMsol6_insitu_700 C-00313.xy
backgroundfile = Quartz2mm-dist500-00000.xy
mode = xray
bgscale = 0.0042
composition = Bi2Fe4O9
outputtype = gr
qmaxinst = 24.998449118
qmin = 0.1
qmax = 21.4986662415
rmax = 80.0
rmin = 0.0
rstep = 0.01
rpoly = 0.9

[Misc]
inputdir = C:/Data/Seafile/CPH/Beamtime/Desy Oct 20/In situ data/Processed/BiMsol6/PDF
savedir = C:/Data/Seafile/CPH/Beamtime/Desy Oct 20/In situ data/PDF/BiMsol6
backgroundfilefull = C:/Data/Seafile/CPH/Beamtime/Desy Oct 20/In situ data/Processed/Standard_Empty_Cap/Quartz2mm-dist500-00000.xy

#### start data
#S 1
#L r($\AA$)  G($\AA^{-2}$)
0 0
0.01 0.00620094
0.02 0.0120504
0.03 0.0172477
0.04 0.021523
0.05 0.0246501
0.06 0.0264565
0.07 0.0267539
0.08 0.0254882
0.09 0.0227992
0.1 0.018802
0.11 0.0136754
0.12 0.00765282
0.13 0.00101308
0.14 -0.00593011
0.15 -0.0127838
0.16 -0.0192162
0.17 -0.0249164
0.18 -0.0296062
0.19 -0.0330536
0.2 -0.0350208
0.21 -0.0353467
0.22 -0.0341297
0.23 -0.0314372
0.24 -0.0274131
0.25 -0.0222729
0.26 -0.0162952
0.27 -0.00979899
0.28 -0.00323733
0.29 0.00298609
0.3 0.00847943
0.31 0.0128709
0.32 0.0158271
0.33 0.0170107
0.34 0.0160925
0.35 0.013129
0.36 0.00812196
0.37 0.00117591
0.38 -0.00750091
0.39 -0.0175993
0.4 -0.0287597
0.41 -0.0403704
0.42 -0.0518314
0.43 -0.0625323
0.44 -0.0718418
0.45 -0.0791315
0.46 -0.0837364
0.47 -0.0847986
0.48 -0.0821348
0.49 -0.0753981
0.5 -0.0643623
0.51 -0.0489356
0.52 -0.0291708
0.53 -0.00499627
0.54 0.0230445
0.55 0.0542345
0.56 0.0879093
0.57 0.123292
0.58 0.159512
0.59 0.195624
0.6 0.230422
0.61 0.262953
0.62 0.292262
0.63 0.317452
0.64 0.337717
0.65 0.352362
0.66 0.360423
0.67 0.361502
0.68 0.355765
0.69 0.343209
0.7 0.324013
0.71 0.298532
0.72 0.26729
0.73 0.230468
0.74 0.189542
0.75 0.14546
0.76 0.0992286
0.77 0.0518957
0.78 0.00451739
0.79 -0.0417694
0.8 -0.0858149
0.81 -0.126823
0.82 -0.164034
0.83 -0.19682
0.84 -0.224702
0.85 -0.247361
0.86 -0.264084
0.87 -0.275396
0.88 -0.281577
0.89 -0.282978
0.9 -0.280078
0.91 -0.27346
0.92 -0.263702
0.93 -0.25155
0.94 -0.237991
0.95 -0.223783
0.96 -0.209655
0.97 -0.196285
0.98 -0.184278
0.99 -0.174361
1 -0.166847
1.01 -0.161951
1.02 -0.159822
1.03 -0.160489
1.04 -0.163867
1.05 -0.169834
1.06 -0.178199
1.07 -0.188372
1.08 -0.199931
1.09 -0.212422
1.1 -0.225377
1.11 -0.238337
1.12 -0.250799
1.13 -0.262349
1.14 -0.272684
1.15 -0.281557
1.16 -0.288795
1.17 -0.294306
1.18 -0.298051
1.19 -0.299974
1.2 -0.300402
1.21 -0.299546
1.22 -0.297661
1.23 -0.295035
1.24 -0.29197
1.25 -0.288783
1.26 -0.285806
1.27 -0.283297
1.28 -0.281466
1.29 -0.280475
1.3 -0.280424
1.31 -0.281359
1.32 -0.283346
1.33 -0.286177
1.34 -0.289696
1.35 -0.293705
1.36 -0.297966
1.37 -0.302223
1.38 -0.306171
1.39 -0.309506
1.4 -0.312002
1.41 -0.313449
1.42 -0.31368
1.43 -0.312578
1.44 -0.310087
1.45 -0.306067
1.46 -0.300757
1.47 -0.294315
1.48 -0.286947
1.49 -0.27891
1.5 -0.270498
1.51 -0.262047
1.52 -0.25395
1.53 -0.246538
1.54 -0.240125
1.55 -0.234991
1.56 -0.231372
1.57 -0.229447
1.58 -0.229518
1.59 -0.231465
1.6 -0.235204
1.61 -0.240607
1.62 -0.247474
1.63 -0.255537
1.64 -0.264491
1.65 -0.273929
1.66 -0.283375
1.67 -0.292407
1.68 -0.300602
1.69 -0.307555
1.7 -0.312892
1.71 -0.316088
1.72 -0.316975
1.73 -0.315432
1.74 -0.311358
1.75 -0.304737
1.76 -0.295639
1.77 -0.28416
1.78 -0.270429
1.79 -0.254972
1.8 -0.238156
1.81 -0.220396
1.82 -0.202131
1.83 -0.183812
1.84 -0.165956
1.85 -0.149028
1.86 -0.133394
1.87 -0.119385
1.88 -0.107271
1.89 -0.0972506
1.9 -0.0894797
1.91 -0.0841933
1.92 -0.0811035
1.93 -0.0800756
1.94 -0.0809067
1.95 -0.083334
1.96 -0.0870469
1.97 -0.0917364
1.98 -0.0969626
1.99 -0.102309
2 -0.107415
2.01 -0.111948
2.02 -0.115615
2.03 -0.118166
2.04 -0.119264
2.05 -0.118943
2.06 -0.117177
2.07 -0.114014
2.08 -0.109568
2.09 -0.104021
2.1 -0.0975794
2.11 -0.090577
2.12 -0.0833937
2.13 -0.0763796
2.14 -0.0698909
2.15 -0.0642765
2.16 -0.0598648
2.17 -0.0571434
2.18 -0.0562251
2.19 -0.0572795
2.2 -0.0604247
2.21 -0.0657121
2.22 -0.0731243
2.23 -0.0826617
2.24 -0.0941918
2.25 -0.107346
2.26 -0.121849
2.27 -0.13739
2.28 -0.153628
2.29 -0.170205
2.3 -0.186723
2.31 -0.202796
2.32 -0.218101
2.33 -0.232346
2.34 -0.245284
2.35 -0.256717
2.36 -0.266443
2.37 -0.274292
2.38 -0.280393
2.39 -0.284797
2.4 -0.287608
2.41 -0.288977
2.42 -0.289098
2.43 -0.288132
2.44 -0.28642
2.45 -0.284258
2.46 -0.281913
2.47 -0.279641
2.48 -0.277685
2.49 -0.276275
2.5 -0.275663
2.51 -0.275931
2.52 -0.277171
2.53 -0.279433
2.54 -0.282724
2.55 -0.28701
2.56 -0.292281
2.57 -0.298381
2.58 -0.305133
2.59 -0.31238
2.6 -0.31995
2.61 -0.327668
2.62 -0.335355
2.63 -0.342806
2.64 -0.349876
2.65 -0.356433
2.66 -0.362365
2.67 -0.367584
2.68 -0.372029
2.69 -0.375604
2.7 -0.378304
2.71 -0.380181
2.72 -0.381257
2.73 -0.381569
2.74 -0.381159
2.75 -0.380072
2.76 -0.378286
2.77 -0.375916
2.78 -0.372989
2.79 -0.369523
2.8 -0.36552
2.81 -0.36097
2.82 -0.355815
2.83 -0.350007
2.84 -0.343531
2.85 -0.336331
2.86 -0.328347
2.87 -0.319522
2.88 -0.3098
2.89 -0.299034
2.9 -0.28728
2.91 -0.274539
2.92 -0.260817
2.93 -0.246145
2.94 -0.230574
2.95 -0.214148
2.96 -0.196955
2.97 -0.179175
2.98 -0.160943
2.99 -0.142405
3 -0.123713
3.01 -0.105024
3.02 -0.0865196
3.03 -0.0683479
3.04 -0.0506337
3.05 -0.0334874
3.06 -0.0169976
3.07 -0.00122853
3.08 0.0137573
3.09 0.0279107
3.1 0.0413207
3.11 0.0540363
3.12 0.0661296
3.13 0.0776919
3.14 0.0888301
3.15 0.0996466
3.16 0.110296
3.17 0.120912
3.18 0.131608
3.19 0.142491
3.2 0.15365
3.21 0.165162
3.22 0.177107
3.23 0.189467
3.24 0.202232
3.25 0.215367
3.26 0.228814
3.27 0.242493
3.28 0.256306
3.29 0.270118
3.3 0.2838
3.31 0.297224
3.32 0.310261
3.33 0.322791
3.34 0.334696
3.35 0.345802
3.36 0.356105
3.37 0.365558
3.38 0.374133
3.39 0.381828
3.4 0.388666
3.41 0.394643
3.42 0.399843
3.43 0.404397
3.44 0.408401
3.45 0.411963
3.46 0.415194
3.47 0.418202
3.48 0.421091
3.49 0.423975
3.5 0.426933
3.51 0.430026
3.52 0.433296
3.53 0.436765
3.54 0.440445
3.55 0.444313
3.56 0.448313
3.57 0.452388
3.58 0.456467
3.59 0.460467
3.6 0.464304
3.61 0.467853
3.62 0.471044
3.63 0.473802
3.64 0.476062
3.65 0.477769
3.66 0.478888
3.67 0.479372
3.68 0.479201
3.69 0.478443
3.7 0.477134
3.71 0.475326
3.72 0.473085
3.73 0.470483
3.74 0.467582
3.75 0.46449
3.76 0.461292
3.77 0.458059
3.78 0.454851
3.79 0.451716
3.8 0.448688
3.81 0.445786
3.82 0.442993
3.83 0.440277
3.84 0.437592
3.85 0.434872
3.86 0.43204
3.87 0.428979
3.88 0.425584
3.89 0.421757
3.9 0.417394
3.91 0.412392
3.92 0.406657
3.93 0.400088
3.94 0.392538
3.95 0.384041
3.96 0.374566
3.97 0.364103
3.98 0.352661
3.99 0.34027
4 0.326915
4.01 0.312694
4.02 0.297728
4.03 0.282107
4.04 0.265929
4.05 0.249294
4.06 0.232303
4.07 0.21504
4.08 0.197634
4.09 0.180168
4.1 0.162718
4.11 0.145346
4.12 0.128102
4.13 0.111039
4.14 0.0941855
4.15 0.077549
4.16 0.0611371
4.17 0.0449521
4.18 0.0289928
4.19 0.0132573
4.2 -0.00223007
4.21 -0.0174895
4.22 -0.032512
4.23 -0.04728
4.24 -0.061768
4.25 -0.0759413
4.26 -0.0897368
4.27 -0.103087
4.28 -0.115958
4.29 -0.128286
4.3 -0.140007
4.31 -0.151056
4.32 -0.161371
4.33 -0.170815
4.34 -0.179407
4.35 -0.18713
4.36 -0.193967
4.37 -0.199921
4.38 -0.205009
4.39 -0.209237
4.4 -0.212636
4.41 -0.215344
4.42 -0.217449
4.43 -0.21905
4.44 -0.220254
4.45 -0.221174
4.46 -0.22192
4.47 -0.222627
4.48 -0.223404
4.49 -0.224343
4.5 -0.225524
4.51 -0.227008
4.52 -0.228849
4.53 -0.231094
4.54 -0.233706
4.55 -0.236659
4.56 -0.239909
4.57 -0.243391
4.58 -0.247028
4.59 -0.250725
4.6 -0.254366
4.61 -0.257843
4.62 -0.261053
4.63 -0.263898
4.64 -0.266287
4.65 -0.268136
4.66 -0.269327
4.67 -0.269882
4.68 -0.269786
4.69 -0.269047
4.7 -0.267696
4.71 -0.265786
4.72 -0.263362
4.73 -0.260539
4.74 -0.25745
4.75 -0.254213
4.76 -0.250952
4.77 -0.247794
4.78 -0.244863
4.79 -0.242325
4.8 -0.240254
4.81 -0.238736
4.82 -0.23784
4.83 -0.237611
4.84 -0.238077
4.85 -0.239278
4.86 -0.241191
4.87 -0.243729
4.88 -0.246826
4.89 -0.250403
4.9 -0.254364
4.91 -0.258609
4.92 -0.263034
4.93 -0.267501
4.94 -0.271903
4.95 -0.27614
4.96 -0.280123
4.97 -0.283775
4.98 -0.287014
4.99 -0.28978
5 -0.292077
5.01 -0.293899
5.02 -0.295254
5.03 -0.296164
5.04 -0.296666
5.05 -0.29677
5.06 -0.296564
5.07 -0.296108
5.08 -0.295451
5.09 -0.294643
5.1 -0.293722
5.11 -0.292716
5.12 -0.291638
5.13 -0.290494
5.14 -0.289268
5.15 -0.287928
5.16 -0.286429
5.17 -0.28471
5.18 -0.282668
5.19 -0.280228
5.2 -0.277309
5.21 -0.273821
5.22 -0.269673
5.23 -0.264776
5.24 -0.259029
5.25 -0.252292
5.26 -0.244587
5.27 -0.235874
5.28 -0.226131
5.29 -0.215351
5.3 -0.203545
5.31 -0.190668
5.32 -0.176811
5.33 -0.162078
5.34 -0.146546
5.35 -0.130302
5.36 -0.113441
5.37 -0.0960589
5.38 -0.0782363
5.39 -0.0601292
5.4 -0.0418402
5.41 -0.0234679
5.42 -0.00510577
5.43 0.0131592
5.44 0.0312303
5.45 0.0490276
5.46 0.0664965
5.47 0.0835785
5.48 0.10022
5.49 0.116371
5.5 0.131983
5.51 0.146936
5.52 0.161246
5.53 0.174863
5.54 0.187732
5.55 0.199798
5.56 0.210999
5.57 0.221216
5.58 0.230366
5.59 0.238438
5.6 0.245363
5.61 0.251076
5.62 0.255516
5.63 0.258629
5.64 0.260218
5.65 0.260385
5.66 0.259128
5.67 0.256449
5.68 0.252365
5.69 0.246916
5.7 0.240103
5.71 0.231979
5.72 0.222737
5.73 0.212489
5.74 0.201364
5.75 0.189497
5.76 0.177034
5.77 0.164097
5.78 0.150885
5.79 0.137552
5.8 0.124237
5.81 0.111065
5.82 0.098148
5.83 0.0855972
5.84 0.07352
5.85 0.0619385
5.86 0.0508856
5.87 0.0403754
5.88 0.0304038
5.89 0.0209507
5.9 0.0120204
5.91 0.00353543
5.92 -0.00457126
5.93 -0.0123537
5.94 -0.0198643
5.95 -0.0271497
5.96 -0.0342443
5.97 -0.0411636
5.98 -0.0479311
5.99 -0.0545362
6 -0.0609504
6.01 -0.067127
6.02 -0.0730015
6.03 -0.0784575
6.04 -0.0833985
6.05 -0.0877336
6.06 -0.0913491
6.07 -0.0941296
6.08 -0.0959618
6.09 -0.096727
6.1 -0.0962108
6.11 -0.0944535
6.12 -0.0914016
6.13 -0.0870254
6.14 -0.0813211
6.15 -0.0743127
6.16 -0.0659778
6.17 -0.0564267
6.18 -0.0458398
6.19 -0.0343551
6.2 -0.0221314
6.21 -0.00934411
6.22 0.0038191
6.23 0.0171615
6.24 0.0304476
6.25 0.0434863
6.26 0.056097
6.27 0.0681143
6.28 0.0793926
6.29 0.089759
6.3 0.0990969
6.31 0.107405
6.32 0.114654
6.33 0.120848
6.34 0.126018
6.35 0.130223
6.36 0.133466
6.37 0.135949
6.38 0.137811
6.39 0.139188
6.4 0.140227
6.41 0.141075
6.42 0.141879
6.43 0.142796
6.44 0.14395
6.45 0.145445
6.46 0.147367
6.47 0.14978
6.48 0.152727
6.49 0.156283
6.5 0.160401
6.51 0.165044
6.52 0.170167
6.53 0.175711
6.54 0.181607
6.55 0.187781
6.56 0.194148
6.57 0.200603
6.58 0.207066
6.59 0.213463
6.6 0.21973
6.61 0.225814
6.62 0.231653
6.63 0.237232
6.64 0.24255
6.65 0.247611
6.66 0.252433
6.67 0.257042
6.68 0.26147
6.69 0.265751
6.7 0.269945
6.71 0.274091
6.72 0.278226
6.73 0.282379
6.74 0.286569
6.75 0.290806
6.76 0.295079
6.77 0.299363
6.78 0.303618
6.79 0.30779
6.8 0.311812
6.81 0.315604
6.82 0.319031
6.83 0.322024
6.84 0.324479
6.85 0.326294
6.86 0.327368
6.87 0.327606
6.88 0.326858
6.89 0.325044
6.9 0.322156
6.91 0.318149
6.92 0.312994
6.93 0.30668
6.94 0.299212
6.95 0.290489
6.96 0.280678
6.97 0.26984
6.98 0.25804
6.99 0.245354
7 0.231865
7.01 0.217629
7.02 0.202739
7.03 0.187328
7.04 0.171482
7.05 0.155279
7.06 0.138792
7.07 0.122086
7.08 0.105207
7.09 0.0882189
7.1 0.0711628
7.11 0.0540688
7.12 0.0369611
7.13 0.0198591
7.14 0.00278082
7.15 -0.0142552
7.16 -0.031235
7.17 -0.04814
7.18 -0.0649475
7.19 -0.0816294
7.2 -0.098151
7.21 -0.114448
7.22 -0.130477
7.23 -0.146185
7.24 -0.161509
7.25 -0.17638
7.26 -0.190723
7.27 -0.204446
7.28 -0.217422
7.29 -0.229634
7.3 -0.241016
7.31 -0.251508
7.32 -0.26106
7.33 -0.269634
7.34 -0.27712
7.35 -0.283552
7.36 -0.288974
7.37 -0.293406
7.38 -0.296886
7.39 -0.299464
7.4 -0.301192
7.41 -0.30209
7.42 -0.302331
7.43 -0.302006
7.44 -0.301213
7.45 -0.300052
7.46 -0.29862
7.47 -0.297006
7.48 -0.295311
7.49 -0.29362
7.5 -0.291998
7.51 -0.290497
7.52 -0.289155
7.53 -0.287997
7.54 -0.287051
7.55 -0.286287
7.56 -0.285683
7.57 -0.285201
7.58 -0.284797
7.59 -0.284414
7.6 -0.283984
7.61 -0.28343
7.62 -0.282684
7.63 -0.281679
7.64 -0.28035
7.65 -0.278636
7.66 -0.276486
7.67 -0.273797
7.68 -0.270586
7.69 -0.266838
7.7 -0.262545
7.71 -0.257714
7.72 -0.252361
7.73 -0.246494
7.74 -0.240152
7.75 -0.233421
7.76 -0.22636
7.77 -0.219036
7.78 -0.211521
7.79 -0.203887
7.8 -0.196214
7.81 -0.188588
7.82 -0.181079
7.83 -0.173756
7.84 -0.16668
7.85 -0.159905
7.86 -0.153493
7.87 -0.147505
7.88 -0.141941
7.89 -0.13682
7.9 -0.132153
7.91 -0.127943
7.92 -0.124186
7.93 -0.120908
7.94 -0.118061
7.95 -0.115609
7.96 -0.113524
7.97 -0.111776
7.98 -0.110333
7.99 -0.109168
8 -0.10826
8.01 -0.107556
8.02 -0.107028
8.03 -0.10665
8.04 -0.106402
8.05 -0.106268
8.06 -0.106241
8.07 -0.106309
8.08 -0.106465
8.09 -0.106711
8.1 -0.107052
8.11 -0.107495
8.12 -0.108052
8.13 -0.108748
8.14 -0.109583
8.15 -0.11057
8.16 -0.11172
8.17 -0.113042
8.18 -0.11454
8.19 -0.11623
8.2 -0.118102
8.21 -0.120137
8.22 -0.12232
8.23 -0.124627
8.24 -0.127028
8.25 -0.129486
8.26 -0.131956
8.27 -0.134379
8.28 -0.1367
8.29 -0.138858
8.3 -0.140788
8.31 -0.142424
8.32 -0.143672
8.33 -0.144452
8.34 -0.14472
8.35 -0.144415
8.36 -0.143477
8.37 -0.141854
8.38 -0.139501
8.39 -0.136295
8.4 -0.132283
8.41 -0.127457
8.42 -0.121812
8.43 -0.115351
8.44 -0.10809
8.45 -0.100019
8.46 -0.0911574
8.47 -0.081604
8.48 -0.0714079
8.49 -0.0606232
8.5 -0.0493076
8.51 -0.0375207
8.52 -0.0252881
8.53 -0.0127075
8.54 0.00015796
8.55 0.0132573
8.56 0.0265444
8.57 0.0399796
8.58 0.0535324
8.59 0.067178
8.6 0.0808896
8.61 0.0946558
8.62 0.108471
8.63 0.122333
8.64 0.136244
8.65 0.150214
8.66 0.164245
8.67 0.178337
8.68 0.192491
8.69 0.206701
8.7 0.220956
8.71 0.235238
8.72 0.249514
8.73 0.263745
8.74 0.277881
8.75 0.291866
8.76 0.305631
8.77 0.319101
8.78 0.332158
8.79 0.344712
8.8 0.356685
8.81 0.36798
8.82 0.3785
8.83 0.388149
8.84 0.396822
8.85 0.404328
8.86 0.410693
8.87 0.415852
8.88 0.419749
8.89 0.422342
8.9 0.423601
8.91 0.423422
8.92 0.42182
8.93 0.41888
8.94 0.414626
8.95 0.409095
8.96 0.402333
8.97 0.394393
8.98 0.385214
8.99 0.375001
9 0.363822
9.01 0.351749
9.02 0.338852
9.03 0.325203
9.04 0.310834
9.05 0.295814
9.06 0.280243
9.07 0.264178
9.08 0.24767
9.09 0.230767
9.1 0.213514
9.11 0.195927
9.12 0.178082
9.13 0.160025
9.14 0.1418
9.15 0.123456
9.16 0.105041
9.17 0.086615
9.18 0.0682475
9.19 0.0500064
9.2 0.0319641
9.21 0.0141986
9.22 -0.00320776
9.23 -0.0201686
9.24 -0.0365348
9.25 -0.052245
9.26 -0.0672205
9.27 -0.0813728
9.28 -0.0946175
9.29 -0.106875
9.3 -0.118038
9.31 -0.127973
9.32 -0.136722
9.33 -0.144244
9.34 -0.150511
9.35 -0.155505
9.36 -0.159222
9.37 -0.161565
9.38 -0.162624
9.39 -0.162471
9.4 -0.161149
9.41 -0.158708
9.42 -0.155203
9.43 -0.150677
9.44 -0.145131
9.45 -0.138728
9.46 -0.131534
9.47 -0.123615
9.48 -0.115034
9.49 -0.10585
9.5 -0.0960841
9.51 -0.0858113
9.52 -0.0751025
9.53 -0.0640014
9.54 -0.0525486
9.55 -0.0407826
9.56 -0.0287381
9.57 -0.0164324
9.58 -0.00393186
9.59 0.00872433
9.6 0.0214942
9.61 0.0343323
9.62 0.047189
9.63 0.0600041
9.64 0.0727093
9.65 0.0852425
9.66 0.0975352
9.67 0.109516
9.68 0.12111
9.69 0.132242
9.7 0.142768
9.71 0.152668
9.72 0.161875
9.73 0.170325
9.74 0.17796
9.75 0.184733
9.76 0.190554
9.77 0.195378
9.78 0.199248
9.79 0.202159
9.8 0.204119
9.81 0.205144
9.82 0.205261
9.83 0.204423
9.84 0.20276
9.85 0.200338
9.86 0.197217
9.87 0.193458
9.88 0.189128
9.89 0.184273
9.9 0.178952
9.91 0.173261
9.92 0.167259
9.93 0.160997
9.94 0.154522
9.95 0.147873
9.96 0.141075
9.97 0.134168
9.98 0.127176
9.99 0.120116
10 0.112999
10.01 0.105836
10.02 0.0986302
10.03 0.091387
10.04 0.0841145
10.05 0.0768183
10.06 0.0695053
10.07 0.0621846
10.08 0.0548673
10.09 0.0475699
10.1 0.0403101
10.11 0.0331059
10.12 0.0259779
10.13 0.0189474
10.14 0.012036
10.15 0.00526791
10.16 -0.00132163
10.17 -0.00772976
10.18 -0.0139423
10.19 -0.0199488
10.2 -0.0257426
10.21 -0.0313216
10.22 -0.0366731
10.23 -0.0418105
10.24 -0.0467548
10.25 -0.0515203
10.26 -0.0561241
10.27 -0.0605844
10.28 -0.0649195
10.29 -0.0691391
10.3 -0.073273
10.31 -0.0773349
10.32 -0.081335
10.33 -0.0852794
10.34 -0.0891692
10.35 -0.0929967
10.36 -0.0967515
10.37 -0.100422
10.38 -0.10399
10.39 -0.107434
10.4 -0.11073
10.41 -0.113853
10.42 -0.116753
10.43 -0.119429
10.44 -0.121863
10.45 -0.124041
10.46 -0.125956
10.47 -0.127609
10.48 -0.128995
10.49 -0.13013
10.5 -0.131058
10.51 -0.131814
10.52 -0.13244
10.53 -0.132986
10.54 -0.133503
10.55 -0.13406
10.56 -0.134719
10.57 -0.135536
10.58 -0.136567
10.59 -0.13786
10.6 -0.139459
10.61 -0.141411
10.62 -0.143754
10.63 -0.146468
10.64 -0.14955
10.65 -0.152979
10.66 -0.156725
10.67 -0.160743
10.68 -0.164993
10.69 -0.169386
10.7 -0.173841
10.71 -0.17828
10.72 -0.182619
10.73 -0.186778
10.74 -0.190669
10.75 -0.194188
10.76 -0.197299
10.77 -0.19995
10.78 -0.202103
10.79 -0.203736
10.8 -0.204841
10.81 -0.205385
10.82 -0.205421
10.83 -0.205011
10.84 -0.204212
10.85 -0.203091
10.86 -0.201726
10.87 -0.200201
10.88 -0.198609
10.89 -0.197052
10.9 -0.195617
10.91 -0.194382
10.92 -0.193418
10.93 -0.192783
10.94 -0.19255
10.95 -0.192742
10.96 -0.193348
10.97 -0.194359
10.98 -0.195747
10.99 -0.197468
11 -0.199466
11.01 -0.201678
11.02 -0.20399
11.03 -0.206305
11.04 -0.208526
11.05 -0.21055
11.06 -0.212279
11.07 -0.213588
11.08 -0.214377
11.09 -0.214595
11.1 -0.214181
11.11 -0.213089
11.12 -0.211286
11.13 -0.20876
11.14 -0.205435
11.15 -0.201412
11.16 -0.196733
11.17 -0.191452
11.18 -0.185634
11.19 -0.179352
11.2 -0.172673
11.21 -0.16569
11.22 -0.158513
11.23 -0.151229
11.24 -0.143918
11.25 -0.136653
11.26 -0.129499
11.27 -0.122531
11.28 -0.115784
11.29 -0.10928
11.3 -0.103036
11.31 -0.0970544
11.32 -0.0913285
11.33 -0.085847
11.34 -0.0805878
11.35 -0.0754961
11.36 -0.070531
11.37 -0.065649
11.38 -0.0608054
11.39 -0.0559565
11.4 -0.0510534
11.41 -0.0460579
11.42 -0.040941
11.43 -0.0356786
11.44 -0.0302533
11.45 -0.0246546
11.46 -0.0188749
11.47 -0.0129059
11.48 -0.00677401
11.49 -0.000493161
11.5 0.00591941
11.51 0.0124446
11.52 0.0190627
11.53 0.025759
11.54 0.0325116
11.55 0.0393044
11.56 0.0461278
11.57 0.0529769
11.58 0.0598514
11.59 0.0667561
11.6 0.0737052
11.61 0.0807091
11.62 0.0877845
11.63 0.0949502
11.64 0.102225
11.65 0.109629
11.66 0.117188
11.67 0.124917
11.68 0.132816
11.69 0.140888
11.7 0.149129
11.71 0.157529
11.72 0.16607
11.73 0.174735
11.74 0.183473
11.75 0.192242
11.76 0.200995
11.77 0.209677
11.78 0.218232
11.79 0.226584
11.8 0.234662
11.81 0.242415
11.82 0.249783
11.83 0.256709
11.84 0.263139
11.85 0.269026
11.86 0.274259
11.87 0.278858
11.88 0.282801
11.89 0.286069
11.9 0.288646
11.91 0.290527
11.92 0.29168
11.93 0.29209
11.94 0.291819
11.95 0.29088
11.96 0.289289
11.97 0.287065
11.98 0.284226
11.99 0.280738
12 0.276667
12.01 0.272045
12.02 0.26689
12.03 0.26122
12.04 0.255051
12.05 0.248386
12.06 0.241221
12.07 0.233613
12.08 0.225582
12.09 0.217151
12.1 0.208343
12.11 0.199186
12.12 0.189687
12.13 0.179904
12.14 0.169888
12.15 0.159685
12.16 0.149343
12.17 0.138915
12.18 0.12846
12.19 0.118045
12.2 0.107734
