# xPDFsuite Configuration #
[PDF]
wavelength = 0.1
dataformat = QA
inputfile = BiMsol6_insitu_700 C-00643.xy
backgroundfile = Quartz2mm-dist500-00000.xy
mode = xray
bgscale = 0.0042
composition = Bi2Fe4O9
outputtype = gr
qmaxinst = 24.998449118
qmin = 0.1
qmax = 21.4986662415
rmax = 80.0
rmin = 0.0
rstep = 0.01
rpoly = 0.9

[Misc]
inputdir = C:/Data/Seafile/CPH/Beamtime/Desy Oct 20/In situ data/Processed/BiMsol6/PDF
savedir = C:/Data/Seafile/CPH/Beamtime/Desy Oct 20/In situ data/PDF/BiMsol6
backgroundfilefull = C:/Data/Seafile/CPH/Beamtime/Desy Oct 20/In situ data/Processed/Standard_Empty_Cap/Quartz2mm-dist500-00000.xy

#### start data
#S 1
#L r($\AA$)  G($\AA^{-2}$)
0 0
0.01 0.00641587
0.02 0.0124695
0.03 0.0178509
0.04 0.0222819
0.05 0.0255287
0.06 0.027413
0.07 0.0277398
0.08 0.0264516
0.09 0.0236913
0.1 0.019576
0.11 0.0142881
0.12 0.00806672
0.13 0.00119752
0.14 -0.00599895
0.15 -0.0131173
0.16 -0.0198159
0.17 -0.0257738
0.18 -0.0307033
0.19 -0.0343632
0.2 -0.0365062
0.21 -0.0369624
0.22 -0.0358278
0.23 -0.0331671
0.24 -0.0291229
0.25 -0.0239113
0.26 -0.0178136
0.27 -0.0111489
0.28 -0.00438049
0.29 0.00207984
0.3 0.00783199
0.31 0.0124953
0.32 0.0157273
0.33 0.0171809
0.34 0.0165164
0.35 0.013783
0.36 0.00897553
0.37 0.00219268
0.38 -0.00636177
0.39 -0.0163818
0.4 -0.0275133
0.41 -0.0391426
0.42 -0.0506673
0.43 -0.0614747
0.44 -0.0709309
0.45 -0.0784041
0.46 -0.0832264
0.47 -0.0845386
0.48 -0.082151
0.49 -0.0757144
0.5 -0.0650012
0.51 -0.049919
0.52 -0.0305212
0.53 -0.00673958
0.54 0.0208797
0.55 0.0516171
0.56 0.0848036
0.57 0.119657
0.58 0.155303
0.59 0.19079
0.6 0.224903
0.61 0.25669
0.62 0.285197
0.63 0.309527
0.64 0.328875
0.65 0.342553
0.66 0.349602
0.67 0.349636
0.68 0.342837
0.69 0.329218
0.7 0.308976
0.71 0.282486
0.72 0.250292
0.73 0.212611
0.74 0.170933
0.75 0.126228
0.76 0.0795251
0.77 0.03189
0.78 -0.0156037
0.79 -0.0617943
0.8 -0.105517
0.81 -0.145984
0.82 -0.182434
0.83 -0.214244
0.84 -0.240941
0.85 -0.262221
0.86 -0.277372
0.87 -0.286957
0.88 -0.291289
0.89 -0.290747
0.9 -0.285841
0.91 -0.277189
0.92 -0.265407
0.93 -0.25128
0.94 -0.235831
0.95 -0.21985
0.96 -0.204097
0.97 -0.189275
0.98 -0.176013
0.99 -0.16508
1 -0.156787
1.01 -0.151353
1.02 -0.148928
1.03 -0.149537
1.04 -0.153089
1.05 -0.159451
1.06 -0.168426
1.07 -0.179378
1.08 -0.191859
1.09 -0.205384
1.1 -0.219455
1.11 -0.233579
1.12 -0.247215
1.13 -0.25991
1.14 -0.271329
1.15 -0.281193
1.16 -0.289301
1.17 -0.295535
1.18 -0.29983
1.19 -0.302095
1.2 -0.302662
1.21 -0.301734
1.22 -0.299562
1.23 -0.296435
1.24 -0.292662
1.25 -0.288556
1.26 -0.28447
1.27 -0.280691
1.28 -0.277451
1.29 -0.274936
1.3 -0.273272
1.31 -0.272533
1.32 -0.272816
1.33 -0.273945
1.34 -0.275795
1.35 -0.278193
1.36 -0.28093
1.37 -0.283771
1.38 -0.286442
1.39 -0.288657
1.4 -0.290198
1.41 -0.290862
1.42 -0.290488
1.43 -0.288961
1.44 -0.286222
1.45 -0.28214
1.46 -0.276925
1.47 -0.270716
1.48 -0.263702
1.49 -0.256117
1.5 -0.248232
1.51 -0.240357
1.52 -0.232853
1.53 -0.226023
1.54 -0.220152
1.55 -0.215493
1.56 -0.212259
1.57 -0.210607
1.58 -0.210804
1.59 -0.212724
1.6 -0.216277
1.61 -0.221327
1.62 -0.227673
1.63 -0.23505
1.64 -0.243156
1.65 -0.251592
1.66 -0.259913
1.67 -0.267717
1.68 -0.274606
1.69 -0.2802
1.7 -0.284155
1.71 -0.285975
1.72 -0.285526
1.73 -0.282709
1.74 -0.277451
1.75 -0.269756
1.76 -0.259707
1.77 -0.247418
1.78 -0.233033
1.79 -0.217064
1.8 -0.199872
1.81 -0.181855
1.82 -0.163435
1.83 -0.145039
1.84 -0.127153
1.85 -0.110201
1.86 -0.0945099
1.87 -0.0803715
1.88 -0.0680153
1.89 -0.0576009
1.9 -0.0492433
1.91 -0.0431212
1.92 -0.0389396
1.93 -0.0365436
1.94 -0.0357172
1.95 -0.0361936
1.96 -0.0376665
1.97 -0.039825
1.98 -0.0422635
1.99 -0.0446155
2 -0.0465672
2.01 -0.0478398
2.02 -0.0482017
2.03 -0.0474737
2.04 -0.0454101
2.05 -0.0421177
2.06 -0.037649
2.07 -0.0321271
2.08 -0.0257417
2.09 -0.018742
2.1 -0.0114303
2.11 -0.00420318
2.12 0.0025533
2.13 0.00846105
2.14 0.0131484
2.15 0.0162645
2.16 0.0174927
2.17 0.0163032
2.18 0.0126959
2.19 0.00656153
2.2 -0.00215157
2.21 -0.0134182
2.22 -0.0271362
2.23 -0.0432204
2.24 -0.061432
2.25 -0.0812878
2.26 -0.102417
2.27 -0.124411
2.28 -0.14684
2.29 -0.169264
2.3 -0.191162
2.31 -0.212112
2.32 -0.231748
2.33 -0.249744
2.34 -0.265827
2.35 -0.279789
2.36 -0.29141
2.37 -0.300509
2.38 -0.307297
2.39 -0.311863
2.4 -0.314361
2.41 -0.314997
2.42 -0.314028
2.43 -0.311657
2.44 -0.308319
2.45 -0.304382
2.46 -0.300175
2.47 -0.296014
2.48 -0.292191
2.49 -0.288986
2.5 -0.286699
2.51 -0.285428
2.52 -0.285283
2.53 -0.286321
2.54 -0.288545
2.55 -0.291912
2.56 -0.296402
2.57 -0.301825
2.58 -0.307968
2.59 -0.314642
2.6 -0.321638
2.61 -0.328747
2.62 -0.335757
2.63 -0.342419
2.64 -0.348575
2.65 -0.354076
2.66 -0.358804
2.67 -0.362673
2.68 -0.365631
2.69 -0.3676
2.7 -0.368615
2.71 -0.368778
2.72 -0.368165
2.73 -0.366877
2.74 -0.365026
2.75 -0.362735
2.76 -0.360109
2.77 -0.357321
2.78 -0.354484
2.79 -0.351701
2.8 -0.349056
2.81 -0.346616
2.82 -0.344442
2.83 -0.342562
2.84 -0.340957
2.85 -0.339606
2.86 -0.338473
2.87 -0.337505
2.88 -0.336641
2.89 -0.335809
2.9 -0.334926
2.91 -0.33392
2.92 -0.332727
2.93 -0.331285
2.94 -0.329543
2.95 -0.327443
2.96 -0.32494
2.97 -0.322039
2.98 -0.318729
2.99 -0.315005
3 -0.310866
3.01 -0.306311
3.02 -0.301297
3.03 -0.295845
3.04 -0.289947
3.05 -0.283574
3.06 -0.276683
3.07 -0.26922
3.08 -0.261091
3.09 -0.252162
3.1 -0.242388
3.11 -0.231662
3.12 -0.219868
3.13 -0.206889
3.14 -0.192609
3.15 -0.176793
3.16 -0.159409
3.17 -0.140427
3.18 -0.119796
3.19 -0.097492
3.2 -0.0735202
3.21 -0.0478877
3.22 -0.020566
3.23 0.00816884
3.24 0.0381616
3.25 0.0692236
3.26 0.101136
3.27 0.133652
3.28 0.166507
3.29 0.199364
3.3 0.231915
3.31 0.26386
3.32 0.294906
3.33 0.324767
3.34 0.353161
3.35 0.379649
3.36 0.404185
3.37 0.426591
3.38 0.446723
3.39 0.464475
3.4 0.479777
3.41 0.49244
3.42 0.502491
3.43 0.510107
3.44 0.515356
3.45 0.518334
3.46 0.519151
3.47 0.517937
3.48 0.514627
3.49 0.509596
3.5 0.50299
3.51 0.494951
3.52 0.485616
3.53 0.475111
3.54 0.463507
3.55 0.450911
3.56 0.437487
3.57 0.42332
3.58 0.408486
3.59 0.393059
3.6 0.377107
3.61 0.360659
3.62 0.343835
3.63 0.326719
3.64 0.309393
3.65 0.291951
3.66 0.274496
3.67 0.257152
3.68 0.24007
3.69 0.223378
3.7 0.20722
3.71 0.191746
3.72 0.177108
3.73 0.163459
3.74 0.151068
3.75 0.14001
3.76 0.130387
3.77 0.122309
3.78 0.115871
3.79 0.111147
3.8 0.108241
3.81 0.107287
3.82 0.108126
3.83 0.110732
3.84 0.115058
3.85 0.121034
3.86 0.128574
3.87 0.137684
3.88 0.148164
3.89 0.159839
3.9 0.172579
3.91 0.186256
3.92 0.200741
3.93 0.215924
3.94 0.231724
3.95 0.247974
3.96 0.264583
3.97 0.281473
3.98 0.298576
3.99 0.315834
4 0.333203
4.01 0.350631
4.02 0.368075
4.03 0.385498
4.04 0.40286
4.05 0.420115
4.06 0.437211
4.07 0.454054
4.08 0.470586
4.09 0.486721
4.1 0.502356
4.11 0.51738
4.12 0.531668
4.13 0.545027
4.14 0.557299
4.15 0.568389
4.16 0.578155
4.17 0.586458
4.18 0.593169
4.19 0.598167
4.2 0.601134
4.21 0.60218
4.22 0.601255
4.23 0.598324
4.24 0.593379
4.25 0.586436
4.26 0.577444
4.27 0.566445
4.28 0.553664
4.29 0.539213
4.3 0.523217
4.31 0.505813
4.32 0.487146
4.33 0.467265
4.34 0.446429
4.35 0.424794
4.36 0.402492
4.37 0.379641
4.38 0.356345
4.39 0.332684
4.4 0.308723
4.41 0.284542
4.42 0.260175
4.43 0.235644
4.44 0.210958
4.45 0.18612
4.46 0.161108
4.47 0.135928
4.48 0.110578
4.49 0.0850618
4.5 0.0593893
4.51 0.0335833
4.52 0.00767888
4.53 -0.0182666
4.54 -0.0441733
4.55 -0.0699542
4.56 -0.0955073
4.57 -0.120718
4.58 -0.145462
4.59 -0.169548
4.6 -0.192848
4.61 -0.21525
4.62 -0.236627
4.63 -0.256858
4.64 -0.275838
4.65 -0.293457
4.66 -0.309521
4.67 -0.324128
4.68 -0.337263
4.69 -0.348939
4.7 -0.35919
4.71 -0.368079
4.72 -0.375607
4.73 -0.381922
4.74 -0.387208
4.75 -0.391601
4.76 -0.395243
4.77 -0.398281
4.78 -0.400858
4.79 -0.403093
4.8 -0.405161
4.81 -0.407174
4.82 -0.409227
4.83 -0.411393
4.84 -0.413728
4.85 -0.416278
4.86 -0.419052
4.87 -0.422024
4.88 -0.425162
4.89 -0.428417
4.9 -0.431728
4.91 -0.435025
4.92 -0.43821
4.93 -0.441204
4.94 -0.443929
4.95 -0.446312
4.96 -0.448284
4.97 -0.449788
4.98 -0.450753
4.99 -0.451129
5 -0.450936
5.01 -0.450169
5.02 -0.448836
5.03 -0.446954
5.04 -0.444551
5.05 -0.441613
5.06 -0.438223
5.07 -0.434426
5.08 -0.430261
5.09 -0.42576
5.1 -0.420951
5.11 -0.415846
5.12 -0.410445
5.13 -0.404776
5.14 -0.398832
5.15 -0.392602
5.16 -0.386067
5.17 -0.379206
5.18 -0.371963
5.19 -0.364332
5.2 -0.356305
5.21 -0.347869
5.22 -0.339023
5.23 -0.329771
5.24 -0.320126
5.25 -0.310103
5.26 -0.29979
5.27 -0.289251
5.28 -0.278565
5.29 -0.267825
5.3 -0.25713
5.31 -0.24661
5.32 -0.236386
5.33 -0.226566
5.34 -0.217257
5.35 -0.208563
5.36 -0.200573
5.37 -0.193378
5.38 -0.18712
5.39 -0.181752
5.4 -0.17729
5.41 -0.173728
5.42 -0.171039
5.43 -0.169174
5.44 -0.168111
5.45 -0.167739
5.46 -0.167919
5.47 -0.168539
5.48 -0.169483
5.49 -0.170632
5.5 -0.171869
5.51 -0.173068
5.52 -0.174126
5.53 -0.174956
5.54 -0.17549
5.55 -0.175678
5.56 -0.175485
5.57 -0.174876
5.58 -0.173854
5.59 -0.172467
5.6 -0.170752
5.61 -0.168756
5.62 -0.166532
5.63 -0.164137
5.64 -0.161619
5.65 -0.159045
5.66 -0.156453
5.67 -0.153872
5.68 -0.15131
5.69 -0.148763
5.7 -0.146203
5.71 -0.143574
5.72 -0.140811
5.73 -0.13783
5.74 -0.134535
5.75 -0.130817
5.76 -0.126563
5.77 -0.121581
5.78 -0.115796
5.79 -0.109119
5.8 -0.101459
5.81 -0.0927451
5.82 -0.0829268
5.83 -0.0719423
5.84 -0.0597418
5.85 -0.0464606
5.86 -0.0321689
5.87 -0.0169655
5.88 -0.000976432
5.89 0.0156484
5.9 0.0327623
5.91 0.0501279
5.92 0.0675331
5.93 0.0847762
5.94 0.101658
5.95 0.117989
5.96 0.133574
5.97 0.148174
5.98 0.161738
5.99 0.17417
6 0.185406
6.01 0.195416
6.02 0.204201
6.03 0.211714
6.04 0.218071
6.05 0.223421
6.06 0.227886
6.07 0.231604
6.08 0.234724
6.09 0.237396
6.1 0.239765
6.11 0.242018
6.12 0.244282
6.13 0.246667
6.14 0.249257
6.15 0.252109
6.16 0.255268
6.17 0.258722
6.18 0.262412
6.19 0.266263
6.2 0.270174
6.21 0.274021
6.22 0.27766
6.23 0.28087
6.24 0.283511
6.25 0.285414
6.26 0.286416
6.27 0.286365
6.28 0.285124
6.29 0.282508
6.3 0.278404
6.31 0.272845
6.32 0.265815
6.33 0.257328
6.34 0.247431
6.35 0.236202
6.36 0.223631
6.37 0.209985
6.38 0.195434
6.39 0.180151
6.4 0.164317
6.41 0.148117
6.42 0.131733
6.43 0.115363
6.44 0.0991764
6.45 0.0833128
6.46 0.0678892
6.47 0.0529981
6.48 0.0387057
6.49 0.025112
6.5 0.0121792
6.51 -0.000128353
6.52 -0.0118547
6.53 -0.0230638
6.54 -0.0338358
6.55 -0.0442558
6.56 -0.0544237
6.57 -0.0644699
6.58 -0.0744932
6.59 -0.0845848
6.6 -0.094824
6.61 -0.105275
6.62 -0.116008
6.63 -0.127037
6.64 -0.138351
6.65 -0.149929
6.66 -0.161726
6.67 -0.17368
6.68 -0.185709
6.69 -0.197701
6.7 -0.209541
6.71 -0.221109
6.72 -0.232284
6.73 -0.242943
6.74 -0.252967
6.75 -0.26218
6.76 -0.270488
6.77 -0.277836
6.78 -0.284149
6.79 -0.289369
6.8 -0.293451
6.81 -0.296356
6.82 -0.297952
6.83 -0.298369
6.84 -0.297621
6.85 -0.295731
6.86 -0.292727
6.87 -0.288645
6.88 -0.283457
6.89 -0.277209
6.9 -0.269991
6.91 -0.261829
6.92 -0.252743
6.93 -0.242747
6.94 -0.231847
6.95 -0.219938
6.96 -0.207112
6.97 -0.193357
6.98 -0.178656
6.99 -0.16299
7 -0.146339
7.01 -0.128638
7.02 -0.109856
7.03 -0.0900594
7.04 -0.0692548
7.05 -0.0474606
7.06 -0.0247073
7.07 -0.00103877
7.08 0.0235686
7.09 0.0489565
7.1 0.075025
7.11 0.101674
7.12 0.128791
7.13 0.156257
7.14 0.183946
7.15 0.211711
7.16 0.239398
7.17 0.266873
7.18 0.294001
7.19 0.320652
7.2 0.346704
7.21 0.371963
7.22 0.396361
7.23 0.419819
7.24 0.442255
7.25 0.463591
7.26 0.483765
7.27 0.502685
7.28 0.520221
7.29 0.536444
7.3 0.55132
7.31 0.564822
7.32 0.576924
7.33 0.587601
7.34 0.59671
7.35 0.604289
7.36 0.610366
7.37 0.614913
7.38 0.617903
7.39 0.619306
7.4 0.619065
7.41 0.617011
7.42 0.613279
7.43 0.607848
7.44 0.600698
7.45 0.591818
7.46 0.581204
7.47 0.568743
7.48 0.554497
7.49 0.53858
7.5 0.521039
7.51 0.501935
7.52 0.481342
7.53 0.459344
7.54 0.435923
7.55 0.411352
7.56 0.385767
7.57 0.35931
7.58 0.332136
7.59 0.304405
7.6 0.276271
7.61 0.247931
7.62 0.219576
7.63 0.191375
7.64 0.163494
7.65 0.136092
7.66 0.109322
7.67 0.0834263
7.68 0.0584662
7.69 0.034554
7.7 0.0117929
7.71 -0.00972758
7.72 -0.0299323
7.73 -0.0486926
7.74 -0.0659275
7.75 -0.0817052
7.76 -0.0960121
7.77 -0.108848
7.78 -0.120224
7.79 -0.130164
7.8 -0.138567
7.81 -0.145601
7.82 -0.151344
7.83 -0.155859
7.84 -0.159213
7.85 -0.16148
7.86 -0.162704
7.87 -0.162933
7.88 -0.16233
7.89 -0.160976
7.9 -0.15895
7.91 -0.156329
7.92 -0.153191
7.93 -0.14957
7.94 -0.145569
7.95 -0.141259
7.96 -0.136694
7.97 -0.131922
7.98 -0.126985
7.99 -0.121915
8 -0.116737
8.01 -0.111485
8.02 -0.106176
8.03 -0.10082
8.04 -0.0954271
8.05 -0.0900027
8.06 -0.0845487
8.07 -0.0790698
8.08 -0.0735706
8.09 -0.0680564
8.1 -0.0625347
8.11 -0.0570165
8.12 -0.0515168
8.13 -0.0460607
8.14 -0.0406706
8.15 -0.0353755
8.16 -0.0302083
8.17 -0.0252054
8.18 -0.0204062
8.19 -0.0158706
8.2 -0.0116417
8.21 -0.0077468
8.22 -0.00422308
8.23 -0.00110345
8.24 0.00158481
8.25 0.0038198
8.26 0.00553787
8.27 0.00679044
8.28 0.00758717
8.29 0.00794799
8.3 0.00790307
8.31 0.00749237
8.32 0.00675038
8.33 0.00574275
8.34 0.00455286
8.35 0.00324932
8.36 0.00190259
8.37 0.000582724
8.38 -0.00064303
8.39 -0.00168947
8.4 -0.00251432
8.41 -0.00307711
8.42 -0.00334824
8.43 -0.00331174
8.44 -0.00296631
8.45 -0.0023141
8.46 -0.00138434
8.47 -0.000246755
8.48 0.001036
8.49 0.00238898
8.5 0.00372694
8.51 0.00495672
8.52 0.00594957
8.53 0.00661017
8.54 0.00684387
8.55 0.00655701
8.56 0.00566398
8.57 0.00409011
8.58 0.00174714
8.59 -0.00145267
8.6 -0.0054701
8.61 -0.0103095
8.62 -0.0159564
8.63 -0.022377
8.64 -0.0295201
8.65 -0.0373672
8.66 -0.0457855
8.67 -0.0546582
8.68 -0.0638793
8.69 -0.0733377
8.7 -0.0829205
8.71 -0.0925138
8.72 -0.101992
8.73 -0.111259
8.74 -0.120232
8.75 -0.128841
8.76 -0.13703
8.77 -0.144762
8.78 -0.15198
8.79 -0.1587
8.8 -0.16496
8.81 -0.170793
8.82 -0.176243
8.83 -0.181368
8.84 -0.186228
8.85 -0.190884
8.86 -0.195431
8.87 -0.199936
8.88 -0.204462
8.89 -0.209062
8.9 -0.213778
8.91 -0.218652
8.92 -0.223698
8.93 -0.228904
8.94 -0.234253
8.95 -0.239711
8.96 -0.245233
8.97 -0.25076
8.98 -0.256207
8.99 -0.261498
9 -0.266554
9.01 -0.271292
9.02 -0.275634
9.03 -0.279507
9.04 -0.282812
9.05 -0.285483
9.06 -0.287516
9.07 -0.288887
9.08 -0.289587
9.09 -0.289623
9.1 -0.289019
9.11 -0.287752
9.12 -0.285938
9.13 -0.283649
9.14 -0.280957
9.15 -0.277941
9.16 -0.274683
9.17 -0.271262
9.18 -0.267765
9.19 -0.264275
9.2 -0.260856
9.21 -0.25756
9.22 -0.254429
9.23 -0.25149
9.24 -0.24878
9.25 -0.246281
9.26 -0.243974
9.27 -0.241835
9.28 -0.239827
9.29 -0.237908
9.3 -0.23603
9.31 -0.234135
9.32 -0.23217
9.33 -0.230088
9.34 -0.227848
9.35 -0.225415
9.36 -0.222764
9.37 -0.219862
9.38 -0.216717
9.39 -0.21335
9.4 -0.209782
9.41 -0.206044
9.42 -0.202178
9.43 -0.198228
9.44 -0.194253
9.45 -0.190311
9.46 -0.186455
9.47 -0.182733
9.48 -0.179185
9.49 -0.175843
9.5 -0.172744
9.51 -0.169889
9.52 -0.167257
9.53 -0.16482
9.54 -0.162537
9.55 -0.160352
9.56 -0.158196
9.57 -0.155968
9.58 -0.153573
9.59 -0.150911
9.6 -0.147875
9.61 -0.144361
9.62 -0.140264
9.63 -0.135438
9.64 -0.129788
9.65 -0.123275
9.66 -0.115839
9.67 -0.107436
9.68 -0.0980381
9.69 -0.0876365
9.7 -0.0761292
9.71 -0.0636633
9.72 -0.0502899
9.73 -0.0360743
9.74 -0.021095
9.75 -0.00544182
9.76 0.0108107
9.77 0.0275485
9.78 0.0446274
9.79 0.0619403
9.8 0.0793835
9.81 0.096859
9.82 0.114276
9.83 0.131532
9.84 0.148564
9.85 0.165319
9.86 0.181751
9.87 0.197829
9.88 0.213531
9.89 0.22883
9.9 0.243706
9.91 0.258194
9.92 0.272301
9.93 0.286037
9.94 0.299412
9.95 0.312434
9.96 0.325074
9.97 0.337355
9.98 0.349276
9.99 0.360821
10 0.371968
10.01 0.382687
10.02 0.392926
10.03 0.402607
10.04 0.411726
10.05 0.420231
10.06 0.428074
10.07 0.435207
10.08 0.441584
10.09 0.447099
10.1 0.451754
10.11 0.455558
10.12 0.458502
10.13 0.460587
10.14 0.461831
10.15 0.462246
10.16 0.461817
10.17 0.460681
10.18 0.458904
10.19 0.456563
10.2 0.453741
10.21 0.450528
10.22 0.447003
10.23 0.443283
10.24 0.439472
10.25 0.435661
10.26 0.431932
10.27 0.428362
10.28 0.425016
10.29 0.421983
10.3 0.419275
10.31 0.416915
10.32 0.414915
10.33 0.413269
10.34 0.411962
10.35 0.410976
10.36 0.41026
10.37 0.409739
10.38 0.409346
10.39 0.409006
10.4 0.40864
10.41 0.408161
10.42 0.407449
10.43 0.406428
10.44 0.405011
10.45 0.403114
10.46 0.400656
10.47 0.397561
10.48 0.393723
10.49 0.389058
10.5 0.383565
10.51 0.377202
10.52 0.369939
10.53 0.361753
10.54 0.352634
10.55 0.342486
10.56 0.331402
10.57 0.319418
10.58 0.306564
10.59 0.292881
10.6 0.278418
10.61 0.263205
10.62 0.247289
10.63 0.230798
10.64 0.21381
10.65 0.196404
10.66 0.178665
10.67 0.160678
10.68 0.142523
10.69 0.124305
10.7 0.106113
10.71 0.088023
10.72 0.0701103
10.73 0.0524418
10.74 0.035087
10.75 0.0181251
10.76 0.00156654
10.77 -0.0145603
10.78 -0.0302377
10.79 -0.0454592
10.8 -0.0602289
10.81 -0.0745289
10.82 -0.0884073
10.83 -0.101916
10.84 -0.115099
10.85 -0.128006
10.86 -0.140689
10.87 -0.153203
10.88 -0.165603
10.89 -0.177958
10.9 -0.190318
10.91 -0.202729
10.92 -0.215228
10.93 -0.227841
10.94 -0.240598
10.95 -0.253501
10.96 -0.266534
10.97 -0.279678
10.98 -0.292901
10.99 -0.306159
11 -0.319397
11.01 -0.332538
11.02 -0.345512
11.03 -0.358243
11.04 -0.370651
11.05 -0.382656
11.06 -0.394179
11.07 -0.405107
11.08 -0.415358
11.09 -0.424905
11.1 -0.433695
11.11 -0.441686
11.12 -0.448846
11.13 -0.455153
11.14 -0.460505
11.15 -0.464993
11.16 -0.468638
11.17 -0.471462
11.18 -0.473495
11.19 -0.474774
11.2 -0.475306
11.21 -0.475123
11.22 -0.474315
11.23 -0.472923
11.24 -0.47098
11.25 -0.468516
11.26 -0.465554
11.27 -0.462063
11.28 -0.458089
11.29 -0.453637
11.3 -0.448697
11.31 -0.443253
11.32 -0.437281
11.33 -0.430733
11.34 -0.423546
11.35 -0.415734
11.36 -0.407267
11.37 -0.398117
11.38 -0.388261
11.39 -0.377682
11.4 -0.366309
11.41 -0.354188
11.42 -0.341356
11.43 -0.327837
11.44 -0.31367
11.45 -0.298903
11.46 -0.283583
11.47 -0.267756
11.48 -0.251551
11.49 -0.235053
11.5 -0.218352
11.51 -0.201539
11.52 -0.184709
11.53 -0.167964
11.54 -0.151402
11.55 -0.1351
11.56 -0.119134
11.57 -0.103568
11.58 -0.0884588
11.59 -0.0738605
11.6 -0.059861
11.61 -0.0464302
11.62 -0.0335811
11.63 -0.0213179
11.64 -0.00963647
11.65 0.0014741
11.66 0.0119951
11.67 0.0219594
11.68 0.0314187
11.69 0.0403981
11.7 0.0489217
11.71 0.0570124
11.72 0.0646898
11.73 0.0719276
11.74 0.0787852
11.75 0.0852708
11.76 0.0913885
11.77 0.0971393
11.78 0.102521
11.79 0.107508
11.8 0.11209
11.81 0.116284
11.82 0.120085
11.83 0.123487
11.84 0.126489
11.85 0.129092
11.86 0.131258
11.87 0.133036
11.88 0.134443
11.89 0.135496
11.9 0.136213
11.91 0.136616
11.92 0.136718
11.93 0.136536
11.94 0.136113
11.95 0.135469
11.96 0.134618
11.97 0.13357
11.98 0.132329
11.99 0.130871
12 0.129198
12.01 0.12729
12.02 0.125119
12.03 0.122645
12.04 0.119823
12.05 0.116585
12.06 0.112842
12.07 0.108566
12.08 0.103695
12.09 0.0981647
12.1 0.0919165
12.11 0.0848948
12.12 0.0769772
12.13 0.0681657
12.14 0.0584605
12.15 0.0478486
12.16 0.0363304
