# xPDFsuite Configuration #
[PDF]
wavelength = 0.1
dataformat = QA
inputfile = BiMsol6_insitu_700 C-00374.xy
backgroundfile = Quartz2mm-dist500-00000.xy
mode = xray
bgscale = 0.0042
composition = Bi2Fe4O9
outputtype = gr
qmaxinst = 24.998449118
qmin = 0.1
qmax = 21.4986662415
rmax = 80.0
rmin = 0.0
rstep = 0.01
rpoly = 0.9

[Misc]
inputdir = C:/Data/Seafile/CPH/Beamtime/Desy Oct 20/In situ data/Processed/BiMsol6/PDF
savedir = C:/Data/Seafile/CPH/Beamtime/Desy Oct 20/In situ data/PDF/BiMsol6
backgroundfilefull = C:/Data/Seafile/CPH/Beamtime/Desy Oct 20/In situ data/Processed/Standard_Empty_Cap/Quartz2mm-dist500-00000.xy

#### start data
#S 1
#L r($\AA$)  G($\AA^{-2}$)
0 0
0.01 0.00724359
0.02 0.0140844
0.03 0.0201775
0.04 0.0252133
0.05 0.0289311
0.06 0.0311318
0.07 0.0315967
0.08 0.0302599
0.09 0.0272783
0.1 0.02278
0.11 0.0169652
0.12 0.0100975
0.13 0.00249244
0.14 -0.00549735
0.15 -0.0134205
0.16 -0.0208971
0.17 -0.0275696
0.18 -0.0331162
0.19 -0.0372662
0.2 -0.0397409
0.21 -0.0403459
0.22 -0.0391813
0.23 -0.0363125
0.24 -0.0318908
0.25 -0.0261495
0.26 -0.0193941
0.27 -0.0119693
0.28 -0.0043862
0.29 0.00290045
0.3 0.0094484
0.31 0.0148352
0.32 0.0186785
0.33 0.0205902
0.34 0.0201878
0.35 0.0175132
0.36 0.01255
0.37 0.00539509
0.38 -0.00373924
0.39 -0.0145282
0.4 -0.0265994
0.41 -0.0392869
0.42 -0.051935
0.43 -0.0638774
0.44 -0.0744223
0.45 -0.0828778
0.46 -0.0885119
0.47 -0.0903839
0.48 -0.0882708
0.49 -0.0817806
0.5 -0.0706522
0.51 -0.0547712
0.52 -0.0341809
0.53 -0.00878961
0.54 0.0208237
0.55 0.0538878
0.56 0.0896872
0.57 0.127381
0.58 0.166028
0.59 0.2046
0.6 0.24179
0.61 0.276557
0.62 0.307861
0.63 0.334728
0.64 0.356277
0.65 0.371757
0.66 0.380123
0.67 0.380949
0.68 0.374418
0.69 0.360538
0.7 0.339515
0.71 0.311747
0.72 0.277819
0.73 0.237962
0.74 0.193784
0.75 0.146334
0.76 0.0967214
0.77 0.0461001
0.78 -0.00437006
0.79 -0.053434
0.8 -0.0998343
0.81 -0.142722
0.82 -0.181278
0.83 -0.214834
0.84 -0.24289
0.85 -0.265123
0.86 -0.280784
0.87 -0.290493
0.88 -0.294599
0.89 -0.293532
0.9 -0.287857
0.91 -0.278259
0.92 -0.265423
0.93 -0.250222
0.94 -0.233759
0.95 -0.216894
0.96 -0.200452
0.97 -0.185193
0.98 -0.171791
0.99 -0.161077
1 -0.153359
1.01 -0.148848
1.02 -0.147678
1.03 -0.149846
1.04 -0.155218
1.05 -0.163614
1.06 -0.174772
1.07 -0.187973
1.08 -0.202692
1.09 -0.218375
1.1 -0.234451
1.11 -0.250364
1.12 -0.265491
1.13 -0.279344
1.14 -0.291567
1.15 -0.301866
1.16 -0.310041
1.17 -0.315991
1.18 -0.319675
1.19 -0.321031
1.2 -0.320481
1.21 -0.318296
1.22 -0.314804
1.23 -0.310372
1.24 -0.305389
1.25 -0.300265
1.26 -0.29543
1.27 -0.291222
1.28 -0.287925
1.29 -0.28576
1.3 -0.284874
1.31 -0.285348
1.32 -0.287304
1.33 -0.290488
1.34 -0.294721
1.35 -0.299769
1.36 -0.305346
1.37 -0.311131
1.38 -0.316756
1.39 -0.321824
1.4 -0.326024
1.41 -0.329066
1.42 -0.330708
1.43 -0.330768
1.44 -0.329132
1.45 -0.325572
1.46 -0.320334
1.47 -0.313566
1.48 -0.305482
1.49 -0.296358
1.5 -0.286526
1.51 -0.276362
1.52 -0.266329
1.53 -0.256852
1.54 -0.248327
1.55 -0.241119
1.56 -0.23555
1.57 -0.23188
1.58 -0.230525
1.59 -0.231412
1.6 -0.234507
1.61 -0.23972
1.62 -0.246874
1.63 -0.255708
1.64 -0.265924
1.65 -0.277102
1.66 -0.288686
1.67 -0.300191
1.68 -0.311127
1.69 -0.321009
1.7 -0.329379
1.71 -0.335617
1.72 -0.339458
1.73 -0.340695
1.74 -0.339154
1.75 -0.334751
1.76 -0.3275
1.77 -0.317445
1.78 -0.304657
1.79 -0.289692
1.8 -0.272927
1.81 -0.254797
1.82 -0.235779
1.83 -0.216371
1.84 -0.197132
1.85 -0.178612
1.86 -0.161259
1.87 -0.145478
1.88 -0.131608
1.89 -0.119916
1.9 -0.110621
1.91 -0.104031
1.92 -0.09988
1.93 -0.0980592
1.94 -0.0983777
1.95 -0.100572
1.96 -0.104319
1.97 -0.109296
1.98 -0.115017
1.99 -0.121006
2 -0.126848
2.01 -0.132151
2.02 -0.136563
2.03 -0.139776
2.04 -0.141373
2.05 -0.14135
2.06 -0.139642
2.07 -0.136262
2.08 -0.131307
2.09 -0.124946
2.1 -0.117371
2.11 -0.108931
2.12 -0.100051
2.13 -0.091115
2.14 -0.0825218
2.15 -0.0746681
2.16 -0.0679339
2.17 -0.0628616
2.18 -0.0596242
2.19 -0.058439
2.2 -0.0594668
2.21 -0.0627944
2.22 -0.0684319
2.23 -0.0764071
2.24 -0.0866017
2.25 -0.0986278
2.26 -0.112199
2.27 -0.126982
2.28 -0.142607
2.29 -0.158686
2.3 -0.174786
2.31 -0.190474
2.32 -0.205388
2.33 -0.219204
2.34 -0.231647
2.35 -0.242498
2.36 -0.251538
2.37 -0.258589
2.38 -0.263799
2.39 -0.267235
2.4 -0.269031
2.41 -0.269375
2.42 -0.268504
2.43 -0.266637
2.44 -0.264173
2.45 -0.261456
2.46 -0.258803
2.47 -0.256519
2.48 -0.254883
2.49 -0.254166
2.5 -0.254669
2.51 -0.25644
2.52 -0.259562
2.53 -0.264061
2.54 -0.269905
2.55 -0.27701
2.56 -0.285311
2.57 -0.294561
2.58 -0.304492
2.59 -0.314859
2.6 -0.3254
2.61 -0.335852
2.62 -0.345949
2.63 -0.355363
2.64 -0.363923
2.65 -0.371447
2.66 -0.377791
2.67 -0.38285
2.68 -0.386564
2.69 -0.388825
2.7 -0.389682
2.71 -0.389272
2.72 -0.387693
2.73 -0.385066
2.74 -0.38153
2.75 -0.377232
2.76 -0.372267
2.77 -0.366862
2.78 -0.361141
2.79 -0.355211
2.8 -0.34915
2.81 -0.343011
2.82 -0.33681
2.83 -0.330529
2.84 -0.324125
2.85 -0.317521
2.86 -0.310621
2.87 -0.303311
2.88 -0.295466
2.89 -0.28687
2.9 -0.27745
2.91 -0.267099
2.92 -0.255722
2.93 -0.243245
2.94 -0.229624
2.95 -0.214797
2.96 -0.198758
2.97 -0.181659
2.98 -0.163598
2.99 -0.144708
3 -0.125145
3.01 -0.105092
3.02 -0.0847395
3.03 -0.0643431
3.04 -0.0441206
3.05 -0.0242783
3.06 -0.00500936
3.07 0.0135124
3.08 0.0311059
3.09 0.0475875
3.1 0.062962
3.11 0.0771927
3.12 0.090281
3.13 0.102266
3.14 0.113221
3.15 0.123185
3.16 0.132363
3.17 0.140944
3.18 0.149102
3.19 0.157019
3.2 0.164877
3.21 0.172856
3.22 0.181156
3.23 0.189896
3.24 0.199186
3.25 0.209103
3.26 0.219692
3.27 0.230962
3.28 0.242933
3.29 0.255512
3.3 0.268572
3.31 0.281989
3.32 0.295613
3.33 0.309282
3.34 0.322816
3.35 0.335983
3.36 0.348625
3.37 0.360573
3.38 0.371676
3.39 0.381802
3.4 0.390845
3.41 0.398647
3.42 0.405168
3.43 0.41046
3.44 0.414546
3.45 0.417476
3.46 0.419329
3.47 0.420208
3.48 0.420155
3.49 0.419423
3.5 0.418167
3.51 0.416546
3.52 0.414721
3.53 0.412846
3.54 0.411081
3.55 0.409581
3.56 0.408452
3.57 0.40779
3.58 0.407669
3.59 0.408146
3.6 0.409253
3.61 0.411072
3.62 0.413534
3.63 0.416608
3.64 0.420254
3.65 0.424422
3.66 0.429054
3.67 0.434101
3.68 0.439499
3.69 0.445152
3.7 0.450997
3.71 0.456972
3.72 0.463025
3.73 0.469103
3.74 0.475159
3.75 0.48115
3.76 0.487045
3.77 0.492812
3.78 0.498423
3.79 0.50385
3.8 0.509055
3.81 0.513987
3.82 0.518627
3.83 0.52293
3.84 0.526845
3.85 0.530316
3.86 0.533277
3.87 0.535604
3.88 0.537236
3.89 0.53811
3.9 0.538142
3.91 0.537244
3.92 0.53533
3.93 0.532297
3.94 0.527963
3.95 0.522368
3.96 0.515456
3.97 0.507177
3.98 0.497496
3.99 0.486393
4 0.473758
4.01 0.459638
4.02 0.444126
4.03 0.427261
4.04 0.409096
4.05 0.389697
4.06 0.369132
4.07 0.34739
4.08 0.32469
4.09 0.301136
4.1 0.276833
4.11 0.25189
4.12 0.226418
4.13 0.200511
4.14 0.174297
4.15 0.147907
4.16 0.121449
4.17 0.0950249
4.18 0.0687369
4.19 0.0426823
4.2 0.017003
4.21 -0.00823757
4.22 -0.032954
4.23 -0.0570633
4.24 -0.0804859
4.25 -0.103147
4.26 -0.124931
4.27 -0.145748
4.28 -0.165597
4.29 -0.184427
4.3 -0.202196
4.31 -0.218869
4.32 -0.234422
4.33 -0.248724
4.34 -0.261873
4.35 -0.273898
4.36 -0.284821
4.37 -0.294679
4.38 -0.303518
4.39 -0.311361
4.4 -0.31825
4.41 -0.324336
4.42 -0.329704
4.43 -0.334442
4.44 -0.338638
4.45 -0.342384
4.46 -0.345741
4.47 -0.348824
4.48 -0.351716
4.49 -0.35448
4.5 -0.35717
4.51 -0.359826
4.52 -0.362476
4.53 -0.365135
4.54 -0.367799
4.55 -0.370454
4.56 -0.37307
4.57 -0.375611
4.58 -0.378031
4.59 -0.380261
4.6 -0.382245
4.61 -0.383935
4.62 -0.385278
4.63 -0.386228
4.64 -0.386745
4.65 -0.386792
4.66 -0.38631
4.67 -0.385344
4.68 -0.383908
4.69 -0.382029
4.7 -0.379747
4.71 -0.377118
4.72 -0.374193
4.73 -0.371067
4.74 -0.367837
4.75 -0.364594
4.76 -0.361429
4.77 -0.358434
4.78 -0.355697
4.79 -0.353344
4.8 -0.351413
4.81 -0.349962
4.82 -0.349034
4.83 -0.348661
4.84 -0.348857
4.85 -0.349655
4.86 -0.351035
4.87 -0.352932
4.88 -0.355303
4.89 -0.35809
4.9 -0.361232
4.91 -0.364659
4.92 -0.368312
4.93 -0.372088
4.94 -0.37591
4.95 -0.37971
4.96 -0.383421
4.97 -0.386986
4.98 -0.390341
4.99 -0.393432
5 -0.39624
5.01 -0.39874
5.02 -0.400914
5.03 -0.402746
5.04 -0.404229
5.05 -0.405319
5.06 -0.406037
5.07 -0.406381
5.08 -0.406338
5.09 -0.405889
5.1 -0.405011
5.11 -0.403652
5.12 -0.401741
5.13 -0.399262
5.14 -0.396156
5.15 -0.392352
5.16 -0.387775
5.17 -0.382343
5.18 -0.37588
5.19 -0.368346
5.2 -0.359684
5.21 -0.349812
5.22 -0.338657
5.23 -0.326152
5.24 -0.312208
5.25 -0.296679
5.26 -0.279672
5.27 -0.261179
5.28 -0.241208
5.29 -0.219782
5.3 -0.196942
5.31 -0.172646
5.32 -0.147026
5.33 -0.120224
5.34 -0.0923395
5.35 -0.0634812
5.36 -0.033766
5.37 -0.00330863
5.38 0.0278021
5.39 0.0593623
5.4 0.0912408
5.41 0.123307
5.42 0.15543
5.43 0.187482
5.44 0.219315
5.45 0.250789
5.46 0.281792
5.47 0.312204
5.48 0.341902
5.49 0.370766
5.5 0.39867
5.51 0.425354
5.52 0.450806
5.53 0.474898
5.54 0.497501
5.55 0.518485
5.56 0.53772
5.57 0.554967
5.58 0.570067
5.59 0.58302
5.6 0.593715
5.61 0.60205
5.62 0.607938
5.63 0.611306
5.64 0.611818
5.65 0.609694
5.66 0.604951
5.67 0.597607
5.68 0.587703
5.69 0.575306
5.7 0.560409
5.71 0.543082
5.72 0.523644
5.73 0.502262
5.74 0.479117
5.75 0.454408
5.76 0.428342
5.77 0.401046
5.78 0.372852
5.79 0.343999
5.8 0.314699
5.81 0.285155
5.82 0.255557
5.83 0.226091
5.84 0.196949
5.85 0.168253
5.86 0.140116
5.87 0.112634
5.88 0.0858835
5.89 0.0599211
5.9 0.0348623
5.91 0.0106903
5.92 -0.0126073
5.93 -0.0350244
5.94 -0.0565596
5.95 -0.0772126
5.96 -0.0969626
5.97 -0.115737
5.98 -0.133606
5.99 -0.150547
6 -0.166527
6.01 -0.181503
6.02 -0.195423
6.03 -0.208135
6.04 -0.219595
6.05 -0.229772
6.06 -0.238587
6.07 -0.24596
6.08 -0.251814
6.09 -0.25606
6.1 -0.258474
6.11 -0.259184
6.12 -0.258161
6.13 -0.255399
6.14 -0.25091
6.15 -0.244728
6.16 -0.236813
6.17 -0.227279
6.18 -0.21632
6.19 -0.204065
6.2 -0.190662
6.21 -0.176271
6.22 -0.161067
6.23 -0.145181
6.24 -0.128888
6.25 -0.112376
6.26 -0.0958261
6.27 -0.0794094
6.28 -0.063286
6.29 -0.0476298
6.3 -0.0325881
6.31 -0.0182297
6.32 -0.00462954
6.33 0.00816083
6.34 0.020114
6.35 0.0312258
6.36 0.041432
6.37 0.0508574
6.38 0.0595739
6.39 0.0676598
6.4 0.0752055
6.41 0.0823115
6.42 0.0890752
6.43 0.0956152
6.44 0.102065
6.45 0.108531
6.46 0.115115
6.47 0.121911
6.48 0.129001
6.49 0.136502
6.5 0.144454
6.51 0.152895
6.52 0.161861
6.53 0.171377
6.54 0.181456
6.55 0.192117
6.56 0.203386
6.57 0.215196
6.58 0.227527
6.59 0.240351
6.6 0.253636
6.61 0.267347
6.62 0.281473
6.63 0.295948
6.64 0.310714
6.65 0.325726
6.66 0.340933
6.67 0.356284
6.68 0.371724
6.69 0.387188
6.7 0.402605
6.71 0.417906
6.72 0.433019
6.73 0.447864
6.74 0.46236
6.75 0.476379
6.76 0.489827
6.77 0.502629
6.78 0.514685
6.79 0.525893
6.8 0.536152
6.81 0.545353
6.82 0.553268
6.83 0.559922
6.84 0.565224
6.85 0.569095
6.86 0.571458
6.87 0.572249
6.88 0.57131
6.89 0.568598
6.9 0.564173
6.91 0.558013
6.92 0.550109
6.93 0.540458
6.94 0.529072
6.95 0.515776
6.96 0.500792
6.97 0.484163
6.98 0.465931
6.99 0.446146
7 0.424863
7.01 0.40207
7.02 0.377819
7.03 0.35227
7.04 0.325496
7.05 0.297569
7.06 0.268567
7.07 0.238573
7.08 0.207585
7.09 0.175786
7.1 0.143286
7.11 0.110185
7.12 0.0765919
7.13 0.0426201
7.14 0.00838452
7.15 -0.0259758
7.16 -0.0603102
7.17 -0.094482
7.18 -0.128351
7.19 -0.161776
7.2 -0.194613
7.21 -0.22664
7.22 -0.257754
7.23 -0.287839
7.24 -0.316772
7.25 -0.344437
7.26 -0.370731
7.27 -0.395521
7.28 -0.418628
7.29 -0.44013
7.3 -0.459989
7.31 -0.478184
7.32 -0.494712
7.33 -0.50959
7.34 -0.522721
7.35 -0.534234
7.36 -0.544253
7.37 -0.552855
7.38 -0.560126
7.39 -0.566162
7.4 -0.571044
7.41 -0.574801
7.42 -0.577647
7.43 -0.57968
7.44 -0.580995
7.45 -0.581678
7.46 -0.581806
7.47 -0.581419
7.48 -0.580591
7.49 -0.579387
7.5 -0.577836
7.51 -0.575959
7.52 -0.573761
7.53 -0.57124
7.54 -0.568347
7.55 -0.565095
7.56 -0.561459
7.57 -0.557407
7.58 -0.552905
7.59 -0.54792
7.6 -0.542384
7.61 -0.536263
7.62 -0.529558
7.63 -0.522249
7.64 -0.514317
7.65 -0.505754
7.66 -0.496554
7.67 -0.486652
7.68 -0.476129
7.69 -0.465006
7.7 -0.45331
7.71 -0.441072
7.72 -0.42833
7.73 -0.415107
7.74 -0.40145
7.75 -0.387441
7.76 -0.373137
7.77 -0.358597
7.78 -0.34388
7.79 -0.32905
7.8 -0.314173
7.81 -0.299325
7.82 -0.284574
7.83 -0.269986
7.84 -0.255628
7.85 -0.241566
7.86 -0.227882
7.87 -0.214668
7.88 -0.201955
7.89 -0.189803
7.9 -0.178268
7.91 -0.167403
7.92 -0.157255
7.93 -0.147939
7.94 -0.139449
7.95 -0.13179
7.96 -0.124985
7.97 -0.119047
7.98 -0.113982
7.99 -0.10981
8 -0.106575
8.01 -0.104178
8.02 -0.102591
8.03 -0.101782
8.04 -0.101711
8.05 -0.102335
8.06 -0.103653
8.07 -0.105583
8.08 -0.108048
8.09 -0.110999
8.1 -0.114385
8.11 -0.118159
8.12 -0.122281
8.13 -0.126732
8.14 -0.131442
8.15 -0.136381
8.16 -0.141519
8.17 -0.146834
8.18 -0.152303
8.19 -0.157913
8.2 -0.163641
8.21 -0.169458
8.22 -0.175341
8.23 -0.181261
8.24 -0.187186
8.25 -0.193075
8.26 -0.198865
8.27 -0.204501
8.28 -0.209915
8.29 -0.21503
8.3 -0.21976
8.31 -0.224009
8.32 -0.227636
8.33 -0.230513
8.34 -0.232565
8.35 -0.233677
8.36 -0.233738
8.37 -0.232639
8.38 -0.230278
8.39 -0.226405
8.4 -0.221071
8.41 -0.214222
8.42 -0.205811
8.43 -0.195806
8.44 -0.184197
8.45 -0.17092
8.46 -0.155965
8.47 -0.139497
8.48 -0.121582
8.49 -0.102301
8.5 -0.0817507
8.51 -0.0600354
8.52 -0.0371777
8.53 -0.0133934
8.54 0.0111773
8.55 0.0364156
8.56 0.0622068
8.57 0.0884434
8.58 0.115036
8.59 0.141897
8.6 0.168929
8.61 0.196071
8.62 0.223274
8.63 0.250504
8.64 0.277735
8.65 0.304947
8.66 0.332131
8.67 0.359282
8.68 0.386393
8.69 0.413457
8.7 0.44046
8.71 0.467377
8.72 0.494162
8.73 0.520773
8.74 0.547146
8.75 0.573198
8.76 0.598833
8.77 0.623935
8.78 0.648314
8.79 0.671826
8.8 0.694341
8.81 0.71569
8.82 0.735701
8.83 0.754196
8.84 0.770981
8.85 0.785693
8.86 0.798357
8.87 0.808828
8.88 0.816982
8.89 0.82271
8.9 0.825926
8.91 0.826399
8.92 0.824121
8.93 0.81922
8.94 0.811712
8.95 0.801637
8.96 0.789057
8.97 0.774049
8.98 0.756455
8.99 0.736669
9 0.714814
9.01 0.691019
9.02 0.66542
9.03 0.638151
9.04 0.609269
9.05 0.578911
9.06 0.547295
9.07 0.514538
9.08 0.480747
9.09 0.446027
9.1 0.410472
9.11 0.374106
9.12 0.337096
9.13 0.299537
9.14 0.261516
9.15 0.223124
9.16 0.18446
9.17 0.145625
9.18 0.106751
9.19 0.0679759
9.2 0.0294405
9.21 -0.00870297
9.22 -0.0462902
9.23 -0.0831462
9.24 -0.11898
9.25 -0.153644
9.26 -0.186962
9.27 -0.218735
9.28 -0.248767
9.29 -0.276867
9.3 -0.302785
9.31 -0.326209
9.32 -0.347179
9.33 -0.365571
9.34 -0.381285
9.35 -0.394245
9.36 -0.404403
9.37 -0.411501
9.38 -0.4157
9.39 -0.417133
9.4 -0.415866
9.41 -0.41199
9.42 -0.405615
9.43 -0.396825
9.44 -0.385614
9.45 -0.372362
9.46 -0.357232
9.47 -0.340388
9.48 -0.321993
9.49 -0.302205
9.5 -0.281097
9.51 -0.258867
9.52 -0.235699
9.53 -0.211712
9.54 -0.187013
9.55 -0.161697
9.56 -0.135848
9.57 -0.109507
9.58 -0.0827987
9.59 -0.0557891
9.6 -0.0285433
9.61 -0.0011272
9.62 0.0263892
9.63 0.0539262
9.64 0.0813855
9.65 0.108671
9.66 0.135675
9.67 0.162282
9.68 0.188363
9.69 0.213781
9.7 0.23828
9.71 0.261786
9.72 0.284145
9.73 0.305203
9.74 0.32481
9.75 0.342823
9.76 0.359015
9.77 0.373227
9.78 0.385479
9.79 0.395698
9.8 0.403834
9.81 0.409862
9.82 0.413783
9.83 0.415413
9.84 0.415005
9.85 0.412672
9.86 0.408518
9.87 0.40267
9.88 0.395271
9.89 0.386425
9.9 0.376278
9.91 0.365103
9.92 0.35307
9.93 0.340343
9.94 0.327079
9.95 0.313424
9.96 0.299495
9.97 0.285433
9.98 0.271335
9.99 0.257272
10 0.243295
10.01 0.229434
10.02 0.215707
10.03 0.202117
10.04 0.188631
10.05 0.175218
10.06 0.161841
10.07 0.148455
10.08 0.135018
10.09 0.121476
10.1 0.107794
10.11 0.0939488
10.12 0.0799243
10.13 0.0657166
10.14 0.0513348
10.15 0.0367997
10.16 0.0221447
10.17 0.00743688
10.18 -0.00725975
10.19 -0.0218719
10.2 -0.0363189
10.21 -0.0505153
10.22 -0.0643432
10.23 -0.0777126
10.24 -0.0905578
10.25 -0.102804
10.26 -0.114386
10.27 -0.12525
10.28 -0.13535
10.29 -0.144578
10.3 -0.153012
10.31 -0.160662
10.32 -0.167551
10.33 -0.173721
10.34 -0.179223
10.35 -0.18409
10.36 -0.188411
10.37 -0.192304
10.38 -0.195855
10.39 -0.199155
10.4 -0.202291
10.41 -0.205351
10.42 -0.208424
10.43 -0.211587
10.44 -0.214904
10.45 -0.218425
10.46 -0.22219
10.47 -0.226228
10.48 -0.23057
10.49 -0.235223
10.5 -0.24016
10.51 -0.245361
10.52 -0.250798
10.53 -0.256435
10.54 -0.262233
10.55 -0.268152
10.56 -0.27413
10.57 -0.280118
10.58 -0.286068
10.59 -0.291936
10.6 -0.297679
10.61 -0.303253
10.62 -0.308615
10.63 -0.313752
10.64 -0.318645
10.65 -0.323281
10.66 -0.327652
10.67 -0.331754
10.68 -0.335567
10.69 -0.339115
10.7 -0.342415
10.71 -0.345482
10.72 -0.348331
10.73 -0.350979
10.74 -0.35344
10.75 -0.355725
10.76 -0.357869
10.77 -0.35989
10.78 -0.361806
10.79 -0.363634
10.8 -0.365392
10.81 -0.367091
10.82 -0.36875
10.83 -0.370385
10.84 -0.372009
10.85 -0.373633
10.86 -0.375267
10.87 -0.376921
10.88 -0.378605
10.89 -0.380323
10.9 -0.382076
10.91 -0.383865
10.92 -0.385687
10.93 -0.387536
10.94 -0.389403
10.95 -0.391271
10.96 -0.393119
10.97 -0.394925
10.98 -0.396661
10.99 -0.398294
11 -0.399787
11.01 -0.401076
11.02 -0.402134
11.03 -0.402914
11.04 -0.403369
11.05 -0.40345
11.06 -0.403109
11.07 -0.40227
11.08 -0.400879
11.09 -0.398926
11.1 -0.396374
11.11 -0.393193
11.12 -0.389358
11.13 -0.384853
11.14 -0.379589
11.15 -0.373638
11.16 -0.36701
11.17 -0.35972
11.18 -0.351789
11.19 -0.343246
11.2 -0.334101
11.21 -0.324387
11.22 -0.31419
11.23 -0.303559
11.24 -0.292547
11.25 -0.281205
11.26 -0.269586
11.27 -0.257726
11.28 -0.245698
11.29 -0.233554
11.3 -0.221336
11.31 -0.209085
11.32 -0.196834
11.33 -0.184617
11.34 -0.172463
11.35 -0.160386
11.36 -0.1484
11.37 -0.136511
11.38 -0.124723
11.39 -0.113032
11.4 -0.101439
11.41 -0.0899261
11.42 -0.0784746
11.43 -0.0670662
11.44 -0.0556794
11.45 -0.0442906
11.46 -0.0328724
11.47 -0.0213899
11.48 -0.00981692
11.49 0.00187633
11.5 0.0137203
11.51 0.0257455
11.52 0.0379821
11.53 0.0504806
11.54 0.063264
11.55 0.0763489
11.56 0.0897594
11.57 0.103517
11.58 0.117639
11.59 0.132145
11.6 0.14708
11.61 0.162408
11.62 0.178126
11.63 0.194224
11.64 0.210688
11.65 0.227495
11.66 0.244632
11.67 0.262054
11.68 0.279697
11.69 0.297509
11.7 0.315432
11.71 0.3334
11.72 0.351344
11.73 0.36917
11.74 0.386802
11.75 0.404162
11.76 0.421166
11.77 0.437733
11.78 0.453784
11.79 0.469201
11.8 0.483893
11.81 0.497829
11.82 0.510941
11.83 0.523169
11.84 0.534459
11.85 0.544761
11.86 0.553917
11.87 0.561988
11.88 0.568954
11.89 0.574789
11.9 0.579472
11.91 0.582986
11.92 0.585264
11.93 0.586258
11.94 0.586046
11.95 0.58462
11.96 0.581975
11.97 0.578104
11.98 0.573003
11.99 0.566549
12 0.558834
12.01 0.549883
12.02 0.5397
12.03 0.528291
12.04 0.515667
12.05 0.501808
12.06 0.486682
12.07 0.470424
12.08 0.453076
12.09 0.434694
12.1 0.415341
12.11 0.395093
12.12 0.373978
12.13 0.352152
12.14 0.329753
12.15 0.306904
12.16 0.283738
12.17 0.260395
12.18 0.237023
12.19 0.213802
12.2 0.190884
12.21 0.16842
12.22 0.146559
12.23 0.125444
12.24 0.105206
12.25 0.0860554
12.26 0.0680816
12.27 0.0513342
