# xPDFsuite Configuration #
[PDF]
wavelength = 0.1
dataformat = QA
inputfile = BiMsol6_insitu_700 C-00620.xy
backgroundfile = Quartz2mm-dist500-00000.xy
mode = xray
bgscale = 0.0042
composition = Bi2Fe4O9
outputtype = gr
qmaxinst = 24.998449118
qmin = 0.1
qmax = 21.4986662415
rmax = 80.0
rmin = 0.0
rstep = 0.01
rpoly = 0.9

[Misc]
inputdir = C:/Data/Seafile/CPH/Beamtime/Desy Oct 20/In situ data/Processed/BiMsol6/PDF
savedir = C:/Data/Seafile/CPH/Beamtime/Desy Oct 20/In situ data/PDF/BiMsol6
backgroundfilefull = C:/Data/Seafile/CPH/Beamtime/Desy Oct 20/In situ data/Processed/Standard_Empty_Cap/Quartz2mm-dist500-00000.xy

#### start data
#S 1
#L r($\AA$)  G($\AA^{-2}$)
0 0
0.01 0.00646787
0.02 0.012571
0.03 0.0179974
0.04 0.0224668
0.05 0.0257438
0.06 0.0276492
0.07 0.0279862
0.08 0.0266972
0.09 0.0239259
0.1 0.0197902
0.11 0.0144735
0.12 0.00821656
0.13 0.0013067
0.14 -0.00593363
0.15 -0.0130966
0.16 -0.0198383
0.17 -0.025836
0.18 -0.0308003
0.19 -0.0344887
0.2 -0.0366522
0.21 -0.0371199
0.22 -0.0359883
0.23 -0.0333221
0.24 -0.0292643
0.25 -0.0240316
0.26 -0.0179064
0.27 -0.0112084
0.28 -0.00440237
0.29 0.00209847
0.3 0.0078931
0.31 0.0126
0.32 0.0158759
0.33 0.0173734
0.34 0.0167523
0.35 0.0140615
0.36 0.00929608
0.37 0.0025545
0.38 -0.00595958
0.39 -0.0159404
0.4 -0.0270349
0.41 -0.0386305
0.42 -0.0501261
0.43 -0.0609113
0.44 -0.0703548
0.45 -0.0778281
0.46 -0.0826674
0.47 -0.0840195
0.48 -0.0816975
0.49 -0.0753566
0.5 -0.0647731
0.51 -0.0498584
0.52 -0.0306685
0.53 -0.00714031
0.54 0.0201811
0.55 0.0505795
0.56 0.0833896
0.57 0.117835
0.58 0.153048
0.59 0.188087
0.6 0.22175
0.61 0.253102
0.62 0.281202
0.63 0.305173
0.64 0.324225
0.65 0.337689
0.66 0.34463
0.67 0.34468
0.68 0.33803
0.69 0.324703
0.7 0.304905
0.71 0.279014
0.72 0.247576
0.73 0.210818
0.74 0.170202
0.75 0.126682
0.76 0.0812659
0.77 0.0349942
0.78 -0.0110892
0.79 -0.0558572
0.8 -0.0981871
0.81 -0.137329
0.82 -0.172561
0.83 -0.203298
0.84 -0.229104
0.85 -0.249705
0.86 -0.264449
0.87 -0.273902
0.88 -0.278387
0.89 -0.278293
0.9 -0.274131
0.91 -0.266511
0.92 -0.256042
0.93 -0.243492
0.94 -0.229827
0.95 -0.215799
0.96 -0.202118
0.97 -0.18944
0.98 -0.178338
0.99 -0.169514
1 -0.16322
1.01 -0.15962
1.02 -0.158814
1.03 -0.160781
1.04 -0.165388
1.05 -0.172463
1.06 -0.181759
1.07 -0.192662
1.08 -0.204723
1.09 -0.217467
1.1 -0.230414
1.11 -0.243102
1.12 -0.255011
1.13 -0.265755
1.14 -0.275062
1.15 -0.282711
1.16 -0.288566
1.17 -0.29257
1.18 -0.294723
1.19 -0.295014
1.2 -0.293817
1.21 -0.291382
1.22 -0.288002
1.23 -0.283993
1.24 -0.279687
1.25 -0.275431
1.26 -0.271569
1.27 -0.268357
1.28 -0.266005
1.29 -0.264666
1.3 -0.264428
1.31 -0.26532
1.32 -0.267396
1.33 -0.270406
1.34 -0.274169
1.35 -0.278457
1.36 -0.283008
1.37 -0.287539
1.38 -0.29172
1.39 -0.295224
1.4 -0.297815
1.41 -0.299272
1.42 -0.299421
1.43 -0.298146
1.44 -0.295394
1.45 -0.291021
1.46 -0.285287
1.47 -0.27836
1.48 -0.27046
1.49 -0.261856
1.5 -0.252855
1.51 -0.243804
1.52 -0.235105
1.53 -0.227094
1.54 -0.220089
1.55 -0.214369
1.56 -0.210165
1.57 -0.20765
1.58 -0.207114
1.59 -0.208426
1.6 -0.211491
1.61 -0.21617
1.62 -0.22225
1.63 -0.229456
1.64 -0.237472
1.65 -0.245887
1.66 -0.254235
1.67 -0.262099
1.68 -0.269069
1.69 -0.274758
1.7 -0.278815
1.71 -0.280741
1.72 -0.280402
1.73 -0.277706
1.74 -0.272585
1.75 -0.265053
1.76 -0.255206
1.77 -0.243171
1.78 -0.229109
1.79 -0.213539
1.8 -0.19683
1.81 -0.179388
1.82 -0.161635
1.83 -0.143999
1.84 -0.126964
1.85 -0.110939
1.86 -0.0962298
1.87 -0.083108
1.88 -0.071778
1.89 -0.0623718
1.9 -0.0549729
1.91 -0.049718
1.92 -0.0462868
1.93 -0.044495
1.94 -0.0441001
1.95 -0.0448128
1.96 -0.0463098
1.97 -0.0482531
1.98 -0.0502376
1.99 -0.0519131
2 -0.0529782
2.01 -0.0531745
2.02 -0.0522979
2.03 -0.0502032
2.04 -0.0466797
2.05 -0.0418934
2.06 -0.0359447
2.07 -0.0290056
2.08 -0.0213146
2.09 -0.0131672
2.1 -0.00492177
2.11 0.00298241
2.12 0.0101438
2.13 0.0161647
2.14 0.0206633
2.15 0.0232884
2.16 0.0237334
2.17 0.0214622
2.18 0.0165373
2.19 0.00889251
2.2 -0.0014749
2.21 -0.0144849
2.22 -0.0299761
2.23 -0.047797
2.24 -0.0676352
2.25 -0.0889502
2.26 -0.111315
2.27 -0.134273
2.28 -0.157351
2.29 -0.180076
2.3 -0.201869
2.31 -0.222325
2.32 -0.241093
2.33 -0.257861
2.34 -0.272387
2.35 -0.2845
2.36 -0.294024
2.37 -0.300836
2.38 -0.305232
2.39 -0.307372
2.4 -0.307481
2.41 -0.305838
2.42 -0.302768
2.43 -0.298567
2.44 -0.293719
2.45 -0.288632
2.46 -0.283673
2.47 -0.279182
2.48 -0.275466
2.49 -0.272814
2.5 -0.27154
2.51 -0.271677
2.52 -0.273294
2.53 -0.2764
2.54 -0.280941
2.55 -0.286811
2.56 -0.293925
2.57 -0.302008
2.58 -0.310774
2.59 -0.319961
2.6 -0.329299
2.61 -0.338518
2.62 -0.347352
2.63 -0.355477
2.64 -0.362735
2.65 -0.36896
2.66 -0.374024
2.67 -0.377846
2.68 -0.380388
2.69 -0.381574
2.7 -0.381484
2.71 -0.380276
2.72 -0.378076
2.73 -0.375033
2.74 -0.371313
2.75 -0.367094
2.76 -0.362536
2.77 -0.357866
2.78 -0.353243
2.79 -0.348807
2.8 -0.344675
2.81 -0.340939
2.82 -0.33769
2.83 -0.334966
2.84 -0.332738
2.85 -0.33098
2.86 -0.32964
2.87 -0.328652
2.88 -0.327933
2.89 -0.327396
2.9 -0.326918
2.91 -0.326397
2.92 -0.32574
2.93 -0.324863
2.94 -0.323691
2.95 -0.322145
2.96 -0.320159
2.97 -0.317731
2.98 -0.314843
2.99 -0.311487
3 -0.307661
3.01 -0.303372
3.02 -0.29858
3.03 -0.29332
3.04 -0.287597
3.05 -0.281394
3.06 -0.274681
3.07 -0.267414
3.08 -0.25951
3.09 -0.250843
3.1 -0.241371
3.11 -0.230988
3.12 -0.219576
3.13 -0.207013
3.14 -0.193175
3.15 -0.177816
3.16 -0.160889
3.17 -0.14235
3.18 -0.122132
3.19 -0.100197
3.2 -0.0765345
3.21 -0.051138
3.22 -0.0239603
3.23 0.00472337
3.24 0.0347623
3.25 0.065969
3.26 0.098122
3.27 0.130969
3.28 0.164242
3.29 0.197586
3.3 0.230672
3.31 0.263184
3.32 0.294807
3.33 0.325238
3.34 0.354171
3.35 0.381144
3.36 0.406093
3.37 0.428826
3.38 0.449188
3.39 0.467063
3.4 0.482378
3.41 0.494934
3.42 0.504765
3.43 0.512063
3.44 0.51691
3.45 0.519416
3.46 0.519712
3.47 0.517947
3.48 0.514084
3.49 0.508523
3.5 0.501436
3.51 0.492986
3.52 0.483331
3.53 0.472616
3.54 0.460933
3.55 0.448405
3.56 0.43519
3.57 0.421374
3.58 0.407031
3.59 0.392225
3.6 0.37701
3.61 0.361405
3.62 0.345497
3.63 0.329343
3.64 0.312998
3.65 0.296527
3.66 0.280003
3.67 0.263518
3.68 0.247188
3.69 0.231121
3.7 0.215442
3.71 0.200281
3.72 0.18578
3.73 0.172082
3.74 0.159436
3.75 0.147936
3.76 0.137697
3.77 0.128844
3.78 0.121493
3.79 0.11574
3.8 0.111716
3.81 0.109586
3.82 0.109232
3.83 0.110663
3.84 0.113863
3.85 0.118796
3.86 0.125406
3.87 0.133744
3.88 0.143627
3.89 0.154894
3.9 0.167429
3.91 0.181112
3.92 0.195817
3.93 0.211432
3.94 0.227881
3.95 0.24496
3.96 0.262557
3.97 0.280565
3.98 0.298885
3.99 0.317427
4 0.336108
4.01 0.354832
4.02 0.373517
4.03 0.392089
4.04 0.41047
4.05 0.428583
4.06 0.446344
4.07 0.463611
4.08 0.480329
4.09 0.496398
4.1 0.511711
4.11 0.526156
4.12 0.539616
4.13 0.551897
4.14 0.562864
4.15 0.572464
4.16 0.580585
4.17 0.587124
4.18 0.591988
4.19 0.595099
4.2 0.596185
4.21 0.595403
4.22 0.592742
4.23 0.588208
4.24 0.581826
4.25 0.573646
4.26 0.563654
4.27 0.55192
4.28 0.538668
4.29 0.524014
4.3 0.508085
4.31 0.49101
4.32 0.472922
4.33 0.453871
4.34 0.434067
4.35 0.413634
4.36 0.392667
4.37 0.371247
4.38 0.34944
4.39 0.327283
4.4 0.304798
4.41 0.282024
4.42 0.258961
4.43 0.2356
4.44 0.211924
4.45 0.187913
4.46 0.163511
4.47 0.138727
4.48 0.113563
4.49 0.0880257
4.5 0.0621374
4.51 0.0359365
4.52 0.00947583
4.53 -0.0171658
4.54 -0.0438647
4.55 -0.0705011
4.56 -0.0969396
4.57 -0.123031
4.58 -0.148618
4.59 -0.17347
4.6 -0.197429
4.61 -0.220364
4.62 -0.242124
4.63 -0.262578
4.64 -0.281611
4.65 -0.299105
4.66 -0.314857
4.67 -0.328993
4.68 -0.341512
4.69 -0.352447
4.7 -0.361857
4.71 -0.369832
4.72 -0.376403
4.73 -0.381753
4.74 -0.386102
4.75 -0.389616
4.76 -0.392466
4.77 -0.394825
4.78 -0.39686
4.79 -0.398728
4.8 -0.4006
4.81 -0.402593
4.82 -0.404805
4.83 -0.407305
4.84 -0.410137
4.85 -0.41334
4.86 -0.416899
4.87 -0.420755
4.88 -0.424846
4.89 -0.429093
4.9 -0.433403
4.91 -0.437672
4.92 -0.441761
4.93 -0.445564
4.94 -0.448978
4.95 -0.451903
4.96 -0.454255
4.97 -0.455962
4.98 -0.456933
4.99 -0.457114
5 -0.456542
5.01 -0.455221
5.02 -0.453176
5.03 -0.450444
5.04 -0.447076
5.05 -0.443083
5.06 -0.438589
5.07 -0.433675
5.08 -0.428412
5.09 -0.422867
5.1 -0.417099
5.11 -0.411154
5.12 -0.405071
5.13 -0.398886
5.14 -0.39261
5.15 -0.386241
5.16 -0.379767
5.17 -0.373164
5.18 -0.366385
5.19 -0.359398
5.2 -0.352169
5.21 -0.344661
5.22 -0.336843
5.23 -0.328688
5.24 -0.320174
5.25 -0.311276
5.26 -0.30204
5.27 -0.292498
5.28 -0.282694
5.29 -0.272689
5.3 -0.262557
5.31 -0.252387
5.32 -0.242291
5.33 -0.232374
5.34 -0.222741
5.35 -0.213497
5.36 -0.204743
5.37 -0.196582
5.38 -0.189165
5.39 -0.182494
5.4 -0.176617
5.41 -0.171565
5.42 -0.167348
5.43 -0.16396
5.44 -0.161423
5.45 -0.159671
5.46 -0.158599
5.47 -0.158131
5.48 -0.158179
5.49 -0.158649
5.5 -0.159443
5.51 -0.160476
5.52 -0.16162
5.53 -0.162786
5.54 -0.163895
5.55 -0.164877
5.56 -0.165675
5.57 -0.166231
5.58 -0.166508
5.59 -0.166505
5.6 -0.166216
5.61 -0.165644
5.62 -0.164798
5.63 -0.163692
5.64 -0.162316
5.65 -0.16071
5.66 -0.158884
5.67 -0.15684
5.68 -0.15457
5.69 -0.152058
5.7 -0.149262
5.71 -0.146126
5.72 -0.14262
5.73 -0.138682
5.74 -0.134244
5.75 -0.129234
5.76 -0.12358
5.77 -0.117132
5.78 -0.109873
5.79 -0.101763
5.8 -0.0927611
5.81 -0.0828406
5.82 -0.0719946
5.83 -0.0602075
5.84 -0.0474778
5.85 -0.0339456
5.86 -0.0196964
5.87 -0.00483649
5.88 0.0105099
5.89 0.0262027
5.9 0.0420926
5.91 0.0579883
5.92 0.0737211
5.93 0.0891305
5.94 0.104063
5.95 0.118379
5.96 0.131932
5.97 0.144547
5.98 0.15622
5.99 0.166903
6 0.176574
6.01 0.185238
6.02 0.192927
6.03 0.199635
6.04 0.205486
6.05 0.21062
6.06 0.215152
6.07 0.219208
6.08 0.222916
6.09 0.2264
6.1 0.229784
6.11 0.233193
6.12 0.236713
6.13 0.240409
6.14 0.244323
6.15 0.248468
6.16 0.252845
6.17 0.257401
6.18 0.262052
6.19 0.266703
6.2 0.271237
6.21 0.275521
6.22 0.27941
6.23 0.28267
6.24 0.285197
6.25 0.286843
6.26 0.28747
6.27 0.286955
6.28 0.285195
6.29 0.282036
6.3 0.277403
6.31 0.271364
6.32 0.263929
6.33 0.255138
6.34 0.245057
6.35 0.233778
6.36 0.221315
6.37 0.207922
6.38 0.193762
6.39 0.178995
6.4 0.163785
6.41 0.148295
6.42 0.132683
6.43 0.117116
6.44 0.10173
6.45 0.0866343
6.46 0.0719183
6.47 0.0576493
6.48 0.0438715
6.49 0.0306551
6.5 0.0179588
6.51 0.00574543
6.52 -0.00602759
6.53 -0.0174168
6.54 -0.0284893
6.55 -0.0393142
6.56 -0.0499695
6.57 -0.0605505
6.58 -0.0711272
6.59 -0.081761
6.6 -0.0925023
6.61 -0.103388
6.62 -0.114455
6.63 -0.125698
6.64 -0.137097
6.65 -0.148622
6.66 -0.160227
6.67 -0.171853
6.68 -0.183429
6.69 -0.194855
6.7 -0.20605
6.71 -0.216923
6.72 -0.227385
6.73 -0.237346
6.74 -0.246721
6.75 -0.255376
6.76 -0.263248
6.77 -0.270305
6.78 -0.276494
6.79 -0.281769
6.8 -0.286094
6.81 -0.289432
6.82 -0.29166
6.83 -0.292868
6.84 -0.293046
6.85 -0.292187
6.86 -0.290282
6.87 -0.287324
6.88 -0.28324
6.89 -0.278024
6.9 -0.271724
6.91 -0.264324
6.92 -0.25581
6.93 -0.246163
6.94 -0.235369
6.95 -0.223276
6.96 -0.210001
6.97 -0.195542
6.98 -0.179897
6.99 -0.163074
7 -0.145089
7.01 -0.125916
7.02 -0.105582
7.03 -0.0842152
7.04 -0.0618824
7.05 -0.0386604
7.06 -0.0146375
7.07 0.0100886
7.08 0.0354614
7.09 0.0613017
7.1 0.0874834
7.11 0.113886
7.12 0.140391
7.13 0.166881
7.14 0.193234
7.15 0.21932
7.16 0.245056
7.17 0.270354
7.18 0.295139
7.19 0.319343
7.2 0.342911
7.21 0.365727
7.22 0.387795
7.23 0.409101
7.24 0.429618
7.25 0.449324
7.26 0.468193
7.27 0.486176
7.28 0.503187
7.29 0.519266
7.3 0.534373
7.31 0.548457
7.32 0.56146
7.33 0.573314
7.34 0.58384
7.35 0.592999
7.36 0.600746
7.37 0.606988
7.38 0.611633
7.39 0.614589
7.4 0.615737
7.41 0.614834
7.42 0.611993
7.43 0.60716
7.44 0.6003
7.45 0.591393
7.46 0.58044
7.47 0.567325
7.48 0.55215
7.49 0.535082
7.5 0.516213
7.51 0.495658
7.52 0.473549
7.53 0.450028
7.54 0.425148
7.55 0.399239
7.56 0.372484
7.57 0.345073
7.58 0.317194
7.59 0.289035
7.6 0.260784
7.61 0.232643
7.62 0.20478
7.63 0.177346
7.64 0.150479
7.65 0.124304
7.66 0.0989303
7.67 0.0745637
7.68 0.0511952
7.69 0.0288844
7.7 0.00768375
7.71 -0.0123657
7.72 -0.0312326
7.73 -0.0488358
7.74 -0.0651326
7.75 -0.0801988
7.76 -0.0940318
7.77 -0.106633
7.78 -0.118007
7.79 -0.128163
7.8 -0.136991
7.81 -0.144611
7.82 -0.151061
7.83 -0.156364
7.84 -0.160548
7.85 -0.163645
7.86 -0.165657
7.87 -0.16659
7.88 -0.16658
7.89 -0.165683
7.9 -0.163964
7.91 -0.16149
7.92 -0.158334
7.93 -0.154526
7.94 -0.150194
7.95 -0.145433
7.96 -0.140323
7.97 -0.134943
7.98 -0.129364
7.99 -0.123656
8 -0.117881
8.01 -0.112103
8.02 -0.106365
8.03 -0.100702
8.04 -0.0951362
8.05 -0.0896847
8.06 -0.0843632
8.07 -0.0791644
8.08 -0.0740743
8.09 -0.069079
8.1 -0.0641616
8.11 -0.0593038
8.12 -0.0544887
8.13 -0.049702
8.14 -0.0449301
8.15 -0.0401696
8.16 -0.0354238
8.17 -0.0307039
8.18 -0.026029
8.19 -0.021434
8.2 -0.0169586
8.21 -0.012642
8.22 -0.00853202
8.23 -0.00467968
8.24 -0.00113692
8.25 0.00204397
8.26 0.00476555
8.27 0.00703016
8.28 0.00880647
8.29 0.0100735
8.3 0.0108221
8.31 0.0110562
8.32 0.0107672
8.33 0.00999151
8.34 0.0088077
8.35 0.00727633
8.36 0.00546849
8.37 0.00346364
8.38 0.00134712
8.39 -0.000785524
8.4 -0.00283537
8.41 -0.00471899
8.42 -0.00636057
8.43 -0.00769476
8.44 -0.00866945
8.45 -0.00922928
8.46 -0.00934428
8.47 -0.00904846
8.48 -0.00836654
8.49 -0.00734254
8.5 -0.00603884
8.51 -0.00453468
8.52 -0.00292401
8.53 -0.00133464
8.54 0.000115614
8.55 0.00130685
8.56 0.00211916
8.57 0.00243652
8.58 0.00212646
8.59 0.00104665
8.6 -0.000828838
8.61 -0.00355914
8.62 -0.00718306
8.63 -0.0117177
8.64 -0.0171577
8.65 -0.0235476
8.66 -0.0307779
8.67 -0.0387485
8.68 -0.0473679
8.69 -0.0565308
8.7 -0.0661215
8.71 -0.0760208
8.72 -0.0860988
8.73 -0.096205
8.74 -0.106221
8.75 -0.116038
8.76 -0.125558
8.77 -0.134701
8.78 -0.143364
8.79 -0.151512
8.8 -0.159141
8.81 -0.166247
8.82 -0.172843
8.83 -0.178958
8.84 -0.184631
8.85 -0.189887
8.86 -0.194835
8.87 -0.199541
8.88 -0.204073
8.89 -0.208495
8.9 -0.212866
8.91 -0.217237
8.92 -0.221651
8.93 -0.226131
8.94 -0.230683
8.95 -0.235302
8.96 -0.239966
8.97 -0.244641
8.98 -0.249271
8.99 -0.253797
9 -0.258154
9.01 -0.262273
9.02 -0.266086
9.03 -0.269524
9.04 -0.272499
9.05 -0.274946
9.06 -0.276851
9.07 -0.278187
9.08 -0.278938
9.09 -0.279107
9.1 -0.278709
9.11 -0.277719
9.12 -0.276242
9.13 -0.27434
9.14 -0.272081
9.15 -0.269538
9.16 -0.266788
9.17 -0.263908
9.18 -0.260982
9.19 -0.258089
9.2 -0.25529
9.21 -0.252634
9.22 -0.25016
9.23 -0.247895
9.24 -0.245869
9.25 -0.24406
9.26 -0.242446
9.27 -0.240993
9.28 -0.23966
9.29 -0.238397
9.3 -0.237148
9.31 -0.235844
9.32 -0.234426
9.33 -0.232841
9.34 -0.231039
9.35 -0.228982
9.36 -0.226638
9.37 -0.223964
9.38 -0.220971
9.39 -0.21768
9.4 -0.214113
9.41 -0.210305
9.42 -0.2063
9.43 -0.202148
9.44 -0.197907
9.45 -0.193651
9.46 -0.189438
9.47 -0.185323
9.48 -0.181355
9.49 -0.177572
9.5 -0.174018
9.51 -0.170697
9.52 -0.167595
9.53 -0.164689
9.54 -0.161939
9.55 -0.159293
9.56 -0.156679
9.57 -0.154003
9.58 -0.151167
9.59 -0.148071
9.6 -0.144612
9.61 -0.140685
9.62 -0.13619
9.63 -0.130983
9.64 -0.124974
9.65 -0.118131
9.66 -0.110398
9.67 -0.101739
9.68 -0.0921351
9.69 -0.0815841
9.7 -0.0700009
9.71 -0.0575334
9.72 -0.044239
9.73 -0.0301877
9.74 -0.0154611
9.75 -0.000149909
9.76 0.0156688
9.77 0.0318855
9.78 0.0483697
9.79 0.0650256
9.8 0.0817633
9.81 0.0985008
9.82 0.115166
9.83 0.131679
9.84 0.147998
9.85 0.164092
9.86 0.179936
9.87 0.195516
9.88 0.210826
9.89 0.225857
9.9 0.240605
9.91 0.255098
9.92 0.269342
9.93 0.283341
9.94 0.297093
9.95 0.310589
9.96 0.323785
9.97 0.336668
9.98 0.349208
9.99 0.361358
10 0.373064
10.01 0.384263
10.02 0.39487
10.03 0.40477
10.04 0.413943
10.05 0.422325
10.06 0.429854
10.07 0.436479
10.08 0.442159
10.09 0.446785
10.1 0.450393
10.11 0.453024
10.12 0.454705
10.13 0.455477
10.14 0.455402
10.15 0.45454
10.16 0.45294
10.17 0.450779
10.18 0.448168
10.19 0.445223
10.2 0.442061
10.21 0.438797
10.22 0.435549
10.23 0.432431
10.24 0.429526
10.25 0.426905
10.26 0.424622
10.27 0.422713
10.28 0.421196
10.29 0.420104
10.3 0.419368
10.31 0.418941
10.32 0.418765
10.33 0.418765
10.34 0.418855
10.35 0.418939
10.36 0.418903
10.37 0.418651
10.38 0.418086
10.39 0.41712
10.4 0.415671
10.41 0.413667
10.42 0.410975
10.43 0.407615
10.44 0.403562
10.45 0.398803
10.46 0.393338
10.47 0.38718
10.48 0.380322
10.49 0.37279
10.5 0.364671
10.51 0.356011
10.52 0.346855
10.53 0.337251
10.54 0.327241
10.55 0.31683
10.56 0.306083
10.57 0.295027
10.58 0.283675
10.59 0.272034
10.6 0.260099
10.61 0.247848
10.62 0.235246
10.63 0.222297
10.64 0.208975
10.65 0.195256
10.66 0.181118
10.67 0.166541
10.68 0.151472
10.69 0.135938
10.7 0.119958
10.71 0.103551
10.72 0.0867482
10.73 0.0695901
10.74 0.0521234
10.75 0.0344051
10.76 0.0165352
10.77 -0.00140643
10.78 -0.0193356
10.79 -0.0371663
10.8 -0.0548132
10.81 -0.0721669
10.82 -0.0891537
10.83 -0.105719
10.84 -0.121807
10.85 -0.137377
10.86 -0.152401
10.87 -0.166855
10.88 -0.180695
10.89 -0.193996
10.9 -0.20679
10.91 -0.219122
10.92 -0.231044
10.93 -0.242617
10.94 -0.253893
10.95 -0.264954
10.96 -0.27588
10.97 -0.286733
10.98 -0.297567
10.99 -0.308427
11 -0.319348
11.01 -0.330358
11.02 -0.341451
11.03 -0.352614
11.04 -0.363818
11.05 -0.375018
11.06 -0.386157
11.07 -0.397153
11.08 -0.407912
11.09 -0.418352
11.1 -0.428379
11.11 -0.437897
11.12 -0.44681
11.13 -0.455028
11.14 -0.462369
11.15 -0.468833
11.16 -0.474361
11.17 -0.478905
11.18 -0.482426
11.19 -0.484903
11.2 -0.486279
11.21 -0.486538
11.22 -0.485776
11.23 -0.484028
11.24 -0.481337
11.25 -0.477757
11.26 -0.473344
11.27 -0.46809
11.28 -0.46213
11.29 -0.455538
11.3 -0.448373
11.31 -0.44069
11.32 -0.432537
11.33 -0.423942
11.34 -0.414923
11.35 -0.405537
11.36 -0.395801
11.37 -0.385722
11.38 -0.3753
11.39 -0.364534
11.4 -0.353382
11.41 -0.341853
11.42 -0.329948
11.43 -0.317656
11.44 -0.30497
11.45 -0.291886
11.46 -0.2784
11.47 -0.264493
11.48 -0.250222
11.49 -0.235612
11.5 -0.220695
11.51 -0.205513
11.52 -0.190113
11.53 -0.174539
11.54 -0.158866
11.55 -0.143162
11.56 -0.127493
11.57 -0.111924
11.58 -0.0965224
11.59 -0.081354
11.6 -0.0665134
11.61 -0.0520304
11.62 -0.0379548
11.63 -0.0243305
11.64 -0.011195
11.65 0.00142058
11.66 0.0134545
11.67 0.024895
11.68 0.0357592
11.69 0.0460412
11.7 0.0557401
11.71 0.0648582
11.72 0.0734001
11.73 0.0813109
11.74 0.0886665
11.75 0.0954778
11.76 0.101756
11.77 0.107513
11.78 0.11276
11.79 0.117481
11.8 0.121688
11.81 0.125421
11.82 0.128694
11.83 0.13152
11.84 0.133912
11.85 0.135888
11.86 0.137424
11.87 0.13858
11.88 0.139383
11.89 0.139857
11.9 0.140026
11.91 0.139917
11.92 0.139546
11.93 0.138936
11.94 0.138131
11.95 0.13715
11.96 0.136013
11.97 0.134731
11.98 0.133313
11.99 0.131744
12 0.130027
12.01 0.128145
12.02 0.126073
12.03 0.123776
12.04 0.121211
12.05 0.118314
12.06 0.114999
12.07 0.111229
12.08 0.106935
12.09 0.102046
12.1 0.0964916
12.11 0.0902025
12.12 0.0830402
12.13 0.0749846
12.14 0.0660141
12.15 0.0560932
12.16 0.0451996
12.17 0.0333257
12.18 0.0204591
