# xPDFsuite Configuration #
[PDF]
wavelength = 0.1
dataformat = QA
inputfile = BiMsol6_insitu_700 C-00526.xy
backgroundfile = Quartz2mm-dist500-00000.xy
mode = xray
bgscale = 0.0042
composition = Bi2Fe4O9
outputtype = gr
qmaxinst = 24.998449118
qmin = 0.1
qmax = 21.4986662415
rmax = 80.0
rmin = 0.0
rstep = 0.01
rpoly = 0.9

[Misc]
inputdir = C:/Data/Seafile/CPH/Beamtime/Desy Oct 20/In situ data/Processed/BiMsol6/PDF
savedir = C:/Data/Seafile/CPH/Beamtime/Desy Oct 20/In situ data/PDF/BiMsol6
backgroundfilefull = C:/Data/Seafile/CPH/Beamtime/Desy Oct 20/In situ data/Processed/Standard_Empty_Cap/Quartz2mm-dist500-00000.xy

#### start data
#S 1
#L r($\AA$)  G($\AA^{-2}$)
0 0
0.01 0.00629167
0.02 0.0122245
0.03 0.0174913
0.04 0.021817
0.05 0.0249707
0.06 0.0267767
0.07 0.0270436
0.08 0.025717
0.09 0.0229402
0.1 0.0188321
0.11 0.013576
0.12 0.00741126
0.13 0.000623392
0.14 -0.0064658
0.15 -0.0134554
0.16 -0.0200069
0.17 -0.0258032
0.18 -0.030561
0.19 -0.0340446
0.2 -0.0360126
0.21 -0.0363026
0.22 -0.0350174
0.23 -0.032228
0.24 -0.0280834
0.25 -0.0228054
0.26 -0.0166802
0.27 -0.0100353
0.28 -0.00333326
0.29 0.00301445
0.3 0.00860888
0.31 0.0130724
0.32 0.0160671
0.33 0.0172522
0.34 0.0162964
0.35 0.0132615
0.36 0.00815384
0.37 0.00108438
0.38 -0.0077305
0.39 -0.0179721
0.4 -0.0292692
0.41 -0.0409984
0.42 -0.0525497
0.43 -0.0633036
0.44 -0.0726217
0.45 -0.0798702
0.46 -0.0843809
0.47 -0.0852936
0.48 -0.0824353
0.49 -0.0754684
0.5 -0.0641793
0.51 -0.0484925
0.52 -0.0284797
0.53 -0.0040953
0.54 0.0240913
0.55 0.0553404
0.56 0.0889633
0.57 0.12416
0.58 0.16004
0.59 0.195637
0.6 0.229715
0.61 0.261331
0.62 0.289531
0.63 0.313425
0.64 0.332217
0.65 0.345233
0.66 0.351529
0.67 0.350748
0.68 0.3431
0.69 0.328627
0.7 0.307556
0.71 0.280291
0.72 0.247403
0.73 0.209152
0.74 0.167042
0.75 0.122061
0.76 0.0752504
0.77 0.0276868
0.78 -0.0195539
0.79 -0.0653048
0.8 -0.10841
0.81 -0.14811
0.82 -0.183665
0.83 -0.21448
0.84 -0.240114
0.85 -0.260294
0.86 -0.274351
0.87 -0.28289
0.88 -0.286256
0.89 -0.284866
0.9 -0.279261
0.91 -0.270085
0.92 -0.257984
0.93 -0.243771
0.94 -0.22846
0.95 -0.212842
0.96 -0.19767
0.97 -0.183635
0.98 -0.171345
0.99 -0.161556
1 -0.154532
1.01 -0.150452
1.02 -0.149427
1.03 -0.151441
1.04 -0.156362
1.05 -0.164017
1.06 -0.174156
1.07 -0.186121
1.08 -0.199437
1.09 -0.213596
1.1 -0.228085
1.11 -0.242403
1.12 -0.255992
1.13 -0.268417
1.14 -0.279366
1.15 -0.288582
1.16 -0.295892
1.17 -0.301209
1.18 -0.304503
1.19 -0.305722
1.2 -0.305245
1.21 -0.303312
1.22 -0.300211
1.23 -0.296264
1.24 -0.291808
1.25 -0.287195
1.26 -0.282793
1.27 -0.27889
1.28 -0.275722
1.29 -0.273471
1.3 -0.272253
1.31 -0.272127
1.32 -0.273179
1.33 -0.275187
1.34 -0.277995
1.35 -0.281396
1.36 -0.285147
1.37 -0.288975
1.38 -0.292569
1.39 -0.295607
1.4 -0.297845
1.41 -0.299059
1.42 -0.299068
1.43 -0.297746
1.44 -0.295025
1.45 -0.290757
1.46 -0.285176
1.47 -0.278435
1.48 -0.270742
1.49 -0.262351
1.5 -0.253561
1.51 -0.244708
1.52 -0.236188
1.53 -0.228338
1.54 -0.221475
1.55 -0.215883
1.56 -0.2118
1.57 -0.209407
1.58 -0.209008
1.59 -0.210483
1.6 -0.213748
1.61 -0.218674
1.62 -0.225059
1.63 -0.232636
1.64 -0.241096
1.65 -0.250032
1.66 -0.25897
1.67 -0.267487
1.68 -0.275162
1.69 -0.281594
1.7 -0.286412
1.71 -0.289096
1.72 -0.289486
1.73 -0.287462
1.74 -0.282931
1.75 -0.275883
1.76 -0.266388
1.77 -0.254546
1.78 -0.24049
1.79 -0.224739
1.8 -0.207656
1.81 -0.189646
1.82 -0.171137
1.83 -0.152568
1.84 -0.134434
1.85 -0.117179
1.86 -0.101148
1.87 -0.086651
1.88 -0.0739344
1.89 -0.0631743
1.9 -0.0545025
1.91 -0.0481182
1.92 -0.0437354
1.93 -0.0412098
1.94 -0.0403338
1.95 -0.0408464
1.96 -0.0424449
1.97 -0.0448246
1.98 -0.0475758
1.99 -0.0503224
2 -0.0527425
2.01 -0.0545474
2.02 -0.0554934
2.03 -0.0553875
2.04 -0.0539688
2.05 -0.0513231
2.06 -0.0474852
2.07 -0.0425597
2.08 -0.0367182
2.09 -0.0301918
2.1 -0.0232599
2.11 -0.0163
2.12 -0.00968962
2.13 -0.00379466
2.14 0.00102318
2.15 0.00442032
2.16 0.00608467
2.17 0.00550498
2.18 0.0026628
2.19 -0.00255813
2.2 -0.0102185
2.21 -0.0203052
2.22 -0.0327312
2.23 -0.0474261
2.24 -0.0641728
2.25 -0.0825177
2.26 -0.102114
2.27 -0.12258
2.28 -0.143512
2.29 -0.164494
2.3 -0.185042
2.31 -0.204754
2.32 -0.223284
2.33 -0.240325
2.34 -0.255619
2.35 -0.268971
2.36 -0.280177
2.37 -0.289069
2.38 -0.295841
2.39 -0.300578
2.4 -0.303424
2.41 -0.304574
2.42 -0.304265
2.43 -0.302692
2.44 -0.300256
2.45 -0.297296
2.46 -0.294117
2.47 -0.291007
2.48 -0.288233
2.49 -0.286048
2.5 -0.284721
2.51 -0.284335
2.52 -0.284981
2.53 -0.286701
2.54 -0.289491
2.55 -0.293298
2.56 -0.298092
2.57 -0.30369
2.58 -0.309891
2.59 -0.316514
2.6 -0.323365
2.61 -0.33025
2.62 -0.336971
2.63 -0.3433
2.64 -0.349101
2.65 -0.354245
2.66 -0.35863
2.67 -0.362187
2.68 -0.364875
2.69 -0.366633
2.7 -0.367502
2.71 -0.367582
2.72 -0.366951
2.73 -0.365702
2.74 -0.363942
2.75 -0.36178
2.76 -0.359309
2.77 -0.356679
2.78 -0.353984
2.79 -0.351306
2.8 -0.348711
2.81 -0.346243
2.82 -0.34394
2.83 -0.341807
2.84 -0.339819
2.85 -0.337944
2.86 -0.336139
2.87 -0.334347
2.88 -0.33251
2.89 -0.330546
2.9 -0.328397
2.91 -0.326011
2.92 -0.323338
2.93 -0.320341
2.94 -0.316996
2.95 -0.313271
2.96 -0.309155
2.97 -0.304685
2.98 -0.299881
2.99 -0.294765
3 -0.289366
3.01 -0.283706
3.02 -0.277785
3.03 -0.271632
3.04 -0.265246
3.05 -0.258609
3.06 -0.251684
3.07 -0.244414
3.08 -0.236709
3.09 -0.228434
3.1 -0.219511
3.11 -0.209815
3.12 -0.199208
3.13 -0.187548
3.14 -0.174695
3.15 -0.160388
3.16 -0.14456
3.17 -0.127153
3.18 -0.108087
3.19 -0.0873148
3.2 -0.0648195
3.21 -0.0405875
3.22 -0.0145667
3.23 0.0129697
3.24 0.0418723
3.25 0.0719539
3.26 0.102992
3.27 0.134735
3.28 0.166911
3.29 0.199165
3.3 0.231166
3.31 0.262594
3.32 0.293133
3.33 0.322479
3.34 0.350325
3.35 0.376206
3.36 0.400061
3.37 0.421696
3.38 0.44096
3.39 0.457738
3.4 0.471961
3.41 0.483437
3.42 0.492208
3.43 0.498473
3.44 0.502326
3.45 0.503889
3.46 0.503308
3.47 0.50075
3.48 0.496208
3.49 0.490092
3.5 0.482596
3.51 0.473905
3.52 0.464199
3.53 0.453644
3.54 0.442364
3.55 0.430509
3.56 0.418236
3.57 0.405645
3.58 0.392816
3.59 0.379816
3.6 0.3667
3.61 0.353506
3.62 0.340281
3.63 0.327056
3.64 0.31386
3.65 0.300726
3.66 0.287689
3.67 0.274801
3.68 0.262128
3.69 0.24972
3.7 0.23765
3.71 0.225998
3.72 0.214855
3.73 0.204316
3.74 0.194557
3.75 0.185646
3.76 0.177669
3.77 0.170725
3.78 0.16491
3.79 0.160309
3.8 0.157038
3.81 0.155244
3.82 0.154857
3.83 0.155907
3.84 0.158404
3.85 0.162345
3.86 0.167708
3.87 0.174568
3.88 0.182798
3.89 0.192284
3.9 0.202948
3.91 0.214701
3.92 0.227451
3.93 0.24111
3.94 0.255626
3.95 0.270803
3.96 0.286536
3.97 0.302716
3.98 0.319236
3.99 0.335992
4 0.35288
4.01 0.369781
4.02 0.386588
4.03 0.403201
4.04 0.419519
4.05 0.435441
4.06 0.450863
4.07 0.465611
4.08 0.479638
4.09 0.492845
4.1 0.505129
4.11 0.516392
4.12 0.526538
4.13 0.535395
4.14 0.542868
4.15 0.548949
4.16 0.55357
4.17 0.556672
4.18 0.558211
4.19 0.558154
4.2 0.556301
4.21 0.552829
4.22 0.547762
4.23 0.54113
4.24 0.532982
4.25 0.523376
4.26 0.51232
4.27 0.499884
4.28 0.486251
4.29 0.471515
4.3 0.455773
4.31 0.439121
4.32 0.42165
4.33 0.403382
4.34 0.384466
4.35 0.364981
4.36 0.344986
4.37 0.324525
4.38 0.303637
4.39 0.282331
4.4 0.260609
4.41 0.238511
4.42 0.216038
4.43 0.193191
4.44 0.169968
4.45 0.146371
4.46 0.122377
4.47 0.0980261
4.48 0.0733568
4.49 0.0484088
4.5 0.0232354
4.51 -0.00209605
4.52 -0.0275034
4.53 -0.0528761
4.54 -0.0780979
4.55 -0.103048
4.56 -0.127599
4.57 -0.151618
4.58 -0.17497
4.59 -0.197449
4.6 -0.218947
4.61 -0.239382
4.62 -0.258652
4.63 -0.276673
4.64 -0.293379
4.65 -0.308705
4.66 -0.322512
4.67 -0.334943
4.68 -0.346031
4.69 -0.355825
4.7 -0.364398
4.71 -0.371839
4.72 -0.378191
4.73 -0.383608
4.74 -0.388265
4.75 -0.392291
4.76 -0.395812
4.77 -0.398953
4.78 -0.401828
4.79 -0.404534
4.8 -0.407185
4.81 -0.40985
4.82 -0.412582
4.83 -0.415415
4.84 -0.418365
4.85 -0.421436
4.86 -0.424606
4.87 -0.427834
4.88 -0.431074
4.89 -0.434272
4.9 -0.437368
4.91 -0.4403
4.92 -0.442976
4.93 -0.445354
4.94 -0.447386
4.95 -0.449028
4.96 -0.450247
4.97 -0.451018
4.98 -0.451306
4.99 -0.451098
5 -0.450436
5.01 -0.449336
5.02 -0.447821
5.03 -0.445918
5.04 -0.443657
5.05 -0.441035
5.06 -0.438109
5.07 -0.434906
5.08 -0.43144
5.09 -0.427719
5.1 -0.423741
5.11 -0.419487
5.12 -0.41492
5.13 -0.410036
5.14 -0.4048
5.15 -0.399174
5.16 -0.393117
5.17 -0.38659
5.18 -0.379508
5.19 -0.371865
5.2 -0.363654
5.21 -0.354864
5.22 -0.345496
5.23 -0.335564
5.24 -0.325085
5.25 -0.314079
5.26 -0.302656
5.27 -0.290895
5.28 -0.278883
5.29 -0.266719
5.3 -0.25451
5.31 -0.242379
5.32 -0.230453
5.33 -0.218837
5.34 -0.207635
5.35 -0.196941
5.36 -0.18684
5.37 -0.177409
5.38 -0.168771
5.39 -0.160888
5.4 -0.153773
5.41 -0.147421
5.42 -0.141811
5.43 -0.136907
5.44 -0.132695
5.45 -0.129093
5.46 -0.125996
5.47 -0.123325
5.48 -0.121002
5.49 -0.118947
5.5 -0.117087
5.51 -0.115362
5.52 -0.113696
5.53 -0.112045
5.54 -0.110374
5.55 -0.108664
5.56 -0.106905
5.57 -0.105099
5.58 -0.10326
5.59 -0.101411
5.6 -0.0995788
5.61 -0.0977905
5.62 -0.0960727
5.63 -0.0944481
5.64 -0.0929461
5.65 -0.0915618
5.66 -0.0902877
5.67 -0.0891046
5.68 -0.0879797
5.69 -0.0868669
5.7 -0.0857015
5.71 -0.0843974
5.72 -0.0828756
5.73 -0.0810465
5.74 -0.0788168
5.75 -0.0760931
5.76 -0.0727853
5.77 -0.0687385
5.78 -0.0639261
5.79 -0.0583074
5.8 -0.0518463
5.81 -0.0445262
5.82 -0.036352
5.83 -0.0273255
5.84 -0.0174665
5.85 -0.00692133
5.86 0.0042136
5.87 0.0158247
5.88 0.0277846
5.89 0.0399561
5.9 0.0521887
5.91 0.0643164
5.92 0.0761977
5.93 0.0877016
5.94 0.0987105
5.95 0.109123
5.96 0.118842
5.97 0.12775
5.98 0.135885
5.99 0.143244
6 0.14985
6.01 0.155745
6.02 0.160997
6.03 0.165654
6.04 0.169848
6.05 0.173714
6.06 0.177364
6.07 0.180913
6.08 0.18447
6.09 0.188134
6.1 0.192016
6.11 0.196164
6.12 0.200614
6.13 0.205382
6.14 0.210455
6.15 0.215798
6.16 0.221357
6.17 0.227029
6.18 0.232694
6.19 0.238225
6.2 0.243483
6.21 0.248323
6.22 0.252596
6.23 0.256056
6.24 0.258637
6.25 0.260215
6.26 0.260685
6.27 0.259961
6.28 0.257984
6.29 0.254648
6.3 0.249934
6.31 0.24395
6.32 0.236749
6.33 0.228407
6.34 0.219022
6.35 0.208709
6.36 0.197531
6.37 0.18572
6.38 0.173432
6.39 0.160814
6.4 0.14801
6.41 0.135153
6.42 0.122374
6.43 0.109798
6.44 0.0975017
6.45 0.0855473
6.46 0.0739774
6.47 0.0628135
6.48 0.0520569
6.49 0.0417241
6.5 0.0317467
6.51 0.0220656
6.52 0.0126207
6.53 0.00334581
6.54 -0.00582782
6.55 -0.014969
6.56 -0.0241506
6.57 -0.0334278
6.58 -0.0428428
6.59 -0.0524251
6.6 -0.0621898
6.61 -0.0721366
6.62 -0.0822609
6.63 -0.092517
6.64 -0.10285
6.65 -0.1132
6.66 -0.123496
6.67 -0.133658
6.68 -0.143596
6.69 -0.15319
6.7 -0.162377
6.71 -0.171075
6.72 -0.179207
6.73 -0.186705
6.74 -0.193512
6.75 -0.199522
6.76 -0.204716
6.77 -0.209105
6.78 -0.212677
6.79 -0.215431
6.8 -0.217376
6.81 -0.218518
6.82 -0.218803
6.83 -0.218343
6.84 -0.217161
6.85 -0.215284
6.86 -0.212732
6.87 -0.209524
6.88 -0.20563
6.89 -0.201062
6.9 -0.195849
6.91 -0.189982
6.92 -0.183441
6.93 -0.176205
6.94 -0.168242
6.95 -0.159429
6.96 -0.149812
6.97 -0.139358
6.98 -0.128032
6.99 -0.115806
7 -0.102655
7.01 -0.0885148
7.02 -0.0733615
7.03 -0.0572632
7.04 -0.0402356
7.05 -0.0223065
7.06 -0.00351502
7.07 0.0160877
7.08 0.0365091
7.09 0.0575998
7.1 0.0792648
7.11 0.101411
7.12 0.12394
7.13 0.146747
7.14 0.169726
7.15 0.192752
7.16 0.215704
7.17 0.23847
7.18 0.260943
7.19 0.283017
7.2 0.304591
7.21 0.325504
7.22 0.345694
7.23 0.365091
7.24 0.383613
7.25 0.401186
7.26 0.41774
7.27 0.433177
7.28 0.447361
7.29 0.460335
7.3 0.472049
7.31 0.48246
7.32 0.491526
7.33 0.499214
7.34 0.505375
7.35 0.510046
7.36 0.51326
7.37 0.515002
7.38 0.515268
7.39 0.514054
7.4 0.511343
7.41 0.507027
7.42 0.501274
7.43 0.494108
7.44 0.485564
7.45 0.475679
7.46 0.464496
7.47 0.451981
7.48 0.438224
7.49 0.42334
7.5 0.407389
7.51 0.390436
7.52 0.372546
7.53 0.35378
7.54 0.33413
7.55 0.313763
7.56 0.292748
7.57 0.271158
7.58 0.249066
7.59 0.22655
7.6 0.203672
7.61 0.180528
7.62 0.157221
7.63 0.133844
7.64 0.11049
7.65 0.0872588
7.66 0.0642544
7.67 0.0416353
7.68 0.0194897
7.69 -0.00206785
7.7 -0.0229195
7.71 -0.0429471
7.72 -0.0620339
7.73 -0.0800109
7.74 -0.0967305
7.75 -0.11217
7.76 -0.126242
7.77 -0.138875
7.78 -0.150009
7.79 -0.159605
7.8 -0.167482
7.81 -0.173773
7.82 -0.178529
7.83 -0.181793
7.84 -0.183633
7.85 -0.184131
7.86 -0.183351
7.87 -0.181379
7.88 -0.178447
7.89 -0.174699
7.9 -0.170282
7.91 -0.165346
7.92 -0.160039
7.93 -0.154495
7.94 -0.148873
7.95 -0.143295
7.96 -0.13786
7.97 -0.132648
7.98 -0.127721
7.99 -0.123126
8 -0.118903
8.01 -0.115014
8.02 -0.111431
8.03 -0.108112
8.04 -0.104999
8.05 -0.102023
8.06 -0.0991081
8.07 -0.0961625
8.08 -0.093108
8.09 -0.0898743
8.1 -0.0864004
8.11 -0.0826385
8.12 -0.078551
8.13 -0.0740941
8.14 -0.0693109
8.15 -0.0642305
8.16 -0.058901
8.17 -0.0533884
8.18 -0.0477743
8.19 -0.0421601
8.2 -0.036666
8.21 -0.0314019
8.22 -0.0264782
8.23 -0.0220005
8.24 -0.018066
8.25 -0.0147614
8.26 -0.0122365
8.27 -0.0104597
8.28 -0.00944942
8.29 -0.00919956
8.3 -0.00967881
8.31 -0.010831
8.32 -0.0126038
8.33 -0.0148793
8.34 -0.0174983
8.35 -0.0203235
8.36 -0.0232088
8.37 -0.0260043
8.38 -0.0285616
8.39 -0.0306829
8.4 -0.0322673
8.41 -0.0332103
8.42 -0.0334266
8.43 -0.0328564
8.44 -0.0314682
8.45 -0.0292243
8.46 -0.0261407
8.47 -0.0223424
8.48 -0.0179234
8.49 -0.013002
8.5 -0.0077179
8.51 -0.00222707
8.52 0.00328927
8.53 0.00863472
8.54 0.0136362
8.55 0.0181281
8.56 0.0219577
8.57 0.0249895
8.58 0.027076
8.59 0.0280728
8.6 0.0280063
8.61 0.0268559
8.62 0.024632
8.63 0.0213747
8.64 0.0171525
8.65 0.0119936
8.66 0.00608127
8.67 -0.000422071
8.68 -0.00736862
8.69 -0.0146051
8.7 -0.0219781
8.71 -0.0293359
8.72 -0.036514
8.73 -0.0433986
8.74 -0.0498922
8.75 -0.0559206
8.76 -0.0614344
8.77 -0.0664103
8.78 -0.0708127
8.79 -0.0746966
8.8 -0.0781409
8.81 -0.0812223
8.82 -0.0840332
8.83 -0.0866771
8.84 -0.0892652
8.85 -0.0919289
8.86 -0.0947792
8.87 -0.0979148
8.88 -0.101421
8.89 -0.105367
8.9 -0.109801
8.91 -0.114786
8.92 -0.120316
8.93 -0.12634
8.94 -0.132813
8.95 -0.139668
8.96 -0.146823
8.97 -0.154179
8.98 -0.161627
8.99 -0.169032
9 -0.176279
9.01 -0.183256
9.02 -0.189863
9.03 -0.196008
9.04 -0.201584
9.05 -0.206523
9.06 -0.210828
9.07 -0.214488
9.08 -0.217513
9.09 -0.219933
9.1 -0.221796
9.11 -0.223122
9.12 -0.224045
9.13 -0.224659
9.14 -0.225053
9.15 -0.225321
9.16 -0.225551
9.17 -0.225827
9.18 -0.226231
9.19 -0.226809
9.2 -0.227596
9.21 -0.228607
9.22 -0.229839
9.23 -0.231271
9.24 -0.232876
9.25 -0.234577
9.26 -0.236302
9.27 -0.237972
9.28 -0.239501
9.29 -0.240803
9.3 -0.241782
9.31 -0.242329
9.32 -0.242406
9.33 -0.24196
9.34 -0.240955
9.35 -0.239373
9.36 -0.237211
9.37 -0.234445
9.38 -0.231145
9.39 -0.227387
9.4 -0.223242
9.41 -0.218789
9.42 -0.214116
9.43 -0.209315
9.44 -0.204483
9.45 -0.199716
9.46 -0.195087
9.47 -0.190657
9.48 -0.186471
9.49 -0.182554
9.5 -0.178931
9.51 -0.175571
9.52 -0.172419
9.53 -0.169412
9.54 -0.166467
9.55 -0.163489
9.56 -0.160363
9.57 -0.156929
9.58 -0.153083
9.59 -0.1487
9.6 -0.143663
9.61 -0.137866
9.62 -0.131213
9.63 -0.123567
9.64 -0.114873
9.65 -0.105156
9.66 -0.0944122
9.67 -0.0826617
9.68 -0.0699491
9.69 -0.0563412
9.7 -0.0418432
9.71 -0.0266638
9.72 -0.0109252
9.73 0.00524354
9.74 0.0217087
9.75 0.0383364
9.76 0.0549922
9.77 0.0715366
9.78 0.0878627
9.79 0.10388
9.8 0.119516
9.81 0.134717
9.82 0.149448
9.83 0.163645
9.84 0.17736
9.85 0.190624
9.86 0.203475
9.87 0.215962
9.88 0.22814
9.89 0.240061
9.9 0.251783
9.91 0.263377
9.92 0.274886
9.93 0.286341
9.94 0.297759
9.95 0.30914
9.96 0.320459
9.97 0.331679
9.98 0.342745
9.99 0.353586
10 0.364118
10.01 0.374245
10.02 0.383848
10.03 0.392771
10.04 0.400956
10.05 0.408305
10.06 0.414729
10.07 0.420152
10.08 0.424515
10.09 0.427685
10.1 0.429698
10.11 0.4306
10.12 0.430425
10.13 0.429228
10.14 0.427085
10.15 0.424079
10.16 0.420277
10.17 0.415891
10.18 0.411058
10.19 0.405917
10.2 0.400612
10.21 0.395278
10.22 0.390061
10.23 0.385091
10.24 0.38046
10.25 0.376247
10.26 0.372511
10.27 0.36929
10.28 0.366603
10.29 0.364494
10.3 0.362875
10.31 0.361692
10.32 0.360881
10.33 0.360361
10.34 0.360043
10.35 0.359828
10.36 0.359601
10.37 0.359257
10.38 0.3587
10.39 0.35784
10.4 0.356599
10.41 0.354906
10.42 0.352641
10.43 0.349816
10.44 0.346404
10.45 0.34239
10.46 0.337772
10.47 0.332556
10.48 0.32673
10.49 0.320308
10.5 0.313355
10.51 0.305901
10.52 0.29797
10.53 0.289588
10.54 0.280773
10.55 0.271499
10.56 0.261811
10.57 0.251713
10.58 0.2412
10.59 0.230259
10.6 0.218875
10.61 0.20701
10.62 0.194619
10.63 0.181721
10.64 0.168298
10.65 0.154342
10.66 0.139848
10.67 0.124823
10.68 0.109237
10.69 0.0931575
10.7 0.0766406
10.71 0.0597409
10.72 0.0425245
10.73 0.0250679
10.74 0.00745458
10.75 -0.0102146
10.76 -0.0278301
10.77 -0.0452939
10.78 -0.0625098
10.79 -0.0793863
10.8 -0.0958394
10.81 -0.11175
10.82 -0.127073
10.83 -0.141783
10.84 -0.155854
10.85 -0.169277
10.86 -0.18206
10.87 -0.194217
10.88 -0.205747
10.89 -0.216771
10.9 -0.22736
10.91 -0.237594
10.92 -0.247557
10.93 -0.257339
10.94 -0.267029
10.95 -0.276724
10.96 -0.286503
10.97 -0.296432
10.98 -0.30656
10.99 -0.316923
11 -0.327541
11.01 -0.338439
11.02 -0.349563
11.03 -0.36087
11.04 -0.3723
11.05 -0.383777
11.06 -0.395209
11.07 -0.40648
11.08 -0.417461
11.09 -0.428044
11.1 -0.43811
11.11 -0.447545
11.12 -0.456237
11.13 -0.464084
11.14 -0.470883
11.15 -0.47665
11.16 -0.481334
11.17 -0.484893
11.18 -0.487306
11.19 -0.488568
11.2 -0.488641
11.21 -0.487533
11.22 -0.485373
11.23 -0.48222
11.24 -0.478145
11.25 -0.473225
11.26 -0.467541
11.27 -0.461118
11.28 -0.454102
11.29 -0.446582
11.3 -0.438629
11.31 -0.430305
11.32 -0.421662
11.33 -0.412731
11.34 -0.40353
11.35 -0.394095
11.36 -0.384428
11.37 -0.374516
11.38 -0.364342
11.39 -0.353877
11.4 -0.343055
11.41 -0.331852
11.42 -0.320239
11.43 -0.308178
11.44 -0.295633
11.45 -0.282576
11.46 -0.268973
11.47 -0.254774
11.48 -0.240032
11.49 -0.224761
11.5 -0.208989
11.51 -0.192755
11.52 -0.176113
11.53 -0.159105
11.54 -0.141831
11.55 -0.124392
11.56 -0.10688
11.57 -0.0893936
11.58 -0.0720349
11.59 -0.05491
11.6 -0.0381612
11.61 -0.0218574
11.62 -0.00608696
11.63 0.00907035
11.64 0.023545
11.65 0.0372789
11.66 0.0501727
11.67 0.0622037
11.68 0.0733981
11.69 0.0837553
11.7 0.0932879
11.71 0.102021
11.72 0.10999
11.73 0.117167
11.74 0.123696
11.75 0.129641
11.76 0.135068
11.77 0.140048
11.78 0.14465
11.79 0.14893
11.8 0.152958
11.81 0.15681
11.82 0.160535
11.83 0.164174
11.84 0.167757
11.85 0.171304
11.86 0.17482
11.87 0.178304
11.88 0.18174
11.89 0.185099
11.9 0.188346
11.91 0.191436
11.92 0.194302
11.93 0.19687
11.94 0.19909
11.95 0.200897
11.96 0.202223
11.97 0.203001
11.98 0.203167
11.99 0.202591
12 0.201264
12.01 0.199154
12.02 0.196223
12.03 0.192438
12.04 0.187781
12.05 0.182207
12.06 0.17567
12.07 0.168251
12.08 0.159965
12.09 0.150836
12.1 0.140893
12.11 0.130171
12.12 0.118651
12.13 0.106421
12.14 0.0935527
12.15 0.0800938
12.16 0.0660938
12.17 0.0516025
12.18 0.036661
