# xPDFsuite Configuration #
[PDF]
wavelength = 0.1
dataformat = QA
inputfile = BiMsol6_insitu_700 C-00086.xy
backgroundfile = Quartz2mm-dist500-00000.xy
mode = xray
bgscale = 0.0042
composition = Bi2Fe4O9
outputtype = gr
qmaxinst = 24.998449118
qmin = 0.1
qmax = 21.4986662415
rmax = 80.0
rmin = 0.0
rstep = 0.01
rpoly = 0.9

[Misc]
inputdir = C:/Data/Seafile/CPH/Beamtime/Desy Oct 20/In situ data/Processed/BiMsol6/PDF
savedir = C:/Data/Seafile/CPH/Beamtime/Desy Oct 20/In situ data/PDF/BiMsol6
backgroundfilefull = C:/Data/Seafile/CPH/Beamtime/Desy Oct 20/In situ data/Processed/Standard_Empty_Cap/Quartz2mm-dist500-00000.xy

#### start data
#S 1
#L r($\AA$)  G($\AA^{-2}$)
0 0
0.01 0.00650643
0.02 0.0126508
0.03 0.0181231
0.04 0.0226449
0.05 0.0259825
0.06 0.0279569
0.07 0.0283721
0.08 0.0271696
0.09 0.0244912
0.1 0.0204527
0.11 0.0152349
0.12 0.00907572
0.13 0.00225953
0.14 -0.00489529
0.15 -0.0119832
0.16 -0.0186623
0.17 -0.0246116
0.18 -0.0295423
0.19 -0.0332119
0.2 -0.0353708
0.21 -0.0358463
0.22 -0.0347309
0.23 -0.0320856
0.24 -0.0280492
0.25 -0.0228339
0.26 -0.0167174
0.27 -0.0100134
0.28 -0.00318321
0.29 0.00336296
0.3 0.00922633
0.31 0.0140266
0.32 0.0174205
0.33 0.0190601
0.34 0.0186036
0.35 0.0160939
0.36 0.0115214
0.37 0.00497917
0.38 -0.00333502
0.39 -0.0131213
0.4 -0.0240337
0.41 -0.0354646
0.42 -0.0468164
0.43 -0.0574814
0.44 -0.0668295
0.45 -0.0742315
0.46 -0.0790219
0.47 -0.0803444
0.48 -0.0780042
0.49 -0.0716498
0.5 -0.0610496
0.51 -0.0461069
0.52 -0.0268699
0.53 -0.00326562
0.54 0.0241667
0.55 0.0547136
0.56 0.087711
0.57 0.122381
0.58 0.157851
0.59 0.193173
0.6 0.227131
0.61 0.258774
0.62 0.287143
0.63 0.311337
0.64 0.330548
0.65 0.344079
0.66 0.350966
0.67 0.350816
0.68 0.343804
0.69 0.329938
0.7 0.309412
0.71 0.282596
0.72 0.250034
0.73 0.211938
0.74 0.169807
0.75 0.124617
0.76 0.0774021
0.77 0.0292388
0.78 -0.018789
0.79 -0.0655064
0.8 -0.109734
0.81 -0.15067
0.82 -0.18754
0.83 -0.219709
0.84 -0.246694
0.85 -0.268179
0.86 -0.283436
0.87 -0.293032
0.88 -0.297277
0.89 -0.296553
0.9 -0.291374
0.91 -0.282363
0.92 -0.270142
0.93 -0.255506
0.94 -0.239496
0.95 -0.222914
0.96 -0.206531
0.97 -0.191065
0.98 -0.177155
0.99 -0.165577
1 -0.15665
1.01 -0.150595
1.02 -0.147561
1.03 -0.147571
1.04 -0.150526
1.05 -0.156283
1.06 -0.16463
1.07 -0.174919
1.08 -0.186687
1.09 -0.199435
1.1 -0.21265
1.11 -0.225827
1.12 -0.238411
1.13 -0.249947
1.14 -0.260106
1.15 -0.268615
1.16 -0.275287
1.17 -0.280021
1.18 -0.282778
1.19 -0.283502
1.2 -0.282562
1.21 -0.280203
1.22 -0.27672
1.23 -0.272443
1.24 -0.267726
1.25 -0.262945
1.26 -0.258488
1.27 -0.254662
1.28 -0.251721
1.29 -0.249866
1.3 -0.249228
1.31 -0.249877
1.32 -0.251924
1.33 -0.255122
1.34 -0.259302
1.35 -0.264239
1.36 -0.26966
1.37 -0.27526
1.38 -0.280686
1.39 -0.285562
1.4 -0.28959
1.41 -0.292491
1.42 -0.294031
1.43 -0.294034
1.44 -0.292385
1.45 -0.288858
1.46 -0.283684
1.47 -0.276999
1.48 -0.269001
1.49 -0.25995
1.5 -0.250158
1.51 -0.239979
1.52 -0.229853
1.53 -0.220191
1.54 -0.211377
1.55 -0.203764
1.56 -0.197666
1.57 -0.193344
1.58 -0.1912
1.59 -0.191182
1.6 -0.19327
1.61 -0.197389
1.62 -0.203379
1.63 -0.211002
1.64 -0.21998
1.65 -0.22992
1.66 -0.240284
1.67 -0.25061
1.68 -0.260419
1.69 -0.269239
1.7 -0.276618
1.71 -0.281943
1.72 -0.284939
1.73 -0.285386
1.74 -0.283092
1.75 -0.277954
1.76 -0.269961
1.77 -0.259128
1.78 -0.245489
1.79 -0.229574
1.8 -0.211731
1.81 -0.19237
1.82 -0.171942
1.83 -0.150931
1.84 -0.129863
1.85 -0.109291
1.86 -0.0896732
1.87 -0.0714219
1.88 -0.0548931
1.89 -0.0403745
1.9 -0.028111
1.91 -0.0184399
1.92 -0.0111467
1.93 -0.0061626
1.94 -0.00333907
1.95 -0.00245486
1.96 -0.00322647
1.97 -0.00538395
1.98 -0.00847655
1.99 -0.0120505
2 -0.0157159
2.01 -0.0191
2.02 -0.021862
2.03 -0.0237026
2.04 -0.0242371
2.05 -0.0234261
2.06 -0.0211952
2.07 -0.017548
2.08 -0.0125664
2.09 -0.00640741
2.1 0.000740009
2.11 0.00853969
2.12 0.0165901
2.13 0.0245131
2.14 0.0319137
2.15 0.0383945
2.16 0.0435721
2.17 0.0468745
2.18 0.0481374
2.19 0.0471327
2.2 0.0436872
2.21 0.037702
2.22 0.0291574
2.23 0.0180071
2.24 0.00436151
2.25 -0.0113673
2.26 -0.0288797
2.27 -0.0478207
2.28 -0.0677919
2.29 -0.0883645
2.3 -0.109064
2.31 -0.129385
2.32 -0.1489
2.33 -0.167213
2.34 -0.183974
2.35 -0.198888
2.36 -0.211644
2.37 -0.221958
2.38 -0.229938
2.39 -0.23559
2.4 -0.238992
2.41 -0.240292
2.42 -0.239698
2.43 -0.237354
2.44 -0.2337
2.45 -0.229121
2.46 -0.22397
2.47 -0.218599
2.48 -0.213352
2.49 -0.208564
2.5 -0.204605
2.51 -0.201659
2.52 -0.199905
2.53 -0.199467
2.54 -0.200408
2.55 -0.202736
2.56 -0.206495
2.57 -0.211512
2.58 -0.21757
2.59 -0.22447
2.6 -0.231986
2.61 -0.239868
2.62 -0.24786
2.63 -0.25566
2.64 -0.26302
2.65 -0.269719
2.66 -0.275566
2.67 -0.280402
2.68 -0.284108
2.69 -0.286527
2.7 -0.287642
2.71 -0.287536
2.72 -0.286267
2.73 -0.283932
2.74 -0.280653
2.75 -0.276579
2.76 -0.271825
2.77 -0.266655
2.78 -0.261247
2.79 -0.255773
2.8 -0.250389
2.81 -0.245237
2.82 -0.240455
2.83 -0.236147
2.84 -0.23234
2.85 -0.229058
2.86 -0.226292
2.87 -0.224007
2.88 -0.222142
2.89 -0.22064
2.9 -0.219359
2.91 -0.218182
2.92 -0.216992
2.93 -0.215673
2.94 -0.214112
2.95 -0.212191
2.96 -0.209796
2.97 -0.206891
2.98 -0.20343
2.99 -0.199387
3 -0.19476
3.01 -0.189566
3.02 -0.183793
3.03 -0.177542
3.04 -0.170889
3.05 -0.16391
3.06 -0.156683
3.07 -0.149287
3.08 -0.141797
3.09 -0.134285
3.1 -0.126812
3.11 -0.119417
3.12 -0.112123
3.13 -0.104935
3.14 -0.097843
3.15 -0.0908217
3.16 -0.0838171
3.17 -0.0767681
3.18 -0.069606
3.19 -0.0622556
3.2 -0.0546379
3.21 -0.0466654
3.22 -0.0382223
3.23 -0.0292773
3.24 -0.0197746
3.25 -0.00967156
3.26 0.00106041
3.27 0.0124342
3.28 0.0244926
3.29 0.037192
3.3 0.0504674
3.31 0.0642684
3.32 0.0785339
3.33 0.0931949
3.34 0.108179
3.35 0.123422
3.36 0.138817
3.37 0.15429
3.38 0.169775
3.39 0.185214
3.4 0.20056
3.41 0.215766
3.42 0.230803
3.43 0.245669
3.44 0.26036
3.45 0.274884
3.46 0.289252
3.47 0.303482
3.48 0.31758
3.49 0.331578
3.5 0.345489
3.51 0.359317
3.52 0.373056
3.53 0.38669
3.54 0.400181
3.55 0.413472
3.56 0.426511
3.57 0.439221
3.58 0.451515
3.59 0.463291
3.6 0.474441
3.61 0.484757
3.62 0.494177
3.63 0.50259
3.64 0.509881
3.65 0.515944
3.66 0.520682
3.67 0.523951
3.68 0.525626
3.69 0.525773
3.7 0.524372
3.71 0.521422
3.72 0.516946
3.73 0.510987
3.74 0.503488
3.75 0.494643
3.76 0.484592
3.77 0.473456
3.78 0.461364
3.79 0.448457
3.8 0.434864
3.81 0.420719
3.82 0.406222
3.83 0.391511
3.84 0.376717
3.85 0.361958
3.86 0.347343
3.87 0.332992
3.88 0.31898
3.89 0.305359
3.9 0.292174
3.91 0.279455
3.92 0.267218
3.93 0.255476
3.94 0.244255
3.95 0.233489
3.96 0.223149
3.97 0.213199
3.98 0.203602
3.99 0.194316
4 0.185313
4.01 0.176539
4.02 0.16794
4.03 0.159477
4.04 0.151115
4.05 0.142823
4.06 0.134573
4.07 0.126341
4.08 0.118107
4.09 0.109857
4.1 0.101584
4.11 0.093284
4.12 0.0849568
4.13 0.0766061
4.14 0.0682421
4.15 0.0598789
4.16 0.0515329
4.17 0.0432236
4.18 0.0349738
4.19 0.0268089
4.2 0.0187731
4.21 0.0108877
4.22 0.00318458
4.23 -0.00430279
4.24 -0.0115404
4.25 -0.0184947
4.26 -0.0251157
4.27 -0.0313621
4.28 -0.0372289
4.29 -0.042693
4.3 -0.0477366
4.31 -0.0523477
4.32 -0.0565206
4.33 -0.0602135
4.34 -0.0634763
4.35 -0.0663349
4.36 -0.0688166
4.37 -0.0709562
4.38 -0.0727955
4.39 -0.0743749
4.4 -0.0757472
4.41 -0.0769889
4.42 -0.078159
4.43 -0.0793163
4.44 -0.0805178
4.45 -0.0818171
4.46 -0.0832792
4.47 -0.0849389
4.48 -0.0868222
4.49 -0.0889487
4.5 -0.0913271
4.51 -0.0939547
4.52 -0.0968228
4.53 -0.099914
4.54 -0.103168
4.55 -0.106537
4.56 -0.109965
4.57 -0.113389
4.58 -0.116743
4.59 -0.119942
4.6 -0.122917
4.61 -0.125611
4.62 -0.127964
4.63 -0.129928
4.64 -0.131464
4.65 -0.132533
4.66 -0.13308
4.67 -0.13315
4.68 -0.132757
4.69 -0.131928
4.7 -0.1307
4.71 -0.129122
4.72 -0.127239
4.73 -0.125134
4.74 -0.122891
4.75 -0.120587
4.76 -0.118296
4.77 -0.116092
4.78 -0.114044
4.79 -0.112243
4.8 -0.110721
4.81 -0.10952
4.82 -0.108668
4.83 -0.108183
4.84 -0.108073
4.85 -0.108351
4.86 -0.109
4.87 -0.10997
4.88 -0.111225
4.89 -0.112724
4.9 -0.114423
4.91 -0.116273
4.92 -0.118234
4.93 -0.120244
4.94 -0.122261
4.95 -0.124249
4.96 -0.126178
4.97 -0.128022
4.98 -0.129762
4.99 -0.131384
5 -0.132895
5.01 -0.1343
5.02 -0.135608
5.03 -0.136834
5.04 -0.137993
5.05 -0.139098
5.06 -0.140169
5.07 -0.141222
5.08 -0.142264
5.09 -0.143302
5.1 -0.144333
5.11 -0.145352
5.12 -0.146344
5.13 -0.147292
5.14 -0.148173
5.15 -0.148962
5.16 -0.149631
5.17 -0.150153
5.18 -0.150483
5.19 -0.150604
5.2 -0.150503
5.21 -0.150167
5.22 -0.14959
5.23 -0.148773
5.24 -0.147721
5.25 -0.146442
5.26 -0.144987
5.27 -0.143391
5.28 -0.141696
5.29 -0.139948
5.3 -0.138198
5.31 -0.136501
5.32 -0.13491
5.33 -0.133467
5.34 -0.132207
5.35 -0.13116
5.36 -0.130343
5.37 -0.129766
5.38 -0.129443
5.39 -0.129327
5.4 -0.129386
5.41 -0.129574
5.42 -0.129835
5.43 -0.130106
5.44 -0.130308
5.45 -0.130357
5.46 -0.130183
5.47 -0.129716
5.48 -0.12889
5.49 -0.12765
5.5 -0.12595
5.51 -0.123703
5.52 -0.120951
5.53 -0.117702
5.54 -0.113978
5.55 -0.109821
5.56 -0.105287
5.57 -0.100437
5.58 -0.0953683
5.59 -0.0901945
5.6 -0.0850175
5.61 -0.0799405
5.62 -0.0750652
5.63 -0.0704874
5.64 -0.0663432
5.65 -0.0626723
5.66 -0.0595238
5.67 -0.0569313
5.68 -0.0549073
5.69 -0.053443
5.7 -0.0525281
5.71 -0.0521135
5.72 -0.0520838
5.73 -0.0523449
5.74 -0.0527892
5.75 -0.053299
5.76 -0.0537507
5.77 -0.0539894
5.78 -0.0538948
5.79 -0.0533595
5.8 -0.0522856
5.81 -0.050592
5.82 -0.0482179
5.83 -0.0451012
5.84 -0.0411933
5.85 -0.0365744
5.86 -0.0312894
5.87 -0.0254074
5.88 -0.0190194
5.89 -0.0122357
5.9 -0.00517091
5.91 0.00200473
5.92 0.00913913
5.93 0.0160881
5.94 0.0227128
5.95 0.0288842
5.96 0.0344734
5.97 0.0393274
5.98 0.0434361
5.99 0.0467598
6 0.0492859
6.01 0.0510299
6.02 0.0520352
6.03 0.0523285
6.04 0.052042
6.05 0.0513228
6.06 0.0503059
6.07 0.049137
6.08 0.0479674
6.09 0.0469522
6.1 0.0462832
6.11 0.0460735
6.12 0.0464389
6.13 0.0474742
6.14 0.0492501
6.15 0.0518104
6.16 0.0552207
6.17 0.0594515
6.18 0.0644097
6.19 0.0700176
6.2 0.0761734
6.21 0.0827543
6.22 0.0896206
6.23 0.0966176
6.24 0.103556
6.25 0.110275
6.26 0.116621
6.27 0.122449
6.28 0.127631
6.29 0.132012
6.3 0.135485
6.31 0.138046
6.32 0.139668
6.33 0.140351
6.34 0.140124
6.35 0.139043
6.36 0.137113
6.37 0.134522
6.38 0.131398
6.39 0.127875
6.4 0.12409
6.41 0.120185
6.42 0.116304
6.43 0.112602
6.44 0.109189
6.45 0.106167
6.46 0.103614
6.47 0.101589
6.48 0.100128
6.49 0.0992963
6.5 0.0990374
6.51 0.0992995
6.52 0.100025
6.53 0.101141
6.54 0.102558
6.55 0.104182
6.56 0.105901
6.57 0.107593
6.58 0.109156
6.59 0.110494
6.6 0.111521
6.61 0.112163
6.62 0.112322
6.63 0.111974
6.64 0.111116
6.65 0.109746
6.66 0.107879
6.67 0.105546
6.68 0.102784
6.69 0.0996328
6.7 0.0961997
6.71 0.0925596
6.72 0.0887895
6.73 0.0849663
6.74 0.081164
6.75 0.077462
6.76 0.073925
6.77 0.0705966
6.78 0.067513
6.79 0.0646988
6.8 0.062166
6.81 0.059917
6.82 0.0579655
6.83 0.0562575
6.84 0.0547616
6.85 0.0534407
6.86 0.0522536
6.87 0.0511575
6.88 0.0501102
6.89 0.0490657
6.9 0.047987
6.91 0.0468453
6.92 0.0456192
6.93 0.0442947
6.94 0.0428658
6.95 0.0413241
6.96 0.0396924
6.97 0.0379885
6.98 0.0362346
6.99 0.0344565
7 0.0326816
7.01 0.0309405
7.02 0.0292637
7.03 0.0276702
7.04 0.0261765
7.05 0.0247932
7.06 0.0235234
7.07 0.022363
7.08 0.0213085
7.09 0.0203287
7.1 0.0193948
7.11 0.018474
7.12 0.0175296
7.13 0.0165222
7.14 0.0154063
7.15 0.0141327
7.16 0.0126752
7.17 0.011005
7.18 0.00909984
7.19 0.00694596
7.2 0.00453902
7.21 0.00186358
7.22 -0.00104349
7.23 -0.00414634
7.24 -0.00740547
7.25 -0.0107725
7.26 -0.0141915
7.27 -0.0175984
7.28 -0.0209135
7.29 -0.0240708
7.3 -0.0270032
7.31 -0.029647
7.32 -0.0319438
7.33 -0.0338425
7.34 -0.035263
7.35 -0.0361921
7.36 -0.0366302
7.37 -0.0365748
7.38 -0.0360364
7.39 -0.0350388
7.4 -0.033612
7.41 -0.0317802
7.42 -0.0296457
7.43 -0.0272773
7.44 -0.02475
7.45 -0.0221425
7.46 -0.0195352
7.47 -0.0170193
7.48 -0.0146798
7.49 -0.0125823
7.5 -0.010789
7.51 -0.00935265
7.52 -0.00831555
7.53 -0.00771081
7.54 -0.0076044
7.55 -0.00795001
7.56 -0.00873731
7.57 -0.00994422
7.58 -0.0115379
7.59 -0.0134758
7.6 -0.015721
7.61 -0.0182068
7.62 -0.0208539
7.63 -0.0235977
7.64 -0.0263737
7.65 -0.0291189
7.66 -0.0317738
7.67 -0.0342626
7.68 -0.0365497
7.69 -0.0385984
7.7 -0.0403797
7.71 -0.0418742
7.72 -0.043072
7.73 -0.043959
7.74 -0.0445406
7.75 -0.044857
7.76 -0.0449356
7.77 -0.0448099
7.78 -0.0445188
7.79 -0.0441048
7.8 -0.0436097
7.81 -0.0430909
7.82 -0.0425944
7.83 -0.0421625
7.84 -0.0418341
7.85 -0.0416429
7.86 -0.0416238
7.87 -0.0418084
7.88 -0.0421949
7.89 -0.0427873
7.9 -0.0435817
7.91 -0.0445664
7.92 -0.045722
7.93 -0.0470322
7.94 -0.04845
7.95 -0.0499321
7.96 -0.0514347
7.97 -0.052911
7.98 -0.0543127
7.99 -0.0555864
8 -0.0566671
8.01 -0.0575224
8.02 -0.0581119
8.03 -0.0584007
8.04 -0.05836
8.05 -0.0579687
8.06 -0.057185
8.07 -0.0560205
8.08 -0.0544971
8.09 -0.0526321
8.1 -0.0504523
8.11 -0.0479931
8.12 -0.0452959
8.13 -0.0424031
8.14 -0.0393969
8.15 -0.0363413
8.16 -0.0333029
8.17 -0.0303499
8.18 -0.0275502
8.19 -0.0249885
8.2 -0.0227309
8.21 -0.0208199
8.22 -0.0193019
8.23 -0.0182138
8.24 -0.0175821
8.25 -0.0174233
8.26 -0.0177913
8.27 -0.0186191
8.28 -0.0198806
8.29 -0.0215381
8.3 -0.0235423
8.31 -0.0258335
8.32 -0.0283515
8.33 -0.0310086
8.34 -0.0337106
8.35 -0.0363733
8.36 -0.0389126
8.37 -0.0412463
8.38 -0.0432968
8.39 -0.0449471
8.4 -0.0461665
8.41 -0.0469088
8.42 -0.0471375
8.43 -0.046829
8.44 -0.0459739
8.45 -0.0445532
8.46 -0.0425767
8.47 -0.040119
8.48 -0.0372278
8.49 -0.0339617
8.5 -0.0303877
8.51 -0.02658
8.52 -0.0226099
8.53 -0.0185796
8.54 -0.0145717
8.55 -0.0106627
8.56 -0.00692381
8.57 -0.00341841
8.58 -0.000212216
8.59 0.00263078
8.6 0.00510685
8.61 0.00720019
8.62 0.00890758
8.63 0.010238
8.64 0.0112121
8.65 0.011836
8.66 0.0121747
8.67 0.0122866
8.68 0.0122252
8.69 0.0120467
8.7 0.0118077
8.71 0.0115642
8.72 0.0113771
8.73 0.0112899
8.74 0.0113394
8.75 0.0115537
8.76 0.0119519
8.77 0.012543
8.78 0.0133403
8.79 0.0143239
8.8 0.0154652
8.81 0.0167356
8.82 0.0181011
8.83 0.0195231
8.84 0.0209602
8.85 0.0223627
8.86 0.0236897
8.87 0.0249041
8.88 0.0259736
8.89 0.026872
8.9 0.0275799
8.91 0.0280725
8.92 0.0283497
8.93 0.028429
8.94 0.0283249
8.95 0.0280587
8.96 0.0276574
8.97 0.0271527
8.98 0.0265756
8.99 0.0259736
9 0.0253824
9.01 0.0248355
9.02 0.0243626
9.03 0.0239885
9.04 0.0237389
9.05 0.0236275
9.06 0.0236491
9.07 0.0237985
9.08 0.0240634
9.09 0.0244248
9.1 0.0248579
9.11 0.0253345
9.12 0.0258142
9.13 0.0262623
9.14 0.0266451
9.15 0.0269306
9.16 0.0270908
9.17 0.0270954
9.18 0.0269209
9.19 0.0265709
9.2 0.0260459
9.21 0.0253543
9.22 0.0245127
9.23 0.0235449
9.24 0.022476
9.25 0.0213542
9.26 0.0202225
9.27 0.0191238
9.28 0.0181011
9.29 0.017196
9.3 0.0164524
9.31 0.0159168
9.32 0.0155993
9.33 0.0155154
9.34 0.0156716
9.35 0.0160644
9.36 0.0166808
9.37 0.0175119
9.38 0.0185101
9.39 0.0196271
9.4 0.020815
9.41 0.0220216
9.42 0.0231921
9.43 0.0242682
9.44 0.0251791
9.45 0.0258862
9.46 0.0263479
9.47 0.0265303
9.48 0.0264092
9.49 0.0259711
9.5 0.0251906
9.51 0.0240902
9.52 0.0227074
9.53 0.0210767
9.54 0.019242
9.55 0.0172551
9.56 0.0151737
9.57 0.0130646
9.58 0.0110005
9.59 0.00904428
9.6 0.00725503
9.61 0.00568626
9.62 0.00438376
9.63 0.00340451
9.64 0.00277364
9.65 0.00248474
9.66 0.00253578
9.67 0.00291245
9.68 0.00358865
9.69 0.00452745
9.7 0.00570115
9.71 0.00702469
9.72 0.00843682
9.73 0.00987393
9.74 0.0112721
9.75 0.0125693
9.76 0.0136973
9.77 0.0145956
9.78 0.0152358
9.79 0.0155885
9.8 0.0156363
9.81 0.015374
9.82 0.0148089
9.83 0.0139342
9.84 0.0128122
9.85 0.0114907
9.86 0.0100217
9.87 0.0084642
9.88 0.00688092
9.89 0.00534105
9.9 0.00392148
9.91 0.00267855
9.92 0.00166667
9.93 0.000932575
9.94 0.000513606
9.95 0.000436418
9.96 0.000749587
9.97 0.00142921
9.98 0.00245406
9.99 0.00379986
10 0.0054316
10.01 0.00730489
10.02 0.00937121
10.03 0.0115716
10.04 0.0138276
10.05 0.0160753
10.06 0.0182519
10.07 0.0202979
10.08 0.0221584
10.09 0.023763
10.1 0.0250793
10.11 0.0260878
10.12 0.0267705
10.13 0.0271199
10.14 0.0271385
10.15 0.0268328
10.16 0.0262035
10.17 0.025312
10.18 0.0241947
10.19 0.022892
10.2 0.0214468
10.21 0.0199034
10.22 0.0183043
10.23 0.0166974
10.24 0.0151216
10.25 0.0136085
10.26 0.0121843
10.27 0.0108688
10.28 0.00967662
10.29 0.00862849
10.3 0.00771051
10.31 0.00691739
10.32 0.00623955
10.33 0.00566407
10.34 0.00517581
10.35 0.00476166
10.36 0.00440252
10.37 0.00407939
10.38 0.00377914
10.39 0.00349125
10.4 0.00320827
10.41 0.00292599
10.42 0.00264374
10.43 0.00236443
10.44 0.00209341
10.45 0.00183782
10.46 0.0016058
10.47 0.00140564
10.48 0.00124712
10.49 0.00113751
10.5 0.00107666
10.51 0.00106384
10.52 0.00109452
10.53 0.00116011
10.54 0.00124793
10.55 0.00133984
10.56 0.00141255
10.57 0.00144256
10.58 0.00140481
10.59 0.0012738
10.6 0.00102475
10.61 0.000628796
10.62 5.77848e-05
10.63 -0.000690173
10.64 -0.00162242
10.65 -0.00273942
10.66 -0.00403414
10.67 -0.00549166
10.68 -0.00709904
10.69 -0.00881177
10.7 -0.010587
10.71 -0.0123798
10.72 -0.0141408
10.73 -0.0158179
10.74 -0.0173528
10.75 -0.0186747
10.76 -0.0197488
10.77 -0.0205326
10.78 -0.0209908
10.79 -0.0210971
10.8 -0.0208356
10.81 -0.0201728
10.82 -0.0191353
10.83 -0.0177604
10.84 -0.0160839
10.85 -0.0141525
10.86 -0.0120233
10.87 -0.00976105
10.88 -0.00744273
10.89 -0.00515778
10.9 -0.00298481
10.91 -0.00100092
10.92 0.000720835
10.93 0.00211401
10.94 0.00309137
10.95 0.00360988
10.96 0.00365922
10.97 0.00322466
10.98 0.00230687
10.99 0.000922194
11 -0.000899358
11.01 -0.00314616
11.02 -0.00570693
11.03 -0.00850753
11.04 -0.0114651
11.05 -0.0144908
11.06 -0.0174923
11.07 -0.0203647
11.08 -0.0230042
11.09 -0.0253359
11.1 -0.0272861
11.11 -0.0287923
11.12 -0.0298049
11.13 -0.0302894
11.14 -0.0301658
11.15 -0.0294911
11.16 -0.0282866
11.17 -0.0265853
11.18 -0.0244341
11.19 -0.0218924
11.2 -0.0190186
11.21 -0.0158967
11.22 -0.0126321
11.23 -0.00931039
11.24 -0.00601575
11.25 -0.00282883
11.26 0.000175899
11.27 0.002902
11.28 0.00530993
11.29 0.00736352
11.3 0.00903497
11.31 0.0103097
11.32 0.0111863
11.33 0.011663
11.34 0.0117505
11.35 0.0115157
11.36 0.0110019
11.37 0.0102586
11.38 0.00933884
11.39 0.00829737
11.4 0.00718706
11.41 0.00606898
11.42 0.00499024
11.43 0.00398966
11.44 0.00309838
11.45 0.00233898
11.46 0.00172876
11.47 0.00128211
11.48 0.000979053
11.49 0.000805715
11.5 0.000741731
11.51 0.00076163
11.52 0.00083638
11.53 0.00093441
11.54 0.00101977
11.55 0.00106286
11.56 0.00103841
11.57 0.000926004
11.58 0.000711114
11.59 0.000384456
11.6 -6.38765e-05
11.61 -0.000613708
11.62 -0.00124957
11.63 -0.00194981
11.64 -0.00268752
11.65 -0.00343177
11.66 -0.00414484
11.67 -0.00478746
11.68 -0.00532771
11.69 -0.00573471
11.7 -0.00598174
11.71 -0.0060476
11.72 -0.00591727
11.73 -0.00556088
11.74 -0.00500452
11.75 -0.00425973
11.76 -0.00334605
11.77 -0.00229047
11.78 -0.0011265
11.79 0.000108338
11.8 0.00136445
11.81 0.00259254
11.82 0.00374725
11.83 0.00478501
11.84 0.00566575
