# xPDFsuite Configuration #
[PDF]
wavelength = 0.1
dataformat = QA
inputfile = BiMsol6_insitu_700 C-00032.xy
backgroundfile = Quartz2mm-dist500-00000.xy
mode = xray
bgscale = 0.0042
composition = Bi2Fe4O9
outputtype = gr
qmaxinst = 24.998449118
qmin = 0.1
qmax = 21.4986662415
rmax = 80.0
rmin = 0.0
rstep = 0.01
rpoly = 0.9

[Misc]
inputdir = C:/Data/Seafile/CPH/Beamtime/Desy Oct 20/In situ data/Processed/BiMsol6/PDF
savedir = C:/Data/Seafile/CPH/Beamtime/Desy Oct 20/In situ data/PDF/BiMsol6
backgroundfilefull = C:/Data/Seafile/CPH/Beamtime/Desy Oct 20/In situ data/Processed/Standard_Empty_Cap/Quartz2mm-dist500-00000.xy

#### start data
#S 1
#L r($\AA$)  G($\AA^{-2}$)
0 0
0.01 0.00683727
0.02 0.0132953
0.03 0.0190493
0.04 0.0238077
0.05 0.0273254
0.06 0.0294148
0.07 0.0298704
0.08 0.0286303
0.09 0.0258428
0.1 0.0216285
0.11 0.0161764
0.12 0.00973516
0.13 0.00260198
0.14 -0.00489058
0.15 -0.0123177
0.16 -0.0193216
0.17 -0.025566
0.18 -0.0307479
0.19 -0.0346132
0.2 -0.0368996
0.21 -0.0374249
0.22 -0.036284
0.23 -0.0335391
0.24 -0.0293333
0.25 -0.0238865
0.26 -0.0174867
0.27 -0.0104586
0.28 -0.00328319
0.29 0.00361216
0.3 0.00981185
0.31 0.0149193
0.32 0.0185758
0.33 0.020418
0.34 0.0200879
0.35 0.0176266
0.36 0.0130204
0.37 0.00636229
0.38 -0.00214655
0.39 -0.0121993
0.4 -0.0234436
0.41 -0.0352535
0.42 -0.0470132
0.43 -0.0580972
0.44 -0.0678569
0.45 -0.0756446
0.46 -0.0807754
0.47 -0.0823701
0.48 -0.0802249
0.49 -0.0739773
0.5 -0.0633886
0.51 -0.0483583
0.52 -0.0289345
0.53 -0.00504197
0.54 0.0227682
0.55 0.0537662
0.56 0.0872734
0.57 0.122495
0.58 0.15854
0.59 0.19444
0.6 0.228958
0.61 0.261123
0.62 0.289958
0.63 0.314551
0.64 0.334079
0.65 0.34784
0.66 0.354856
0.67 0.354734
0.68 0.347659
0.69 0.333645
0.7 0.312894
0.71 0.285789
0.72 0.252887
0.73 0.214413
0.74 0.171886
0.75 0.126298
0.76 0.078698
0.77 0.0301739
0.78 -0.0181796
0.79 -0.0651772
0.8 -0.109633
0.81 -0.150746
0.82 -0.187744
0.83 -0.219996
0.84 -0.247024
0.85 -0.268521
0.86 -0.283767
0.87 -0.293343
0.88 -0.29757
0.89 -0.296837
0.9 -0.291669
0.91 -0.282695
0.92 -0.270543
0.93 -0.256012
0.94 -0.240138
0.95 -0.22372
0.96 -0.207523
0.97 -0.192255
0.98 -0.178546
0.99 -0.167158
1 -0.158396
1.01 -0.152471
1.02 -0.149521
1.03 -0.149557
1.04 -0.152475
1.05 -0.158126
1.06 -0.166292
1.07 -0.176335
1.08 -0.187799
1.09 -0.200194
1.1 -0.213024
1.11 -0.225799
1.12 -0.237983
1.13 -0.249147
1.14 -0.25898
1.15 -0.26723
1.16 -0.273729
1.17 -0.278392
1.18 -0.281196
1.19 -0.282101
1.2 -0.281472
1.21 -0.279547
1.22 -0.276615
1.23 -0.272993
1.24 -0.269016
1.25 -0.26504
1.26 -0.261421
1.27 -0.258431
1.28 -0.256295
1.29 -0.255181
1.3 -0.255191
1.31 -0.256363
1.32 -0.258766
1.33 -0.26215
1.34 -0.266333
1.35 -0.271082
1.36 -0.276127
1.37 -0.281171
1.38 -0.285869
1.39 -0.289871
1.4 -0.29292
1.41 -0.294772
1.42 -0.295233
1.43 -0.294167
1.44 -0.291503
1.45 -0.28707
1.46 -0.281132
1.47 -0.273858
1.48 -0.265474
1.49 -0.256259
1.5 -0.24654
1.51 -0.236686
1.52 -0.227133
1.53 -0.218262
1.54 -0.210428
1.55 -0.203954
1.56 -0.199114
1.57 -0.196126
1.58 -0.195342
1.59 -0.196652
1.6 -0.199989
1.61 -0.205231
1.62 -0.21218
1.63 -0.220562
1.64 -0.230063
1.65 -0.240263
1.66 -0.250639
1.67 -0.260734
1.68 -0.270087
1.69 -0.278251
1.7 -0.284813
1.71 -0.289194
1.72 -0.291186
1.73 -0.290626
1.74 -0.287378
1.75 -0.281396
1.76 -0.27272
1.77 -0.261418
1.78 -0.247586
1.79 -0.231758
1.8 -0.214301
1.81 -0.195625
1.82 -0.176175
1.83 -0.156411
1.84 -0.136839
1.85 -0.117949
1.86 -0.100129
1.87 -0.0837266
1.88 -0.069024
1.89 -0.0562338
1.9 -0.0455214
1.91 -0.0371207
1.92 -0.0307707
1.93 -0.0263456
1.94 -0.0236508
1.95 -0.0224322
1.96 -0.0223879
1.97 -0.0232134
1.98 -0.0244851
1.99 -0.0258071
2 -0.0268387
2.01 -0.0272702
2.02 -0.0268357
2.03 -0.0253203
2.04 -0.0224349
2.05 -0.0182524
2.06 -0.0127942
2.07 -0.00615689
2.08 0.00149143
2.09 0.00991681
2.1 0.0188356
2.11 0.0278533
2.12 0.0365664
2.13 0.0445839
2.14 0.0515149
2.15 0.0569842
2.16 0.0606469
2.17 0.0619432
2.18 0.060831
2.19 0.0571667
2.2 0.0508652
2.21 0.0419207
2.22 0.0304074
2.23 0.0163792
2.24 4.9747e-05
2.25 -0.0180994
2.26 -0.0377033
2.27 -0.0583546
2.28 -0.0796172
2.29 -0.10104
2.3 -0.1221
2.31 -0.142338
2.32 -0.161365
2.33 -0.178825
2.34 -0.194421
2.35 -0.207918
2.36 -0.219066
2.37 -0.227658
2.38 -0.233885
2.39 -0.237819
2.4 -0.239601
2.41 -0.239431
2.42 -0.23756
2.43 -0.234187
2.44 -0.229757
2.45 -0.224654
2.46 -0.21922
2.47 -0.213789
2.48 -0.208672
2.49 -0.204168
2.5 -0.200601
2.51 -0.198092
2.52 -0.196768
2.53 -0.1967
2.54 -0.197909
2.55 -0.20036
2.56 -0.20405
2.57 -0.208789
2.58 -0.214361
2.59 -0.220571
2.6 -0.227206
2.61 -0.234047
2.62 -0.24087
2.63 -0.247421
2.64 -0.253517
2.65 -0.258995
2.66 -0.263724
2.67 -0.267601
2.68 -0.270564
2.69 -0.27252
2.7 -0.273492
2.71 -0.273575
2.72 -0.27284
2.73 -0.271379
2.74 -0.269303
2.75 -0.266729
2.76 -0.263753
2.77 -0.26055
2.78 -0.257233
2.79 -0.253898
2.8 -0.250627
2.81 -0.247481
2.82 -0.244509
2.83 -0.24173
2.84 -0.239122
2.85 -0.236656
2.86 -0.234287
2.87 -0.231956
2.88 -0.229595
2.89 -0.227114
2.9 -0.224444
2.91 -0.221519
2.92 -0.218283
2.93 -0.214692
2.94 -0.210718
2.95 -0.20633
2.96 -0.201526
2.97 -0.196364
2.98 -0.190886
2.99 -0.18515
3 -0.179223
3.01 -0.17318
3.02 -0.167105
3.03 -0.161084
3.04 -0.155189
3.05 -0.14948
3.06 -0.144001
3.07 -0.138783
3.08 -0.133844
3.09 -0.129184
3.1 -0.124743
3.11 -0.120464
3.12 -0.116273
3.13 -0.112079
3.14 -0.107781
3.15 -0.103237
3.16 -0.098329
3.17 -0.0929502
3.18 -0.0869927
3.19 -0.0803592
3.2 -0.0729674
3.21 -0.0647349
3.22 -0.0555507
3.23 -0.0454809
3.24 -0.0345358
3.25 -0.0227488
3.26 -0.0101759
3.27 0.00310703
3.28 0.0170444
3.29 0.0314944
3.3 0.046314
3.31 0.0613835
3.32 0.0765847
3.33 0.0918062
3.34 0.106946
3.35 0.121894
3.36 0.1366
3.37 0.151022
3.38 0.165144
3.39 0.178969
3.4 0.192525
3.41 0.20585
3.42 0.21902
3.43 0.232129
3.44 0.245266
3.45 0.258523
3.46 0.27199
3.47 0.28575
3.48 0.299922
3.49 0.314518
3.5 0.329562
3.51 0.345054
3.52 0.360965
3.53 0.377235
3.54 0.393785
3.55 0.410478
3.56 0.427148
3.57 0.443622
3.58 0.45971
3.59 0.475208
3.6 0.489905
3.61 0.503461
3.62 0.515742
3.63 0.526567
3.64 0.535763
3.65 0.543178
3.66 0.54869
3.67 0.552123
3.68 0.553344
3.69 0.552495
3.7 0.549602
3.71 0.544726
3.72 0.53796
3.73 0.529428
3.74 0.519148
3.75 0.507429
3.76 0.494503
3.77 0.480572
3.78 0.465847
3.79 0.450534
3.8 0.434829
3.81 0.418935
3.82 0.403053
3.83 0.387333
3.84 0.371904
3.85 0.35687
3.86 0.342313
3.87 0.328336
3.88 0.314947
3.89 0.302132
3.9 0.28988
3.91 0.27816
3.92 0.266933
3.93 0.256153
3.94 0.245787
3.95 0.235733
3.96 0.225931
3.97 0.216327
3.98 0.20687
3.99 0.197518
4 0.188241
4.01 0.179011
4.02 0.16981
4.03 0.160634
4.04 0.151485
4.05 0.142372
4.06 0.133308
4.07 0.12432
4.08 0.115419
4.09 0.106624
4.1 0.0979498
4.11 0.0894105
4.12 0.0810154
4.13 0.0727792
4.14 0.0647024
4.15 0.0567732
4.16 0.0489852
4.17 0.0413296
4.18 0.033797
4.19 0.0263776
4.2 0.0190749
4.21 0.0118719
4.22 0.0047679
4.23 -0.0022325
4.24 -0.00911928
4.25 -0.0158765
4.26 -0.0224739
4.27 -0.0288763
4.28 -0.0350619
4.29 -0.0409951
4.3 -0.0466389
4.31 -0.0519563
4.32 -0.0569124
4.33 -0.0614331
4.34 -0.0655256
4.35 -0.0691796
4.36 -0.0723881
4.37 -0.0751543
4.38 -0.077492
4.39 -0.0794123
4.4 -0.0809425
4.41 -0.0821629
4.42 -0.0831305
4.43 -0.0839097
4.44 -0.0845695
4.45 -0.0851819
4.46 -0.0858273
4.47 -0.0865813
4.48 -0.0875055
4.49 -0.0886543
4.5 -0.0900719
4.51 -0.0917903
4.52 -0.0938367
4.53 -0.0962341
4.54 -0.0989386
4.55 -0.101921
4.56 -0.105139
4.57 -0.108536
4.58 -0.112049
4.59 -0.115601
4.6 -0.119101
4.61 -0.122466
4.62 -0.125618
4.63 -0.128481
4.64 -0.130988
4.65 -0.133073
4.66 -0.134644
4.67 -0.135717
4.68 -0.136277
4.69 -0.136325
4.7 -0.135879
4.71 -0.134968
4.72 -0.133614
4.73 -0.131891
4.74 -0.129888
4.75 -0.12768
4.76 -0.125346
4.77 -0.122966
4.78 -0.12062
4.79 -0.118401
4.8 -0.116369
4.81 -0.114581
4.82 -0.11308
4.83 -0.111902
4.84 -0.111067
4.85 -0.110605
4.86 -0.110511
4.87 -0.110747
4.88 -0.111289
4.89 -0.112102
4.9 -0.113149
4.91 -0.114389
4.92 -0.11579
4.93 -0.117293
4.94 -0.118859
4.95 -0.120456
4.96 -0.122057
4.97 -0.123643
4.98 -0.125201
4.99 -0.126725
5 -0.128221
5.01 -0.129698
5.02 -0.131169
5.03 -0.13265
5.04 -0.134157
5.05 -0.13571
5.06 -0.13732
5.07 -0.138993
5.08 -0.140728
5.09 -0.142518
5.1 -0.144348
5.11 -0.146195
5.12 -0.148021
5.13 -0.149785
5.14 -0.151443
5.15 -0.152944
5.16 -0.154239
5.17 -0.155277
5.18 -0.15598
5.19 -0.156321
5.2 -0.156277
5.21 -0.155829
5.22 -0.154966
5.23 -0.153694
5.24 -0.152023
5.25 -0.149969
5.26 -0.147617
5.27 -0.145031
5.28 -0.142284
5.29 -0.139457
5.3 -0.136638
5.31 -0.13393
5.32 -0.131426
5.33 -0.129203
5.34 -0.127332
5.35 -0.12587
5.36 -0.124859
5.37 -0.12433
5.38 -0.12433
5.39 -0.124786
5.4 -0.125657
5.41 -0.126878
5.42 -0.128371
5.43 -0.130037
5.44 -0.131762
5.45 -0.13341
5.46 -0.134852
5.47 -0.135966
5.48 -0.136634
5.49 -0.136749
5.5 -0.136216
5.51 -0.134873
5.52 -0.132752
5.53 -0.12983
5.54 -0.126113
5.55 -0.121635
5.56 -0.116454
5.57 -0.110626
5.58 -0.104274
5.59 -0.0975661
5.6 -0.0906467
5.61 -0.0836686
5.62 -0.0767884
5.63 -0.0701607
5.64 -0.0639903
5.65 -0.0583814
5.66 -0.05344
5.67 -0.0492522
5.68 -0.045877
5.69 -0.0433438
5.7 -0.0416868
5.71 -0.0408872
5.72 -0.0408127
5.73 -0.0413646
5.74 -0.0424201
5.75 -0.0438365
5.76 -0.0454561
5.77 -0.0470986
5.78 -0.0485723
5.79 -0.0497118
5.8 -0.0503632
5.81 -0.050389
5.82 -0.0496738
5.83 -0.0480985
5.84 -0.0455546
5.85 -0.0420946
5.86 -0.0377336
5.87 -0.0325198
5.88 -0.0265328
5.89 -0.0198809
5.9 -0.0126653
5.91 -0.00509059
5.92 0.00265625
5.93 0.0103977
5.94 0.017956
5.95 0.0251599
5.96 0.0318358
5.97 0.0377803
5.98 0.042936
5.99 0.0472228
6 0.0505929
6.01 0.0530324
6.02 0.0545619
6.03 0.0551782
6.04 0.0550128
6.05 0.0542238
6.06 0.0529564
6.07 0.051374
6.08 0.0496515
6.09 0.0479722
6.1 0.0465573
6.11 0.0455669
6.12 0.0451528
6.13 0.0454452
6.14 0.0465478
6.15 0.0485342
6.16 0.0515037
6.17 0.0554468
6.18 0.0602744
6.19 0.0659131
6.2 0.0722582
6.21 0.0791773
6.22 0.0865149
6.23 0.0941048
6.24 0.101715
6.25 0.109155
6.26 0.116237
6.27 0.122785
6.28 0.128636
6.29 0.1336
6.3 0.137538
6.31 0.140429
6.32 0.142231
6.33 0.142934
6.34 0.142565
6.35 0.141181
6.36 0.138786
6.37 0.135601
6.38 0.131781
6.39 0.127486
6.4 0.122889
6.41 0.118166
6.42 0.113499
6.43 0.109088
6.44 0.105074
6.45 0.101588
6.46 0.0987369
6.47 0.0965994
6.48 0.0952264
6.49 0.0947114
6.5 0.0949812
6.51 0.0959708
6.52 0.0976065
6.53 0.099791
6.54 0.102407
6.55 0.105328
6.56 0.1084
6.57 0.11145
6.58 0.114333
6.59 0.116909
6.6 0.119051
6.61 0.120645
6.62 0.121539
6.63 0.121687
6.64 0.12107
6.65 0.119673
6.66 0.117504
6.67 0.114595
6.68 0.110991
6.69 0.106731
6.7 0.101977
6.71 0.0968365
6.72 0.0914271
6.73 0.0858698
6.74 0.0802863
6.75 0.0748093
6.76 0.0695612
6.77 0.0646339
6.78 0.0601102
6.79 0.0560572
6.8 0.0525246
6.81 0.0495486
6.82 0.047199
6.83 0.0454062
6.84 0.044145
6.85 0.043376
6.86 0.0430472
6.87 0.0430969
6.88 0.04347
6.89 0.044079
6.9 0.0448311
6.91 0.0456515
6.92 0.0464684
6.93 0.0472158
6.94 0.0478346
6.95 0.0482484
6.96 0.0484336
6.97 0.048361
6.98 0.0480107
6.99 0.047372
7 0.0464427
7.01 0.0452145
7.02 0.0436973
7.03 0.0419285
7.04 0.0399302
7.05 0.0377266
7.06 0.0353434
7.07 0.0328062
7.08 0.0301294
7.09 0.0273503
7.1 0.0244918
7.11 0.0215729
7.12 0.0186105
7.13 0.0156195
7.14 0.0126128
7.15 0.00960388
7.16 0.00660463
7.17 0.00362593
7.18 0.000679029
7.19 -0.00222399
7.2 -0.00506991
7.21 -0.00783598
7.22 -0.0105088
7.23 -0.0130723
7.24 -0.0155077
7.25 -0.0177952
7.26 -0.0199153
7.27 -0.0218429
7.28 -0.023545
7.29 -0.025023
7.3 -0.026264
7.31 -0.0272587
7.32 -0.0280014
7.33 -0.0284911
7.34 -0.0287119
7.35 -0.0286854
7.36 -0.0284351
7.37 -0.0279801
7.38 -0.0273433
7.39 -0.0265513
7.4 -0.0256317
7.41 -0.0246121
7.42 -0.0235368
7.43 -0.0224382
7.44 -0.0213474
7.45 -0.020294
7.46 -0.0193047
7.47 -0.0184108
7.48 -0.0176323
7.49 -0.0169796
7.5 -0.0164631
7.51 -0.016089
7.52 -0.0158596
7.53 -0.0157743
7.54 -0.0158423
7.55 -0.01604
7.56 -0.016358
7.57 -0.0167858
7.58 -0.0173124
7.59 -0.017927
7.6 -0.0186237
7.61 -0.0193925
7.62 -0.0202221
7.63 -0.0211074
7.64 -0.0220448
7.65 -0.0230327
7.66 -0.0240706
7.67 -0.0251647
7.68 -0.0263111
7.69 -0.0275104
7.7 -0.0287631
7.71 -0.0300688
7.72 -0.0314251
7.73 -0.03283
7.74 -0.0342767
7.75 -0.0357528
7.76 -0.0372465
7.77 -0.038744
7.78 -0.0402298
7.79 -0.0416866
7.8 -0.0430899
7.81 -0.0444236
7.82 -0.045671
7.83 -0.046816
7.84 -0.0478446
7.85 -0.0487455
7.86 -0.0495055
7.87 -0.0501139
7.88 -0.0505823
7.89 -0.0509152
7.9 -0.0511208
7.91 -0.0512109
7.92 -0.0512
7.93 -0.0510994
7.94 -0.0509348
7.95 -0.0507274
7.96 -0.0504954
7.97 -0.0502552
7.98 -0.0500208
7.99 -0.0498034
8 -0.0496114
8.01 -0.0494435
8.02 -0.0492958
8.03 -0.049159
8.04 -0.0490196
8.05 -0.0488599
8.06 -0.0486538
8.07 -0.0483763
8.08 -0.0480045
8.09 -0.0475145
8.1 -0.046884
8.11 -0.0460943
8.12 -0.0451283
8.13 -0.0439613
8.14 -0.0426117
8.15 -0.0410877
8.16 -0.0394057
8.17 -0.0375902
8.18 -0.0356738
8.19 -0.0336958
8.2 -0.0317112
8.21 -0.0297754
8.22 -0.0279439
8.23 -0.0262732
8.24 -0.0248191
8.25 -0.023635
8.26 -0.0228076
8.27 -0.0223426
8.28 -0.0222675
8.29 -0.0225986
8.3 -0.0233395
8.31 -0.0244804
8.32 -0.0260168
8.33 -0.027905
8.34 -0.0300686
8.35 -0.0324422
8.36 -0.0349505
8.37 -0.0375103
8.38 -0.0400329
8.39 -0.0424031
8.4 -0.0445339
8.41 -0.0463397
8.42 -0.0477408
8.43 -0.0486668
8.44 -0.0490596
8.45 -0.0488474
8.46 -0.0479842
8.47 -0.0465054
8.48 -0.0444223
8.49 -0.0417632
8.5 -0.0385735
8.51 -0.034914
8.52 -0.0308287
8.53 -0.0264459
8.54 -0.0218688
8.55 -0.0171981
8.56 -0.0125358
8.57 -0.00798195
8.58 -0.00364187
8.59 0.000372705
8.6 0.00400736
8.61 0.00720324
8.62 0.00991696
8.63 0.0121218
8.64 0.0138083
8.65 0.0149417
8.66 0.0155816
8.67 0.0157866
8.68 0.0156133
8.69 0.0151287
8.7 0.0144079
8.71 0.0135294
8.72 0.0125805
8.73 0.0116545
8.74 0.0108263
8.75 0.0101631
8.76 0.00972219
8.77 0.00954878
8.78 0.00969895
8.79 0.0101796
8.8 0.0109771
8.81 0.0120762
8.82 0.0134484
8.83 0.0150535
8.84 0.0168427
8.85 0.0187623
8.86 0.0207303
8.87 0.0226816
8.88 0.0245522
8.89 0.0262821
8.9 0.0278172
8.91 0.029094
8.92 0.0300768
8.93 0.0307582
8.94 0.0311301
8.95 0.0311971
8.96 0.0309763
8.97 0.0304954
8.98 0.0297728
8.99 0.0288863
9 0.0278896
9.01 0.0268395
9.02 0.0257936
9.03 0.0248072
9.04 0.0239401
9.05 0.023244
9.06 0.0227446
9.07 0.0224652
9.08 0.0224174
9.09 0.0226009
9.1 0.023004
9.11 0.0236207
9.12 0.0243932
9.13 0.025275
9.14 0.0262155
9.15 0.0271596
9.16 0.0280508
9.17 0.028826
9.18 0.0294207
9.19 0.0297987
9.2 0.0299232
9.21 0.0297677
9.22 0.0293169
9.23 0.0285677
9.24 0.0275043
9.25 0.0261749
9.26 0.0246224
9.27 0.0228938
9.28 0.0210445
9.29 0.019136
9.3 0.0172366
9.31 0.0154262
9.32 0.0137681
9.33 0.0123227
9.34 0.011143
9.35 0.0102732
9.36 0.00974614
9.37 0.00961374
9.38 0.00986251
9.39 0.0104701
9.4 0.0114124
9.41 0.0126526
9.42 0.0141425
9.43 0.0158266
9.44 0.0176399
9.45 0.0194934
9.46 0.0213138
9.47 0.0230288
9.48 0.02457
9.49 0.0258751
9.5 0.0268657
9.51 0.0275035
9.52 0.0277738
9.53 0.0276627
9.54 0.0271699
9.55 0.0263091
9.56 0.025104
9.57 0.0235696
9.58 0.0217936
9.59 0.0198352
9.6 0.0177592
9.61 0.015633
9.62 0.0135244
9.63 0.0115078
9.64 0.0096511
9.65 0.00800009
9.66 0.0065959
9.67 0.00546857
9.68 0.0046361
9.69 0.0041039
9.7 0.00389644
9.71 0.00395708
9.72 0.00425243
9.73 0.00474059
9.74 0.00537263
9.75 0.00609481
9.76 0.00684969
9.77 0.00757282
9.78 0.00821041
9.79 0.00871604
9.8 0.00905101
9.81 0.00918621
9.82 0.00910338
9.83 0.00877325
9.84 0.00822524
9.85 0.00748346
9.86 0.00658044
9.87 0.00555871
9.88 0.00446924
9.89 0.00337158
9.9 0.00233812
9.91 0.00143181
9.92 0.000713773
9.93 0.000240747
9.94 6.2673e-05
9.95 0.000220512
9.96 0.000780179
9.97 0.00173348
9.98 0.00307202
9.99 0.00478213
10 0.00683631
10.01 0.00919383
10.02 0.0118072
10.03 0.0146144
10.04 0.0175205
10.05 0.0204466
10.06 0.0233111
10.07 0.0260321
10.08 0.0285307
10.09 0.0307035
10.1 0.0324921
10.11 0.0338551
10.12 0.0347527
10.13 0.035159
10.14 0.0350628
10.15 0.0344593
10.16 0.0333324
10.17 0.0317678
10.18 0.0298146
10.19 0.0275325
10.2 0.0249901
10.21 0.0222626
10.22 0.0194274
10.23 0.0165789
10.24 0.0137998
10.25 0.0111639
10.26 0.0087382
10.27 0.00658104
10.28 0.00474285
10.29 0.00329903
10.3 0.00223387
10.31 0.00155445
10.32 0.0012551
10.33 0.00131794
10.34 0.00171387
10.35 0.00241855
10.36 0.00337537
10.37 0.0045128
10.38 0.00577184
10.39 0.00709176
10.4 0.00841205
10.41 0.00967437
10.42 0.0108061
10.43 0.0117673
10.44 0.0125185
10.45 0.013028
10.46 0.0132726
10.47 0.0132381
10.48 0.0129054
10.49 0.0122739
10.5 0.0113762
10.51 0.010232
10.52 0.00886674
10.53 0.00731044
10.54 0.00559622
10.55 0.0037504
10.56 0.00182334
10.57 -0.000148
10.58 -0.00213012
10.59 -0.00409197
10.6 -0.00600553
10.61 -0.00784266
10.62 -0.0095762
10.63 -0.0111962
10.64 -0.0126899
10.65 -0.0140482
10.66 -0.0152644
10.67 -0.0163342
10.68 -0.0172418
10.69 -0.0179958
10.7 -0.0186
10.71 -0.0190549
10.72 -0.019361
10.73 -0.0195187
10.74 -0.0195245
10.75 -0.0193697
10.76 -0.0190685
10.77 -0.0186224
10.78 -0.0180341
10.79 -0.0173079
10.8 -0.01645
10.81 -0.0154605
10.82 -0.0143581
10.83 -0.0131635
10.84 -0.0118957
10.85 -0.0105776
10.86 -0.00923499
10.87 -0.00789752
10.88 -0.00660382
10.89 -0.00538632
10.9 -0.00427919
10.91 -0.00331628
10.92 -0.00253004
10.93 -0.00195046
10.94 -0.00162148
10.95 -0.00156229
10.96 -0.00177564
10.97 -0.002269
10.98 -0.00304238
10.99 -0.00408798
11 -0.00539103
11.01 -0.00694906
11.02 -0.00870019
11.03 -0.0106042
11.04 -0.0126149
11.05 -0.0146816
11.06 -0.01675
11.07 -0.0187574
11.08 -0.0206387
11.09 -0.0223433
11.1 -0.0238201
11.11 -0.0250234
11.12 -0.0259137
11.13 -0.0264592
11.14 -0.0265945
11.15 -0.0263448
11.16 -0.0257117
11.17 -0.0247041
11.18 -0.0233411
11.19 -0.0216508
11.2 -0.0196586
11.21 -0.01741
11.22 -0.0149767
11.23 -0.0124142
11.24 -0.00978072
11.25 -0.00713504
11.26 -0.00453516
11.27 -0.00205172
11.28 0.000267612
11.29 0.00238073
11.3 0.00425062
11.31 0.0058481
11.32 0.00715242
11.33 0.00814072
11.34 0.00879634
11.35 0.00915209
11.36 0.00922354
11.37 0.00903332
11.38 0.00861011
11.39 0.00798748
11.4 0.00719189
11.41 0.00627755
11.42 0.00528936
11.43 0.00426694
11.44 0.00324789
11.45 0.00226674
11.46 0.00135635
11.47 0.000551583
11.48 -0.000135595
11.49 -0.000692093
11.5 -0.00111061
11.51 -0.00138951
11.52 -0.00153247
11.53 -0.0015392
11.54 -0.00142955
11.55 -0.00122553
11.56 -0.000946485
11.57 -0.000613258
11.58 -0.000247322
11.59 0.000129911
11.6 0.000495023
11.61 0.000829241
11.62 0.00111696
11.63 0.00134542
11.64 0.00150497
11.65 0.00158922
11.66 0.00158992
11.67 0.00150891
11.68 0.00135407
11.69 0.00113187
11.7 0.000850947
11.71 0.000521663
11.72 0.000155615
11.73 -0.000235989
11.74 -0.000636438
11.75 -0.00103319
11.76 -0.00141428
11.77 -0.00176868
11.78 -0.00208649
11.79 -0.00235624
11.8 -0.0025696
11.81 -0.00272423
11.82 -0.00281643
11.83 -0.00284387
11.84 -0.00280554
11.85 -0.00270162
