# xPDFsuite Configuration #
[PDF]
wavelength = 0.1
dataformat = QA
inputfile = BiMsol6_insitu_700 C-00419.xy
backgroundfile = Quartz2mm-dist500-00000.xy
mode = xray
bgscale = 0.0042
composition = Bi2Fe4O9
outputtype = gr
qmaxinst = 24.998449118
qmin = 0.1
qmax = 21.4986662415
rmax = 80.0
rmin = 0.0
rstep = 0.01
rpoly = 0.9

[Misc]
inputdir = C:/Data/Seafile/CPH/Beamtime/Desy Oct 20/In situ data/Processed/BiMsol6/PDF
savedir = C:/Data/Seafile/CPH/Beamtime/Desy Oct 20/In situ data/PDF/BiMsol6
backgroundfilefull = C:/Data/Seafile/CPH/Beamtime/Desy Oct 20/In situ data/Processed/Standard_Empty_Cap/Quartz2mm-dist500-00000.xy

#### start data
#S 1
#L r($\AA$)  G($\AA^{-2}$)
0 0
0.01 0.00610369
0.02 0.0118606
0.03 0.0169739
0.04 0.0211774
0.05 0.0242477
0.06 0.0260149
0.07 0.026293
0.08 0.0250286
0.09 0.0223596
0.1 0.0183998
0.11 0.0133256
0.12 0.0073676
0.13 0.000801064
0.14 -0.00606404
0.15 -0.0128397
0.16 -0.019198
0.17 -0.024832
0.18 -0.0294665
0.19 -0.0328723
0.2 -0.0348142
0.21 -0.0351332
0.22 -0.0339264
0.23 -0.0312606
0.24 -0.0272784
0.25 -0.022193
0.26 -0.0162807
0.27 -0.00985764
0.28 -0.00337307
0.29 0.00277266
0.3 0.00819059
0.31 0.0125114
0.32 0.0154036
0.33 0.0165313
0.34 0.0155665
0.35 0.0125644
0.36 0.00752565
0.37 0.000553071
0.38 -0.00814737
0.39 -0.0182691
0.4 -0.0294555
0.41 -0.0410976
0.42 -0.0525976
0.43 -0.0633463
0.44 -0.0727131
0.45 -0.080069
0.46 -0.0847473
0.47 -0.0858871
0.48 -0.0832996
0.49 -0.0766321
0.5 -0.0656514
0.51 -0.0502579
0.52 -0.0304959
0.53 -0.0062814
0.54 0.0218507
0.55 0.0531898
0.56 0.0870782
0.57 0.122744
0.58 0.159322
0.59 0.195868
0.6 0.231181
0.61 0.264296
0.62 0.294251
0.63 0.32014
0.64 0.341143
0.65 0.356549
0.66 0.365379
0.67 0.367211
0.68 0.362192
0.69 0.350298
0.7 0.331688
0.71 0.306701
0.72 0.275839
0.73 0.239257
0.74 0.198432
0.75 0.154304
0.76 0.107879
0.77 0.0602037
0.78 0.0123412
0.79 -0.034568
0.8 -0.0793596
0.81 -0.12121
0.82 -0.159338
0.83 -0.193093
0.84 -0.22197
0.85 -0.245623
0.86 -0.263309
0.87 -0.275526
0.88 -0.282536
0.89 -0.284668
0.9 -0.282387
0.91 -0.276264
0.92 -0.266866
0.93 -0.254934
0.94 -0.24147
0.95 -0.227243
0.96 -0.212998
0.97 -0.199431
0.98 -0.18717
0.99 -0.176969
1 -0.169172
1.01 -0.164025
1.02 -0.161703
1.03 -0.16226
1.04 -0.165636
1.05 -0.171731
1.06 -0.180381
1.07 -0.19099
1.08 -0.20314
1.09 -0.216372
1.1 -0.230211
1.11 -0.24418
1.12 -0.257763
1.13 -0.270509
1.14 -0.282083
1.15 -0.292203
1.16 -0.300662
1.17 -0.307331
1.18 -0.312134
1.19 -0.314968
1.2 -0.31614
1.21 -0.315838
1.22 -0.314297
1.23 -0.311792
1.24 -0.30862
1.25 -0.305082
1.26 -0.301525
1.27 -0.298234
1.28 -0.295444
1.29 -0.293342
1.3 -0.292065
1.31 -0.291693
1.32 -0.292336
1.33 -0.293831
1.34 -0.296068
1.35 -0.298885
1.36 -0.302085
1.37 -0.305442
1.38 -0.308695
1.39 -0.311564
1.4 -0.313828
1.41 -0.315284
1.42 -0.315766
1.43 -0.315152
1.44 -0.313373
1.45 -0.310291
1.46 -0.306095
1.47 -0.30091
1.48 -0.294911
1.49 -0.288315
1.5 -0.28138
1.51 -0.274402
1.52 -0.267729
1.53 -0.261657
1.54 -0.256468
1.55 -0.252413
1.56 -0.249704
1.57 -0.2485
1.58 -0.249067
1.59 -0.251293
1.6 -0.255095
1.61 -0.260349
1.62 -0.266861
1.63 -0.274376
1.64 -0.282599
1.65 -0.291139
1.66 -0.299559
1.67 -0.30746
1.68 -0.314445
1.69 -0.320139
1.7 -0.324194
1.71 -0.326116
1.72 -0.325768
1.73 -0.323051
1.74 -0.317892
1.75 -0.310295
1.76 -0.300351
1.77 -0.288179
1.78 -0.273937
1.79 -0.258148
1.8 -0.241194
1.81 -0.223494
1.82 -0.205494
1.83 -0.187647
1.84 -0.170485
1.85 -0.15446
1.86 -0.139921
1.87 -0.127187
1.88 -0.116513
1.89 -0.108077
1.9 -0.102015
1.91 -0.0985371
1.92 -0.0973131
1.93 -0.0981731
1.94 -0.100876
1.95 -0.105119
1.96 -0.110549
1.97 -0.116802
1.98 -0.123389
1.99 -0.12986
2 -0.135814
2.01 -0.140879
2.02 -0.144729
2.03 -0.147086
2.04 -0.147542
2.05 -0.146161
2.06 -0.142912
2.07 -0.137844
2.08 -0.131083
2.09 -0.12283
2.1 -0.1133
2.11 -0.10287
2.12 -0.0919847
2.13 -0.0810472
2.14 -0.0704702
2.15 -0.0606633
2.16 -0.0520183
2.17 -0.0450963
2.18 -0.0400773
2.19 -0.0371909
2.2 -0.0366114
2.21 -0.0384406
2.22 -0.0427049
2.23 -0.0494573
2.24 -0.058605
2.25 -0.0697688
2.26 -0.0826808
2.27 -0.0970248
2.28 -0.112448
2.29 -0.128572
2.3 -0.145
2.31 -0.161281
2.32 -0.177045
2.33 -0.191959
2.34 -0.205731
2.35 -0.21812
2.36 -0.228883
2.37 -0.237808
2.38 -0.244986
2.39 -0.250439
2.4 -0.25425
2.41 -0.256555
2.42 -0.257541
2.43 -0.257358
2.44 -0.256359
2.45 -0.254853
2.46 -0.25312
2.47 -0.251435
2.48 -0.250059
2.49 -0.249241
2.5 -0.249258
2.51 -0.250202
2.52 -0.252179
2.53 -0.255243
2.54 -0.259403
2.55 -0.26462
2.56 -0.270877
2.57 -0.277996
2.58 -0.285778
2.59 -0.294038
2.6 -0.302576
2.61 -0.311186
2.62 -0.319659
2.63 -0.327745
2.64 -0.335287
2.65 -0.342133
2.66 -0.348161
2.67 -0.353279
2.68 -0.357427
2.69 -0.360515
2.7 -0.362569
2.71 -0.363683
2.72 -0.363924
2.73 -0.36338
2.74 -0.36215
2.75 -0.360342
2.76 -0.358024
2.77 -0.35536
2.78 -0.352443
2.79 -0.349344
2.8 -0.346118
2.81 -0.342793
2.82 -0.339369
2.83 -0.335817
2.84 -0.332093
2.85 -0.328125
2.86 -0.323824
2.87 -0.319087
2.88 -0.313802
2.89 -0.307773
2.9 -0.300942
2.91 -0.293216
2.92 -0.28451
2.93 -0.274759
2.94 -0.26392
2.95 -0.251931
2.96 -0.238775
2.97 -0.224582
2.98 -0.209428
2.99 -0.193414
3 -0.176663
3.01 -0.159316
3.02 -0.141503
3.03 -0.123437
3.04 -0.105292
3.05 -0.0872283
3.06 -0.0693935
3.07 -0.0519204
3.08 -0.0349391
3.09 -0.018576
3.1 -0.0028421
3.11 0.0122382
3.12 0.0266693
3.13 0.0404836
3.14 0.0537389
3.15 0.0664838
3.16 0.0788573
3.17 0.0909892
3.18 0.103
3.19 0.115012
3.2 0.127141
3.21 0.139497
3.22 0.152202
3.23 0.165293
3.24 0.178803
3.25 0.192738
3.26 0.207075
3.27 0.221758
3.28 0.236714
3.29 0.251802
3.3 0.26687
3.31 0.281755
3.32 0.296282
3.33 0.310267
3.34 0.323515
3.35 0.335735
3.36 0.34684
3.37 0.356681
3.38 0.365132
3.39 0.372095
3.4 0.377503
3.41 0.381222
3.42 0.383278
3.43 0.383805
3.44 0.382889
3.45 0.380649
3.46 0.377231
3.47 0.372813
3.48 0.36752
3.49 0.36168
3.5 0.35552
3.51 0.349266
3.52 0.343143
3.53 0.337368
3.54 0.332181
3.55 0.327801
3.56 0.324343
3.57 0.321936
3.58 0.320677
3.59 0.320635
3.6 0.321851
3.61 0.324462
3.62 0.328327
3.63 0.333377
3.64 0.33954
3.65 0.346721
3.66 0.354814
3.67 0.363725
3.68 0.373333
3.69 0.383448
3.7 0.393941
3.71 0.404686
3.72 0.415566
3.73 0.426471
3.74 0.437288
3.75 0.447928
3.76 0.458322
3.77 0.468412
3.78 0.47815
3.79 0.487501
3.8 0.496424
3.81 0.504869
3.82 0.512858
3.83 0.520381
3.84 0.527423
3.85 0.533972
3.86 0.540011
3.87 0.545472
3.88 0.550348
3.89 0.55462
3.9 0.558247
3.91 0.561177
3.92 0.563352
3.93 0.564692
3.94 0.565049
3.95 0.564431
3.96 0.562763
3.97 0.559971
3.98 0.555981
3.99 0.550725
4 0.544042
4.01 0.535902
4.02 0.526325
4.03 0.515277
4.04 0.50274
4.05 0.488707
4.06 0.473178
4.07 0.456029
4.08 0.437469
4.09 0.417555
4.1 0.396361
4.11 0.373976
4.12 0.350499
4.13 0.325996
4.14 0.300614
4.15 0.274544
4.16 0.247931
4.17 0.220924
4.18 0.193675
4.19 0.166339
4.2 0.139091
4.21 0.11209
4.22 0.0854758
4.23 0.0593843
4.24 0.0339399
4.25 0.00925546
4.26 -0.0145229
4.27 -0.0372829
4.28 -0.05902
4.29 -0.0796878
4.3 -0.0992571
4.31 -0.117717
4.32 -0.135073
4.33 -0.151243
4.34 -0.166367
4.35 -0.180518
4.36 -0.193766
4.37 -0.20619
4.38 -0.217878
4.39 -0.228903
4.4 -0.239351
4.41 -0.249368
4.42 -0.259044
4.43 -0.268465
4.44 -0.277708
4.45 -0.28684
4.46 -0.295913
4.47 -0.304973
4.48 -0.314042
4.49 -0.323126
4.5 -0.332214
4.51 -0.341283
4.52 -0.350291
4.53 -0.359173
4.54 -0.367871
4.55 -0.376316
4.56 -0.384433
4.57 -0.392145
4.58 -0.399379
4.59 -0.406012
4.6 -0.411999
4.61 -0.417308
4.62 -0.421899
4.63 -0.425747
4.64 -0.428842
4.65 -0.431176
4.66 -0.432714
4.67 -0.433574
4.68 -0.433811
4.69 -0.433496
4.7 -0.43271
4.71 -0.431541
4.72 -0.430075
4.73 -0.428432
4.74 -0.426726
4.75 -0.425055
4.76 -0.42351
4.77 -0.422178
4.78 -0.421132
4.79 -0.42048
4.8 -0.42023
4.81 -0.420414
4.82 -0.421047
4.83 -0.42213
4.84 -0.423649
4.85 -0.425602
4.86 -0.427944
4.87 -0.430604
4.88 -0.433526
4.89 -0.436653
4.9 -0.439922
4.91 -0.443273
4.92 -0.446644
4.93 -0.449971
4.94 -0.453207
4.95 -0.45631
4.96 -0.459244
4.97 -0.461982
4.98 -0.464491
4.99 -0.466747
5 -0.468757
5.01 -0.470512
5.02 -0.472008
5.03 -0.473235
5.04 -0.474186
5.05 -0.474812
5.06 -0.475115
5.07 -0.475069
5.08 -0.474633
5.09 -0.473758
5.1 -0.472385
5.11 -0.47042
5.12 -0.467745
5.13 -0.464319
5.14 -0.460049
5.15 -0.454839
5.16 -0.44859
5.17 -0.441207
5.18 -0.432482
5.19 -0.422392
5.2 -0.410902
5.21 -0.39795
5.22 -0.383491
5.23 -0.367495
5.24 -0.34991
5.25 -0.330639
5.26 -0.309855
5.27 -0.287604
5.28 -0.263947
5.29 -0.238962
5.3 -0.21274
5.31 -0.185304
5.32 -0.156825
5.33 -0.127466
5.34 -0.0973491
5.35 -0.0665976
5.36 -0.0353328
5.37 -0.0036695
5.38 0.0282912
5.39 0.0604053
5.4 0.0925748
5.41 0.124708
5.42 0.156722
5.43 0.188536
5.44 0.220056
5.45 0.251205
5.46 0.281929
5.47 0.312159
5.48 0.341822
5.49 0.370843
5.5 0.399136
5.51 0.426507
5.52 0.45294
5.53 0.478324
5.54 0.502538
5.55 0.525452
5.56 0.546931
5.57 0.566736
5.58 0.584687
5.59 0.600734
5.6 0.614735
5.61 0.626551
5.62 0.636053
5.63 0.643125
5.64 0.647385
5.65 0.648999
5.66 0.647938
5.67 0.644174
5.68 0.637707
5.69 0.628561
5.7 0.61668
5.71 0.602087
5.72 0.585085
5.73 0.565813
5.74 0.54443
5.75 0.521114
5.76 0.496057
5.77 0.469335
5.78 0.441305
5.79 0.412213
5.8 0.382275
5.81 0.351701
5.82 0.320696
5.83 0.289453
5.84 0.258173
5.85 0.227035
5.86 0.196187
5.87 0.165761
5.88 0.135873
5.89 0.106623
5.9 0.078167
5.91 0.0505476
5.92 0.0238032
5.93 -0.0020126
5.94 -0.0268519
5.95 -0.0506706
5.96 -0.0734024
5.97 -0.0949188
5.98 -0.115278
5.99 -0.134435
6 -0.152341
6.01 -0.168944
6.02 -0.184192
6.03 -0.19792
6.04 -0.210113
6.05 -0.22078
6.06 -0.229871
6.07 -0.237347
6.08 -0.243174
6.09 -0.24731
6.1 -0.249585
6.11 -0.250183
6.12 -0.249126
6.13 -0.246454
6.14 -0.242221
6.15 -0.236498
6.16 -0.229289
6.17 -0.220726
6.18 -0.211001
6.19 -0.200241
6.2 -0.18858
6.21 -0.17616
6.22 -0.163121
6.23 -0.149565
6.24 -0.135698
6.25 -0.12165
6.26 -0.107541
6.27 -0.0934799
6.28 -0.0795625
6.29 -0.0658861
6.3 -0.0525288
6.31 -0.0395222
6.32 -0.0268983
6.33 -0.0146748
6.34 -0.00285629
6.35 0.00856469
6.36 0.0195682
6.37 0.03022
6.38 0.0405579
6.39 0.0506193
6.4 0.0604438
6.41 0.0700713
6.42 0.0795356
6.43 0.0888741
6.44 0.0981309
6.45 0.107335
6.46 0.116511
6.47 0.125681
6.48 0.134862
6.49 0.144076
6.5 0.153334
6.51 0.162649
6.52 0.172035
6.53 0.181507
6.54 0.191082
6.55 0.200784
6.56 0.210645
6.57 0.220682
6.58 0.230922
6.59 0.241395
6.6 0.252132
6.61 0.263162
6.62 0.274542
6.63 0.286283
6.64 0.298388
6.65 0.310867
6.66 0.323717
6.67 0.336925
6.68 0.35047
6.69 0.364329
6.7 0.37841
6.71 0.392641
6.72 0.406932
6.73 0.421182
6.74 0.435276
6.75 0.449059
6.76 0.462384
6.77 0.475122
6.78 0.48713
6.79 0.498264
6.8 0.508382
6.81 0.51734
6.82 0.524869
6.83 0.530988
6.84 0.535601
6.85 0.538628
6.86 0.540009
6.87 0.5397
6.88 0.537571
6.89 0.533628
6.9 0.527983
6.91 0.520669
6.92 0.511732
6.93 0.501232
6.94 0.489237
6.95 0.475671
6.96 0.46078
6.97 0.444651
6.98 0.427367
6.99 0.409006
7 0.389644
7.01 0.369305
7.02 0.348046
7.03 0.325981
7.04 0.303157
7.05 0.279612
7.06 0.255381
7.07 0.230495
7.08 0.20492
7.09 0.178743
7.1 0.152004
7.11 0.124736
7.12 0.0969805
7.13 0.0687861
7.14 0.040198
7.15 0.0112828
7.16 -0.017849
7.17 -0.0471053
7.18 -0.0763833
7.19 -0.105571
7.2 -0.134549
7.21 -0.163146
7.22 -0.19124
7.23 -0.218707
7.24 -0.245418
7.25 -0.271247
7.26 -0.296077
7.27 -0.319765
7.28 -0.342132
7.29 -0.363202
7.3 -0.382915
7.31 -0.401231
7.32 -0.418126
7.33 -0.433597
7.34 -0.447545
7.35 -0.460075
7.36 -0.471289
7.37 -0.481254
7.38 -0.490048
7.39 -0.497758
7.4 -0.504462
7.41 -0.510196
7.42 -0.515154
7.43 -0.519433
7.44 -0.52312
7.45 -0.5263
7.46 -0.529044
7.47 -0.531392
7.48 -0.533409
7.49 -0.535147
7.5 -0.536626
7.51 -0.537858
7.52 -0.538838
7.53 -0.539553
7.54 -0.539948
7.55 -0.540019
7.56 -0.539731
7.57 -0.539043
7.58 -0.537911
7.59 -0.536295
7.6 -0.534118
7.61 -0.531338
7.62 -0.527955
7.63 -0.52394
7.64 -0.519275
7.65 -0.513945
7.66 -0.507945
7.67 -0.501201
7.68 -0.493795
7.69 -0.485746
7.7 -0.477079
7.71 -0.46782
7.72 -0.458003
7.73 -0.447645
7.74 -0.436783
7.75 -0.425501
7.76 -0.413847
7.77 -0.401875
7.78 -0.389638
7.79 -0.377196
7.8 -0.364598
7.81 -0.351925
7.82 -0.339244
7.83 -0.326621
7.84 -0.314122
7.85 -0.301816
7.86 -0.289784
7.87 -0.27812
7.88 -0.26687
7.89 -0.256102
7.9 -0.245881
7.91 -0.236266
7.92 -0.227316
7.93 -0.219149
7.94 -0.211769
7.95 -0.20519
7.96 -0.199437
7.97 -0.194525
7.98 -0.190458
7.99 -0.187252
8 -0.18494
8.01 -0.183415
8.02 -0.182637
8.03 -0.182557
8.04 -0.183119
8.05 -0.184258
8.06 -0.185943
8.07 -0.188071
8.08 -0.190552
8.09 -0.193314
8.1 -0.196291
8.11 -0.199418
8.12 -0.202639
8.13 -0.205902
8.14 -0.209158
8.15 -0.212375
8.16 -0.215529
8.17 -0.218604
8.18 -0.22159
8.19 -0.224477
8.2 -0.227267
8.21 -0.229967
8.22 -0.23258
8.23 -0.235103
8.24 -0.237532
8.25 -0.239855
8.26 -0.242033
8.27 -0.244044
8.28 -0.245843
8.29 -0.247374
8.3 -0.248565
8.31 -0.249335
8.32 -0.249556
8.33 -0.249107
8.34 -0.247908
8.35 -0.245842
8.36 -0.242792
8.37 -0.238642
8.38 -0.233279
8.39 -0.226444
8.4 -0.218172
8.41 -0.208397
8.42 -0.197061
8.43 -0.184125
8.44 -0.169571
8.45 -0.15333
8.46 -0.135392
8.47 -0.115926
8.48 -0.0950044
8.49 -0.0727197
8.5 -0.049179
8.51 -0.0245034
8.52 0.00126104
8.53 0.0278807
8.54 0.0551963
8.55 0.0830686
8.56 0.111364
8.57 0.139956
8.58 0.168732
8.59 0.197584
8.6 0.226414
8.61 0.255156
8.62 0.283759
8.63 0.312189
8.64 0.340423
8.65 0.368436
8.66 0.39624
8.67 0.42385
8.68 0.451276
8.69 0.478527
8.7 0.505608
8.71 0.53251
8.72 0.559199
8.73 0.585659
8.74 0.611836
8.75 0.637661
8.76 0.663042
8.77 0.687869
8.78 0.71195
8.79 0.735139
8.8 0.757298
8.81 0.77825
8.82 0.797809
8.83 0.815786
8.84 0.831966
8.85 0.845961
8.86 0.857787
8.87 0.867285
8.88 0.874314
8.89 0.878756
8.9 0.880513
8.91 0.879335
8.92 0.875213
8.93 0.868286
8.94 0.858574
8.95 0.846126
8.96 0.831012
8.97 0.813326
8.98 0.792914
8.99 0.770204
9 0.745341
9.01 0.718477
9.02 0.689767
9.03 0.659368
9.04 0.62736
9.05 0.593901
9.06 0.559227
9.07 0.523468
9.08 0.486746
9.09 0.449173
9.1 0.410853
9.11 0.371824
9.12 0.332247
9.13 0.292215
9.14 0.251816
9.15 0.211137
9.16 0.170272
9.17 0.129324
9.18 0.0884215
9.19 0.0476942
9.2 0.00728008
9.21 -0.0326699
9.22 -0.0719917
9.23 -0.110509
9.24 -0.14792
9.25 -0.184079
9.26 -0.218804
9.27 -0.251891
9.28 -0.283137
9.29 -0.312344
9.3 -0.33925
9.31 -0.36353
9.32 -0.385226
9.33 -0.404212
9.34 -0.420383
9.35 -0.433665
9.36 -0.444008
9.37 -0.451148
9.38 -0.455257
9.39 -0.456481
9.4 -0.454895
9.41 -0.450601
9.42 -0.443722
9.43 -0.434351
9.44 -0.422493
9.45 -0.408549
9.46 -0.392695
9.47 -0.375104
9.48 -0.35595
9.49 -0.3354
9.5 -0.313531
9.51 -0.290548
9.52 -0.266632
9.53 -0.2419
9.54 -0.216455
9.55 -0.190383
9.56 -0.163758
9.57 -0.136603
9.58 -0.109031
9.59 -0.0810918
9.6 -0.0528328
9.61 -0.0243023
9.62 0.00444783
9.63 0.0333652
9.64 0.0623702
9.65 0.0913744
9.66 0.120286
9.67 0.148999
9.68 0.177397
9.69 0.20535
9.7 0.232636
9.71 0.259156
9.72 0.284758
9.73 0.309283
9.74 0.332577
9.75 0.354489
9.76 0.374791
9.77 0.393312
9.78 0.410042
9.79 0.424891
9.8 0.437788
9.81 0.448686
9.82 0.457561
9.83 0.464204
9.84 0.468835
9.85 0.471532
9.86 0.47237
9.87 0.471442
9.88 0.468856
9.89 0.464677
9.9 0.459002
9.91 0.452082
9.92 0.444053
9.93 0.435047
9.94 0.425189
9.95 0.414595
9.96 0.40332
9.97 0.391509
9.98 0.379246
9.99 0.366592
10 0.353588
10.01 0.340263
10.02 0.326624
10.03 0.31266
10.04 0.298393
10.05 0.283811
10.06 0.268904
10.07 0.253659
10.08 0.238068
10.09 0.222098
10.1 0.205773
10.11 0.18912
10.12 0.172166
10.13 0.154951
10.14 0.137522
10.15 0.11994
10.16 0.102277
10.17 0.0846286
10.18 0.0670807
10.19 0.0497232
10.2 0.032647
10.21 0.0159414
10.22 -0.000270053
10.23 -0.0159107
10.24 -0.0309355
10.25 -0.0452893
10.26 -0.05893
10.27 -0.0718297
10.28 -0.0839696
10.29 -0.0952756
10.3 -0.10585
10.31 -0.115727
10.32 -0.124949
10.33 -0.133571
10.34 -0.141656
10.35 -0.149246
10.36 -0.156426
10.37 -0.163292
10.38 -0.169914
10.39 -0.176356
10.4 -0.182677
10.41 -0.188928
10.42 -0.195153
10.43 -0.201389
10.44 -0.207657
10.45 -0.213971
10.46 -0.220332
10.47 -0.226739
10.48 -0.233181
10.49 -0.239643
10.5 -0.246104
10.51 -0.252547
10.52 -0.258955
10.53 -0.265313
10.54 -0.271611
10.55 -0.27784
10.56 -0.284006
10.57 -0.290121
10.58 -0.296201
10.59 -0.302269
10.6 -0.308352
10.61 -0.314486
10.62 -0.320715
10.63 -0.327071
10.64 -0.333588
10.65 -0.340302
10.66 -0.347238
10.67 -0.35442
10.68 -0.361886
10.69 -0.369625
10.7 -0.377623
10.71 -0.385863
10.72 -0.394317
10.73 -0.40295
10.74 -0.411718
10.75 -0.420563
10.76 -0.429413
10.77 -0.438203
10.78 -0.446865
10.79 -0.455332
10.8 -0.463539
10.81 -0.471395
10.82 -0.478855
10.83 -0.485885
10.84 -0.492452
10.85 -0.498532
10.86 -0.504114
10.87 -0.509188
10.88 -0.513724
10.89 -0.517795
10.9 -0.521432
10.91 -0.524671
10.92 -0.527555
10.93 -0.530128
10.94 -0.53242
10.95 -0.534483
10.96 -0.536367
10.97 -0.538101
10.98 -0.539705
10.99 -0.541189
11 -0.54255
11.01 -0.543757
11.02 -0.544794
11.03 -0.545619
11.04 -0.546178
11.05 -0.546409
11.06 -0.546241
11.07 -0.545566
11.08 -0.54429
11.09 -0.54236
11.1 -0.5397
11.11 -0.536236
11.12 -0.531902
11.13 -0.526644
11.14 -0.52031
11.15 -0.512969
11.16 -0.50462
11.17 -0.495268
11.18 -0.484936
11.19 -0.473662
11.2 -0.461462
11.21 -0.448393
11.22 -0.434601
11.23 -0.420175
11.24 -0.405212
11.25 -0.389815
11.26 -0.374084
11.27 -0.358108
11.28 -0.342011
11.29 -0.325886
11.3 -0.309809
11.31 -0.293848
11.32 -0.278056
11.33 -0.262482
11.34 -0.247163
11.35 -0.232089
11.36 -0.217252
11.37 -0.202633
11.38 -0.188201
11.39 -0.173911
11.4 -0.159718
11.41 -0.145551
11.42 -0.131346
11.43 -0.117038
11.44 -0.102565
11.45 -0.0878671
11.46 -0.0728805
11.47 -0.0575272
11.48 -0.0417943
11.49 -0.02565
11.5 -0.00907219
11.51 0.00795231
11.52 0.0254273
11.53 0.0433808
11.54 0.0617798
11.55 0.0805839
11.56 0.0997643
11.57 0.119287
11.58 0.139116
11.59 0.159214
11.6 0.179554
11.61 0.20007
11.62 0.220721
11.63 0.241469
11.64 0.262277
11.65 0.283112
11.66 0.303939
11.67 0.324725
11.68 0.345444
11.69 0.36607
11.7 0.386578
11.71 0.406941
11.72 0.427132
11.73 0.447096
11.74 0.466821
11.75 0.486269
11.76 0.5054
11.77 0.524167
11.78 0.542519
11.79 0.56037
11.8 0.577644
11.81 0.594303
11.82 0.610274
11.83 0.625481
11.84 0.639847
11.85 0.653291
11.86 0.665616
11.87 0.676833
11.88 0.686874
11.89 0.695664
11.9 0.703135
11.91 0.709222
11.92 0.713802
11.93 0.716776
11.94 0.718208
11.95 0.718068
11.96 0.716334
11.97 0.712992
11.98 0.708037
11.99 0.701321
12 0.692983
12.01 0.683081
12.02 0.671645
12.03 0.658717
12.04 0.644341
12.05 0.628529
12.06 0.611278
12.07 0.592771
12.08 0.573078
12.09 0.552275
12.1 0.530441
12.11 0.507658
12.12 0.483949
12.13 0.459461
12.14 0.434316
12.15 0.408611
12.16 0.382447
12.17 0.355928
12.18 0.329155
12.19 0.302241
12.2 0.275319
12.21 0.248499
12.22 0.221894
12.23 0.195617
12.24 0.16978
12.25 0.144542
12.26 0.120008
12.27 0.0962583
12.28 0.0733925
