# xPDFsuite Configuration #
[PDF]
wavelength = 0.1
dataformat = QA
inputfile = BiMsol6_insitu_700 C-00564.xy
backgroundfile = Quartz2mm-dist500-00000.xy
mode = xray
bgscale = 0.0042
composition = Bi2Fe4O9
outputtype = gr
qmaxinst = 24.998449118
qmin = 0.1
qmax = 21.4986662415
rmax = 80.0
rmin = 0.0
rstep = 0.01
rpoly = 0.9

[Misc]
inputdir = C:/Data/Seafile/CPH/Beamtime/Desy Oct 20/In situ data/Processed/BiMsol6/PDF
savedir = C:/Data/Seafile/CPH/Beamtime/Desy Oct 20/In situ data/PDF/BiMsol6
backgroundfilefull = C:/Data/Seafile/CPH/Beamtime/Desy Oct 20/In situ data/Processed/Standard_Empty_Cap/Quartz2mm-dist500-00000.xy

#### start data
#S 1
#L r($\AA$)  G($\AA^{-2}$)
0 0
0.01 0.00660529
0.02 0.0128383
0.03 0.0183804
0.04 0.0229457
0.05 0.0262939
0.06 0.0282419
0.07 0.0285891
0.08 0.0272766
0.09 0.0244511
0.1 0.0202332
0.11 0.01481
0.12 0.00842751
0.13 0.00137906
0.14 -0.00600598
0.15 -0.0133112
0.16 -0.0201855
0.17 -0.0262993
0.18 -0.0313571
0.19 -0.0351114
0.2 -0.037308
0.21 -0.0377724
0.22 -0.0366036
0.23 -0.0338676
0.24 -0.0297109
0.25 -0.0243551
0.26 -0.0180888
0.27 -0.0112391
0.28 -0.00428089
0.29 0.0023636
0.3 0.00828461
0.31 0.0130924
0.32 0.0164364
0.33 0.0179619
0.34 0.0173219
0.35 0.0145674
0.36 0.00969391
0.37 0.00280341
0.38 -0.00589475
0.39 -0.0160867
0.4 -0.0274093
0.41 -0.0392351
0.42 -0.0509486
0.43 -0.0619245
0.44 -0.0715165
0.45 -0.0790813
0.46 -0.0839401
0.47 -0.0852202
0.48 -0.082733
0.49 -0.0761283
0.5 -0.0651804
0.51 -0.0498026
0.52 -0.0300572
0.53 -0.00588648
0.54 0.0221445
0.55 0.0532964
0.56 0.0868807
0.57 0.122095
0.58 0.158043
0.59 0.193755
0.6 0.227984
0.61 0.259775
0.62 0.288161
0.63 0.31224
0.64 0.331206
0.65 0.344372
0.66 0.350784
0.67 0.350074
0.68 0.34245
0.69 0.327951
0.7 0.306802
0.71 0.279412
0.72 0.246357
0.73 0.207901
0.74 0.165562
0.75 0.120344
0.76 0.0732997
0.77 0.0255204
0.78 -0.0219036
0.79 -0.0677885
0.8 -0.110963
0.81 -0.150661
0.82 -0.186136
0.83 -0.216787
0.84 -0.242172
0.85 -0.262022
0.86 -0.275664
0.87 -0.283723
0.88 -0.28656
0.89 -0.284605
0.9 -0.27842
0.91 -0.268669
0.92 -0.256021
0.93 -0.241315
0.94 -0.225583
0.95 -0.209633
0.96 -0.194234
0.97 -0.180089
0.98 -0.167815
0.99 -0.158181
1 -0.15144
1.01 -0.14776
1.02 -0.147239
1.03 -0.149844
1.04 -0.15542
1.05 -0.163769
1.06 -0.17461
1.07 -0.187251
1.08 -0.201187
1.09 -0.21588
1.1 -0.230789
1.11 -0.245387
1.12 -0.259081
1.13 -0.271427
1.14 -0.28211
1.15 -0.290869
1.16 -0.297536
1.17 -0.302036
1.18 -0.304354
1.19 -0.304455
1.2 -0.302763
1.21 -0.299555
1.22 -0.295157
1.23 -0.289931
1.24 -0.284258
1.25 -0.278538
1.26 -0.273182
1.27 -0.268507
1.28 -0.264778
1.29 -0.262201
1.3 -0.260908
1.31 -0.260968
1.32 -0.262493
1.33 -0.265224
1.34 -0.268986
1.35 -0.273549
1.36 -0.278634
1.37 -0.283936
1.38 -0.289102
1.39 -0.293758
1.4 -0.297608
1.41 -0.300383
1.42 -0.301856
1.43 -0.30186
1.44 -0.300293
1.45 -0.296947
1.46 -0.292054
1.47 -0.285756
1.48 -0.278252
1.49 -0.269799
1.5 -0.260704
1.51 -0.251313
1.52 -0.242043
1.53 -0.233279
1.54 -0.225371
1.55 -0.218643
1.56 -0.213371
1.57 -0.209775
1.58 -0.208203
1.59 -0.208572
1.6 -0.210828
1.61 -0.214866
1.62 -0.220505
1.63 -0.227489
1.64 -0.235522
1.65 -0.244205
1.66 -0.253041
1.67 -0.261594
1.68 -0.269427
1.69 -0.276114
1.7 -0.281263
1.71 -0.284328
1.72 -0.285117
1.73 -0.283485
1.74 -0.279317
1.75 -0.272583
1.76 -0.263338
1.77 -0.25167
1.78 -0.237701
1.79 -0.221955
1.8 -0.204804
1.81 -0.186659
1.82 -0.167965
1.83 -0.149175
1.84 -0.130802
1.85 -0.113314
1.86 -0.0970738
1.87 -0.0824092
1.88 -0.0695813
1.89 -0.0587778
1.9 -0.0501392
1.91 -0.0438746
1.92 -0.0396875
1.93 -0.037426
1.94 -0.0368705
1.95 -0.0377444
1.96 -0.039726
1.97 -0.042488
1.98 -0.0455949
1.99 -0.0486484
2 -0.051306
2.01 -0.0532605
2.02 -0.0542536
2.03 -0.0540819
2.04 -0.0524669
2.05 -0.0495103
2.06 -0.0452557
2.07 -0.0398229
2.08 -0.0334041
2.09 -0.0262562
2.1 -0.0186897
2.11 -0.0111206
2.12 -0.00396174
2.13 0.00238627
2.14 0.00752888
2.15 0.0110929
2.16 0.0127413
2.17 0.0119208
2.18 0.00862219
2.19 0.00272971
2.2 -0.00580968
2.21 -0.0169664
2.22 -0.0306281
2.23 -0.0466951
2.24 -0.0649053
2.25 -0.0847482
2.26 -0.105825
2.27 -0.127702
2.28 -0.149918
2.29 -0.17201
2.3 -0.193417
2.31 -0.21371
2.32 -0.232518
2.33 -0.249511
2.34 -0.264422
2.35 -0.277056
2.36 -0.287212
2.37 -0.294739
2.38 -0.299898
2.39 -0.302824
2.4 -0.303719
2.41 -0.302842
2.42 -0.300502
2.43 -0.296976
2.44 -0.292742
2.45 -0.288205
2.46 -0.283727
2.47 -0.279651
2.48 -0.276284
2.49 -0.273918
2.5 -0.272869
2.51 -0.273177
2.52 -0.274915
2.53 -0.278095
2.54 -0.282666
2.55 -0.28852
2.56 -0.295569
2.57 -0.303537
2.58 -0.312134
2.59 -0.321098
2.6 -0.330155
2.61 -0.339033
2.62 -0.347463
2.63 -0.355117
2.64 -0.361848
2.65 -0.367497
2.66 -0.371946
2.67 -0.375127
2.68 -0.377018
2.69 -0.377564
2.7 -0.376868
2.71 -0.375113
2.72 -0.372447
2.73 -0.369042
2.74 -0.365085
2.75 -0.360773
2.76 -0.356303
2.77 -0.351892
2.78 -0.347705
2.79 -0.343877
2.8 -0.340519
2.81 -0.337706
2.82 -0.335511
2.83 -0.333941
2.84 -0.33292
2.85 -0.332383
2.86 -0.332236
2.87 -0.332366
2.88 -0.332642
2.89 -0.332914
2.9 -0.333027
2.91 -0.332849
2.92 -0.332257
2.93 -0.331148
2.94 -0.329435
2.95 -0.327027
2.96 -0.323861
2.97 -0.319981
2.98 -0.315402
2.99 -0.310158
3 -0.304302
3.01 -0.297894
3.02 -0.290963
3.03 -0.283618
3.04 -0.27593
3.05 -0.267946
3.06 -0.259693
3.07 -0.251181
3.08 -0.242381
3.09 -0.233224
3.1 -0.223657
3.11 -0.213577
3.12 -0.202858
3.13 -0.191358
3.14 -0.17892
3.15 -0.16527
3.16 -0.150285
3.17 -0.133844
3.18 -0.115813
3.19 -0.0960775
3.2 -0.0745567
3.21 -0.0511679
3.22 -0.0257767
3.23 0.00138285
3.24 0.030205
3.25 0.0605348
3.26 0.0921702
3.27 0.124865
3.28 0.158364
3.29 0.192274
3.3 0.226212
3.31 0.259809
3.32 0.292689
3.33 0.32448
3.34 0.354803
3.35 0.383108
3.36 0.409257
3.37 0.432989
3.38 0.454089
3.39 0.472392
3.4 0.487783
3.41 0.500018
3.42 0.509124
3.43 0.515324
3.44 0.518726
3.45 0.51948
3.46 0.517772
3.47 0.513818
3.48 0.507649
3.49 0.499769
3.5 0.490437
3.51 0.479902
3.52 0.468401
3.53 0.456158
3.54 0.44335
3.55 0.430169
3.56 0.416783
3.57 0.403298
3.58 0.389791
3.59 0.376313
3.6 0.36289
3.61 0.349531
3.62 0.336218
3.63 0.322927
3.64 0.309635
3.65 0.296316
3.66 0.282956
3.67 0.26955
3.68 0.256113
3.69 0.242687
3.7 0.229331
3.71 0.216126
3.72 0.203177
3.73 0.190607
3.74 0.178623
3.75 0.167366
3.76 0.156992
3.77 0.147673
3.78 0.139581
3.79 0.132879
3.8 0.127771
3.81 0.124503
3.82 0.123043
3.83 0.12347
3.84 0.125833
3.85 0.130148
3.86 0.136401
3.87 0.144692
3.88 0.154836
3.89 0.166652
3.9 0.179998
3.91 0.194712
3.92 0.210613
3.93 0.227524
3.94 0.245285
3.95 0.263599
3.96 0.28227
3.97 0.301109
3.98 0.319939
3.99 0.338598
4 0.356912
4.01 0.374748
4.02 0.392022
4.03 0.408653
4.04 0.424582
4.05 0.439761
4.06 0.454156
4.07 0.467665
4.08 0.480366
4.09 0.492257
4.1 0.503337
4.11 0.513604
4.12 0.523052
4.13 0.531618
4.14 0.539283
4.15 0.546063
4.16 0.551919
4.17 0.556804
4.18 0.560662
4.19 0.56343
4.2 0.564904
4.21 0.565133
4.22 0.564053
4.23 0.561598
4.24 0.557711
4.25 0.552339
4.26 0.545365
4.27 0.536731
4.28 0.526531
4.29 0.51477
4.3 0.501469
4.31 0.486664
4.32 0.470406
4.33 0.452626
4.34 0.433532
4.35 0.413235
4.36 0.391832
4.37 0.369426
4.38 0.346123
4.39 0.322006
4.4 0.297169
4.41 0.271774
4.42 0.245922
4.43 0.219707
4.44 0.193216
4.45 0.166532
4.46 0.139727
4.47 0.112887
4.48 0.0860811
4.49 0.059371
4.5 0.0328173
4.51 0.00647936
4.52 -0.0195736
4.53 -0.0452508
4.54 -0.0705137
4.55 -0.0952955
4.56 -0.119526
4.57 -0.143133
4.58 -0.166042
4.59 -0.188108
4.6 -0.209279
4.61 -0.229511
4.62 -0.248735
4.63 -0.266886
4.64 -0.28391
4.65 -0.299742
4.66 -0.314242
4.67 -0.327513
4.68 -0.339554
4.69 -0.350376
4.7 -0.360011
4.71 -0.368503
4.72 -0.375842
4.73 -0.382137
4.74 -0.387529
4.75 -0.392114
4.76 -0.395999
4.77 -0.399291
4.78 -0.4021
4.79 -0.404506
4.8 -0.406662
4.81 -0.408664
4.82 -0.410594
4.83 -0.412524
4.84 -0.414511
4.85 -0.416607
4.86 -0.41884
4.87 -0.42121
4.88 -0.423712
4.89 -0.426323
4.9 -0.429012
4.91 -0.431734
4.92 -0.434432
4.93 -0.437044
4.94 -0.439511
4.95 -0.441773
4.96 -0.443772
4.97 -0.445455
4.98 -0.446755
4.99 -0.447619
5 -0.448044
5.01 -0.448008
5.02 -0.4475
5.03 -0.446517
5.04 -0.44506
5.05 -0.443096
5.06 -0.440679
5.07 -0.437834
5.08 -0.434581
5.09 -0.430936
5.1 -0.426915
5.11 -0.422517
5.12 -0.417734
5.13 -0.412596
5.14 -0.407097
5.15 -0.401228
5.16 -0.394975
5.17 -0.388319
5.18 -0.381201
5.19 -0.373625
5.2 -0.365586
5.21 -0.357069
5.22 -0.348069
5.23 -0.338587
5.24 -0.328624
5.25 -0.318175
5.26 -0.307325
5.27 -0.296123
5.28 -0.284637
5.29 -0.272942
5.3 -0.261128
5.31 -0.2493
5.32 -0.23758
5.33 -0.226081
5.34 -0.214915
5.35 -0.204196
5.36 -0.19403
5.37 -0.184525
5.38 -0.175847
5.39 -0.167996
5.4 -0.161026
5.41 -0.154973
5.42 -0.149853
5.43 -0.145663
5.44 -0.142436
5.45 -0.140107
5.46 -0.138565
5.47 -0.137732
5.48 -0.137516
5.49 -0.137814
5.5 -0.13852
5.51 -0.139543
5.52 -0.140727
5.53 -0.141969
5.54 -0.143169
5.55 -0.144238
5.56 -0.145099
5.57 -0.145673
5.58 -0.145901
5.59 -0.14577
5.6 -0.145264
5.61 -0.14438
5.62 -0.143125
5.63 -0.141516
5.64 -0.139544
5.65 -0.137273
5.66 -0.134736
5.67 -0.131959
5.68 -0.128964
5.69 -0.125767
5.7 -0.122366
5.71 -0.118749
5.72 -0.114913
5.73 -0.110829
5.74 -0.106457
5.75 -0.101749
5.76 -0.09665
5.77 -0.0910485
5.78 -0.0849093
5.79 -0.07818
5.8 -0.0708044
5.81 -0.0627339
5.82 -0.0539317
5.83 -0.0443494
5.84 -0.0339435
5.85 -0.0227949
5.86 -0.0109405
5.87 0.00156226
5.88 0.0146366
5.89 0.028187
5.9 0.0421215
5.91 0.0562758
5.92 0.0704997
5.93 0.0846479
5.94 0.0985733
5.95 0.112131
5.96 0.12517
5.97 0.137501
5.98 0.14907
5.99 0.159788
6 0.16959
6.01 0.178436
6.02 0.186309
6.03 0.19315
6.04 0.199034
6.05 0.204064
6.06 0.208326
6.07 0.21192
6.08 0.21496
6.09 0.217564
6.1 0.219845
6.11 0.221969
6.12 0.224051
6.13 0.226195
6.14 0.228487
6.15 0.230994
6.16 0.233777
6.17 0.236849
6.18 0.240181
6.19 0.24373
6.2 0.247429
6.21 0.251187
6.22 0.254892
6.23 0.258375
6.24 0.261502
6.25 0.264121
6.26 0.266077
6.27 0.267223
6.28 0.267417
6.29 0.266468
6.3 0.264242
6.31 0.260727
6.32 0.255871
6.33 0.249647
6.34 0.242057
6.35 0.233133
6.36 0.222812
6.37 0.211313
6.38 0.198769
6.39 0.185316
6.4 0.171107
6.41 0.156303
6.42 0.141063
6.43 0.125572
6.44 0.110023
6.45 0.0945684
6.46 0.0793459
6.47 0.064476
6.48 0.0500578
6.49 0.0362222
6.5 0.0229844
6.51 0.0103525
6.52 -0.00167704
6.53 -0.0131302
6.54 -0.0240525
6.55 -0.0344949
6.56 -0.0445232
6.57 -0.0542639
6.58 -0.0638082
6.59 -0.0732467
6.6 -0.0826654
6.61 -0.092142
6.62 -0.101757
6.63 -0.111558
6.64 -0.121568
6.65 -0.131797
6.66 -0.142231
6.67 -0.15284
6.68 -0.163572
6.69 -0.174351
6.7 -0.185076
6.71 -0.195646
6.72 -0.205947
6.73 -0.215864
6.74 -0.225276
6.75 -0.234009
6.76 -0.241952
6.77 -0.249029
6.78 -0.255146
6.79 -0.260224
6.8 -0.264198
6.81 -0.26701
6.82 -0.268506
6.83 -0.268803
6.84 -0.267904
6.85 -0.265828
6.86 -0.262605
6.87 -0.258277
6.88 -0.252829
6.89 -0.246329
6.9 -0.23889
6.91 -0.230568
6.92 -0.221413
6.93 -0.21147
6.94 -0.200777
6.95 -0.189285
6.96 -0.177093
6.97 -0.164213
6.98 -0.150643
6.99 -0.136376
7 -0.121396
7.01 -0.105644
7.02 -0.0890815
7.03 -0.0717325
7.04 -0.0535757
7.05 -0.0345943
7.06 -0.0147788
7.07 0.00587134
7.08 0.0274275
7.09 0.0497869
7.1 0.0728959
7.11 0.0966972
7.12 0.121118
7.13 0.146072
7.14 0.171468
7.15 0.197186
7.16 0.223064
7.17 0.248966
7.18 0.274747
7.19 0.300259
7.2 0.32535
7.21 0.349808
7.22 0.373507
7.23 0.396325
7.24 0.418135
7.25 0.438816
7.26 0.458263
7.27 0.476341
7.28 0.492877
7.29 0.507928
7.3 0.521443
7.31 0.533389
7.32 0.54374
7.33 0.552484
7.34 0.55949
7.35 0.564836
7.36 0.568594
7.37 0.570784
7.38 0.571428
7.39 0.570549
7.4 0.568148
7.41 0.564131
7.42 0.55867
7.43 0.551788
7.44 0.543508
7.45 0.533849
7.46 0.522832
7.47 0.510385
7.48 0.496564
7.49 0.481458
7.5 0.465095
7.51 0.447509
7.52 0.428743
7.53 0.408837
7.54 0.387744
7.55 0.365658
7.56 0.342661
7.57 0.318843
7.58 0.294305
7.59 0.26916
7.6 0.243509
7.61 0.217507
7.62 0.191321
7.63 0.165098
7.64 0.13899
7.65 0.113148
7.66 0.0877269
7.67 0.0629582
7.68 0.0389409
7.69 0.0158102
7.7 -0.00630503
7.71 -0.0272868
7.72 -0.0470303
7.73 -0.0653776
7.74 -0.0822153
7.75 -0.097583
7.76 -0.111445
7.77 -0.123782
7.78 -0.134595
7.79 -0.143898
7.8 -0.15158
7.81 -0.15782
7.82 -0.162708
7.83 -0.166318
7.84 -0.168736
7.85 -0.170055
7.86 -0.17034
7.87 -0.169667
7.88 -0.16822
7.89 -0.166099
7.9 -0.163402
7.91 -0.160223
7.92 -0.156647
7.93 -0.152731
7.94 -0.148572
7.95 -0.144237
7.96 -0.139772
7.97 -0.135216
7.98 -0.130598
7.99 -0.125937
8 -0.121243
8.01 -0.116521
8.02 -0.111771
8.03 -0.106984
8.04 -0.102153
8.05 -0.0972662
8.06 -0.0923098
8.07 -0.0872781
8.08 -0.0821703
8.09 -0.0769878
8.1 -0.0717375
8.11 -0.0664322
8.12 -0.061091
8.13 -0.0557421
8.14 -0.0504221
8.15 -0.0451692
8.16 -0.040026
8.17 -0.0350385
8.18 -0.0302544
8.19 -0.0257422
8.2 -0.021551
8.21 -0.0177112
8.22 -0.0142612
8.23 -0.011233
8.24 -0.00865125
8.25 -0.00653315
8.26 -0.00493586
8.27 -0.00379944
8.28 -0.00310619
8.29 -0.00282806
8.3 -0.00292715
8.31 -0.00335658
8.32 -0.00407357
8.33 -0.00500777
8.34 -0.00607653
8.35 -0.00721134
8.36 -0.00834381
8.37 -0.00940774
8.38 -0.0103413
8.39 -0.0110637
8.4 -0.0115438
8.41 -0.0117493
8.42 -0.0116579
8.43 -0.01126
8.44 -0.0105593
8.45 -0.00956125
8.46 -0.00829525
8.47 -0.0068271
8.48 -0.00521306
8.49 -0.00351852
8.5 -0.00181608
8.51 -0.000183431
8.52 0.00127616
8.53 0.00248527
8.54 0.00336955
8.55 0.00385702
8.56 0.00388322
8.57 0.00339318
8.58 0.00232279
8.59 0.000609535
8.6 -0.00171373
8.61 -0.00464726
8.62 -0.00817765
8.63 -0.0122784
8.64 -0.0169111
8.65 -0.0220633
8.66 -0.027641
8.67 -0.0335635
8.68 -0.0397608
8.69 -0.0461613
8.7 -0.0526943
8.71 -0.0592921
8.72 -0.0658856
8.73 -0.0724173
8.74 -0.0788439
8.75 -0.0851324
8.76 -0.0912608
8.77 -0.0972182
8.78 -0.102993
8.79 -0.108604
8.8 -0.114081
8.81 -0.119453
8.82 -0.124754
8.83 -0.130023
8.84 -0.135299
8.85 -0.140628
8.86 -0.146044
8.87 -0.151571
8.88 -0.157232
8.89 -0.163035
8.9 -0.168982
8.91 -0.175067
8.92 -0.181264
8.93 -0.18753
8.94 -0.193818
8.95 -0.200077
8.96 -0.206244
8.97 -0.212254
8.98 -0.218007
8.99 -0.223453
9 -0.228528
9.01 -0.233174
9.02 -0.237339
9.03 -0.240983
9.04 -0.244043
9.05 -0.246498
9.06 -0.248382
9.07 -0.249711
9.08 -0.250512
9.09 -0.250826
9.1 -0.250705
9.11 -0.250179
9.12 -0.249362
9.13 -0.248333
9.14 -0.247169
9.15 -0.245946
9.16 -0.244737
9.17 -0.243611
9.18 -0.242638
9.19 -0.24185
9.2 -0.241278
9.21 -0.240935
9.22 -0.240821
9.23 -0.240919
9.24 -0.241214
9.25 -0.241642
9.26 -0.242142
9.27 -0.242649
9.28 -0.24309
9.29 -0.243391
9.3 -0.243467
9.31 -0.243223
9.32 -0.242613
9.33 -0.241583
9.34 -0.240089
9.35 -0.238101
9.36 -0.235606
9.37 -0.232563
9.38 -0.229021
9.39 -0.225033
9.4 -0.22065
9.41 -0.215937
9.42 -0.210965
9.43 -0.205816
9.44 -0.200579
9.45 -0.195354
9.46 -0.190224
9.47 -0.185264
9.48 -0.180539
9.49 -0.176101
9.5 -0.17201
9.51 -0.168274
9.52 -0.164874
9.53 -0.161781
9.54 -0.158949
9.55 -0.156313
9.56 -0.153789
9.57 -0.151267
9.58 -0.148621
9.59 -0.145729
9.6 -0.142463
9.61 -0.138695
9.62 -0.1343
9.63 -0.129106
9.64 -0.122998
9.65 -0.115931
9.66 -0.107835
9.67 -0.0986632
9.68 -0.0883886
9.69 -0.0770093
9.7 -0.0644275
9.71 -0.0508202
9.72 -0.0362626
9.73 -0.0208474
9.74 -0.00468441
9.75 0.0121027
9.76 0.0293976
9.77 0.0470431
9.78 0.0648657
9.79 0.0827256
9.8 0.100489
9.81 0.118033
9.82 0.135246
9.83 0.15198
9.84 0.168193
9.85 0.183835
9.86 0.198874
9.87 0.213293
9.88 0.227095
9.89 0.240277
9.9 0.252858
9.91 0.264932
9.92 0.276552
9.93 0.287778
9.94 0.29867
9.95 0.309286
9.96 0.31966
9.97 0.329855
9.98 0.339902
9.99 0.349818
10 0.359602
10.01 0.369238
10.02 0.378689
10.03 0.387887
10.04 0.396786
10.05 0.405314
10.06 0.413388
10.07 0.420921
10.08 0.427826
10.09 0.433949
10.1 0.439233
10.11 0.443632
10.12 0.447088
10.13 0.449557
10.14 0.451013
10.15 0.451432
10.16 0.450749
10.17 0.449106
10.18 0.446562
10.19 0.443196
10.2 0.439106
10.21 0.434403
10.22 0.429185
10.23 0.423619
10.24 0.417864
10.25 0.412059
10.26 0.406341
10.27 0.400836
10.28 0.395665
10.29 0.390987
10.3 0.38684
10.31 0.383286
10.32 0.380361
10.33 0.37808
10.34 0.376432
10.35 0.375419
10.36 0.374972
10.37 0.374976
10.38 0.375332
10.39 0.375927
10.4 0.376636
10.41 0.377324
10.42 0.377819
10.43 0.377986
10.44 0.377689
10.45 0.376798
10.46 0.375196
10.47 0.372774
10.48 0.369393
10.49 0.364952
10.5 0.359462
10.51 0.352892
10.52 0.34523
10.53 0.336481
10.54 0.32667
10.55 0.315739
10.56 0.303842
10.57 0.291065
10.58 0.27749
10.59 0.263206
10.6 0.248306
10.61 0.232871
10.62 0.216994
10.63 0.200806
10.64 0.184397
10.65 0.167849
10.66 0.151237
10.67 0.134627
10.68 0.118086
10.69 0.101664
10.7 0.0853924
10.71 0.0693
10.72 0.0534047
10.73 0.0377178
10.74 0.0222493
10.75 0.00701057
10.76 -0.0080243
10.77 -0.0228651
10.78 -0.0375237
10.79 -0.0520129
10.8 -0.066346
10.81 -0.080525
10.82 -0.094569
10.83 -0.108493
10.84 -0.122305
10.85 -0.136011
10.86 -0.149615
10.87 -0.163119
10.88 -0.176515
10.89 -0.189813
10.9 -0.203011
10.91 -0.216106
10.92 -0.229098
10.93 -0.241981
10.94 -0.254746
10.95 -0.267389
10.96 -0.279911
10.97 -0.292308
10.98 -0.304571
10.99 -0.316693
11 -0.328662
11.01 -0.340445
11.02 -0.352043
11.03 -0.363436
11.04 -0.374598
11.05 -0.385501
11.06 -0.396114
11.07 -0.406376
11.08 -0.416241
11.09 -0.425683
11.1 -0.434653
11.11 -0.4431
11.12 -0.450973
11.13 -0.45822
11.14 -0.464706
11.15 -0.470449
11.16 -0.475407
11.17 -0.479537
11.18 -0.482801
11.19 -0.48517
11.2 -0.486577
11.21 -0.48698
11.22 -0.48644
11.23 -0.484959
11.24 -0.482549
11.25 -0.479229
11.26 -0.475025
11.27 -0.46989
11.28 -0.463938
11.29 -0.457231
11.3 -0.449817
11.31 -0.441747
11.32 -0.433073
11.33 -0.423828
11.34 -0.414044
11.35 -0.403812
11.36 -0.393172
11.37 -0.382162
11.38 -0.370811
11.39 -0.359144
11.4 -0.347156
11.41 -0.334879
11.42 -0.322326
11.43 -0.309502
11.44 -0.296405
11.45 -0.283032
11.46 -0.269372
11.47 -0.255402
11.48 -0.241146
11.49 -0.226606
11.5 -0.211788
11.51 -0.196704
11.52 -0.181374
11.53 -0.165807
11.54 -0.150052
11.55 -0.134161
11.56 -0.118184
11.57 -0.102181
11.58 -0.086214
11.59 -0.0703568
11.6 -0.0547086
11.61 -0.0393338
11.62 -0.0243097
11.63 -0.00971212
11.64 0.0043858
11.65 0.0179158
11.66 0.0307707
11.67 0.0428995
11.68 0.0542927
11.69 0.064919
11.7 0.0747583
11.71 0.0838022
11.72 0.0920524
11.73 0.0994393
11.74 0.106083
11.75 0.112021
11.76 0.117303
11.77 0.121981
11.78 0.126116
11.79 0.129749
11.8 0.132953
11.81 0.13582
11.82 0.138415
11.83 0.140793
11.84 0.143008
11.85 0.145103
11.86 0.147108
11.87 0.149059
11.88 0.150969
11.89 0.152842
11.9 0.154671
11.91 0.156438
11.92 0.158111
11.93 0.159647
11.94 0.161007
11.95 0.162143
11.96 0.163002
11.97 0.163527
11.98 0.163661
11.99 0.163298
12 0.162412
12.01 0.16096
12.02 0.158895
12.03 0.156175
12.04 0.152763
12.05 0.148603
12.06 0.143632
12.07 0.137894
12.08 0.131379
12.09 0.124082
12.1 0.116007
12.11 0.107158
12.12 0.0974829
12.13 0.0870412
12.14 0.0758762
12.15 0.0640109
12.16 0.0514714
