# xPDFsuite Configuration #
[PDF]
wavelength = 0.1
dataformat = QA
inputfile = BiMsol6_insitu_700 C-00132.xy
backgroundfile = Quartz2mm-dist500-00000.xy
mode = xray
bgscale = 0.0042
composition = Bi2Fe4O9
outputtype = gr
qmaxinst = 24.998449118
qmin = 0.1
qmax = 21.4986662415
rmax = 80.0
rmin = 0.0
rstep = 0.01
rpoly = 0.9

[Misc]
inputdir = C:/Data/Seafile/CPH/Beamtime/Desy Oct 20/In situ data/Processed/BiMsol6/PDF
savedir = C:/Data/Seafile/CPH/Beamtime/Desy Oct 20/In situ data/PDF/BiMsol6
backgroundfilefull = C:/Data/Seafile/CPH/Beamtime/Desy Oct 20/In situ data/Processed/Standard_Empty_Cap/Quartz2mm-dist500-00000.xy

#### start data
#S 1
#L r($\AA$)  G($\AA^{-2}$)
0 0
0.01 0.00625489
0.02 0.0121582
0.03 0.017409
0.04 0.0217372
0.05 0.0249165
0.06 0.0267739
0.07 0.0271206
0.08 0.0259018
0.09 0.0232567
0.1 0.0193001
0.11 0.0142096
0.12 0.00821845
0.13 0.0016047
0.14 -0.00531897
0.15 -0.0121592
0.16 -0.0185842
0.17 -0.0242827
0.18 -0.0289757
0.19 -0.0324303
0.2 -0.0344073
0.21 -0.0347437
0.22 -0.0335356
0.23 -0.0308479
0.24 -0.026822
0.25 -0.0216703
0.26 -0.0156688
0.27 -0.00913159
0.28 -0.00250995
0.29 0.00379461
0.3 0.00939242
0.31 0.0139133
0.32 0.017025
0.33 0.0183913
0.34 0.0176841
0.35 0.0149559
0.36 0.0102063
0.37 0.00353636
0.38 -0.00484987
0.39 -0.0146485
0.4 -0.0255064
0.41 -0.0368202
0.42 -0.0479981
0.43 -0.0584382
0.44 -0.0675189
0.45 -0.0746212
0.46 -0.0790913
0.47 -0.0800878
0.48 -0.0774316
0.49 -0.0707857
0.5 -0.0599327
0.51 -0.0447891
0.52 -0.0254148
0.53 -0.00175274
0.54 0.0256518
0.55 0.0560844
0.56 0.0888802
0.57 0.123263
0.58 0.158368
0.59 0.193252
0.6 0.226709
0.61 0.25781
0.62 0.285613
0.63 0.309237
0.64 0.327894
0.65 0.340908
0.66 0.347339
0.67 0.346817
0.68 0.33953
0.69 0.325502
0.7 0.304937
0.71 0.278214
0.72 0.24588
0.73 0.208164
0.74 0.166541
0.75 0.121978
0.76 0.0754954
0.77 0.0281509
0.78 -0.0189926
0.79 -0.0647836
0.8 -0.108072
0.81 -0.148086
0.82 -0.184079
0.83 -0.215442
0.84 -0.241717
0.85 -0.262609
0.86 -0.277427
0.87 -0.28674
0.88 -0.290865
0.89 -0.29019
0.9 -0.285226
0.91 -0.276592
0.92 -0.264903
0.93 -0.250941
0.94 -0.235713
0.95 -0.219999
0.96 -0.204541
0.97 -0.190029
0.98 -0.177071
0.99 -0.16641
1 -0.158335
1.01 -0.153044
1.02 -0.150661
1.03 -0.151193
1.04 -0.154526
1.05 -0.160507
1.06 -0.168908
1.07 -0.179101
1.08 -0.190631
1.09 -0.203012
1.1 -0.21575
1.11 -0.228362
1.12 -0.240314
1.13 -0.251184
1.14 -0.260674
1.15 -0.268537
1.16 -0.274611
1.17 -0.278822
1.18 -0.28115
1.19 -0.281567
1.2 -0.280444
1.21 -0.27803
1.22 -0.27462
1.23 -0.270541
1.24 -0.266135
1.25 -0.261768
1.26 -0.257805
1.27 -0.254523
1.28 -0.252153
1.29 -0.250867
1.3 -0.25077
1.31 -0.251906
1.32 -0.254348
1.33 -0.257837
1.34 -0.262187
1.35 -0.26716
1.36 -0.272477
1.37 -0.277831
1.38 -0.282865
1.39 -0.287214
1.4 -0.290604
1.41 -0.292778
1.42 -0.293525
1.43 -0.292694
1.44 -0.290202
1.45 -0.285854
1.46 -0.279914
1.47 -0.272543
1.48 -0.263963
1.49 -0.254455
1.5 -0.244346
1.51 -0.234008
1.52 -0.223888
1.53 -0.214386
1.54 -0.205872
1.55 -0.198688
1.56 -0.193128
1.57 -0.189427
1.58 -0.187962
1.59 -0.188643
1.6 -0.191416
1.61 -0.196173
1.62 -0.202727
1.63 -0.210808
1.64 -0.220111
1.65 -0.230214
1.66 -0.240579
1.67 -0.250736
1.68 -0.260209
1.69 -0.268532
1.7 -0.275269
1.71 -0.279818
1.72 -0.281942
1.73 -0.281457
1.74 -0.278208
1.75 -0.272128
1.76 -0.263245
1.77 -0.251616
1.78 -0.237324
1.79 -0.220923
1.8 -0.202787
1.81 -0.183348
1.82 -0.163072
1.83 -0.142449
1.84 -0.122025
1.85 -0.102333
1.86 -0.0838037
1.87 -0.0668248
1.88 -0.0517221
1.89 -0.0387474
1.9 -0.0281059
1.91 -0.0200898
1.92 -0.014433
1.93 -0.0110232
1.94 -0.00967005
1.95 -0.0101139
1.96 -0.0120374
1.97 -0.0151273
1.98 -0.0189131
1.99 -0.0229394
2 -0.0268122
2.01 -0.0301622
2.02 -0.0326601
2.03 -0.0340243
2.04 -0.0338788
2.05 -0.0322395
2.06 -0.0290683
2.07 -0.024408
2.08 -0.0183811
2.09 -0.0111852
2.1 -0.0030537
2.11 0.00563495
2.12 0.0144507
2.13 0.0229889
2.14 0.0308337
2.15 0.0375738
2.16 0.0428183
2.17 0.0459747
2.18 0.0469068
2.19 0.0454024
2.2 0.0413085
2.21 0.0345513
2.22 0.0251394
2.23 0.0130565
2.24 -0.00155038
2.25 -0.0182323
2.26 -0.0366585
2.27 -0.0564449
2.28 -0.0771678
2.29 -0.098377
2.3 -0.119568
2.31 -0.140232
2.32 -0.159942
2.33 -0.178302
2.34 -0.194969
2.35 -0.209658
2.36 -0.22207
2.37 -0.231938
2.38 -0.239399
2.39 -0.244481
2.4 -0.247288
2.41 -0.247986
2.42 -0.246805
2.43 -0.243912
2.44 -0.23976
2.45 -0.234746
2.46 -0.229228
2.47 -0.223563
2.48 -0.218092
2.49 -0.21315
2.5 -0.209103
2.51 -0.206117
2.52 -0.20436
2.53 -0.203944
2.54 -0.204921
2.55 -0.207286
2.56 -0.211072
2.57 -0.216097
2.58 -0.222142
2.59 -0.229007
2.6 -0.236465
2.61 -0.244275
2.62 -0.252187
2.63 -0.259915
2.64 -0.267225
2.65 -0.273912
2.66 -0.279801
2.67 -0.284751
2.68 -0.288657
2.69 -0.291383
2.7 -0.292922
2.71 -0.293359
2.72 -0.292752
2.73 -0.291194
2.74 -0.288801
2.75 -0.285706
2.76 -0.28201
2.77 -0.277945
2.78 -0.273658
2.79 -0.26929
2.8 -0.264963
2.81 -0.260782
2.82 -0.256843
2.83 -0.253209
2.84 -0.249886
2.85 -0.24687
2.86 -0.24413
2.87 -0.241615
2.88 -0.239256
2.89 -0.236967
2.9 -0.234638
2.91 -0.23217
2.92 -0.229468
2.93 -0.226445
2.94 -0.223023
2.95 -0.219118
2.96 -0.214666
2.97 -0.209682
2.98 -0.204168
2.99 -0.198144
3 -0.19165
3.01 -0.184741
3.02 -0.177462
3.03 -0.169929
3.04 -0.162235
3.05 -0.154467
3.06 -0.146708
3.07 -0.139031
3.08 -0.131508
3.09 -0.124201
3.1 -0.117122
3.11 -0.110277
3.12 -0.103653
3.13 -0.0972172
3.14 -0.0909166
3.15 -0.0846813
3.16 -0.0784128
3.17 -0.0720139
3.18 -0.0653833
3.19 -0.0584184
3.2 -0.0510188
3.21 -0.043078
3.22 -0.0344573
3.23 -0.0251439
3.24 -0.0150896
3.25 -0.00426526
3.26 0.00733815
3.27 0.0197093
3.28 0.0328673
3.29 0.0467299
3.3 0.0611944
3.31 0.076177
3.32 0.0915836
3.33 0.107314
3.34 0.123265
3.35 0.139335
3.36 0.155405
3.37 0.171388
3.38 0.187207
3.39 0.202798
3.4 0.218112
3.41 0.233093
3.42 0.247725
3.43 0.262023
3.44 0.275999
3.45 0.289671
3.46 0.30307
3.47 0.316228
3.48 0.329158
3.49 0.341918
3.5 0.354533
3.51 0.367018
3.52 0.379378
3.53 0.391605
3.54 0.403664
3.55 0.415507
3.56 0.427086
3.57 0.438329
3.58 0.449152
3.59 0.459459
3.6 0.469147
3.61 0.478022
3.62 0.486028
3.63 0.49307
3.64 0.499047
3.65 0.503869
3.66 0.507458
3.67 0.509697
3.68 0.510489
3.69 0.509913
3.7 0.507968
3.71 0.504674
3.72 0.500067
3.73 0.494206
3.74 0.487061
3.75 0.478814
3.76 0.469596
3.77 0.459516
3.78 0.44869
3.79 0.437234
3.8 0.425253
3.81 0.412852
3.82 0.400178
3.83 0.387327
3.84 0.374385
3.85 0.361427
3.86 0.348516
3.87 0.335717
3.88 0.323069
3.89 0.310596
3.9 0.298317
3.91 0.286244
3.92 0.274382
3.93 0.262737
3.94 0.251325
3.95 0.240121
3.96 0.229124
3.97 0.218333
3.98 0.207749
3.99 0.197376
4 0.187235
4.01 0.177329
4.02 0.167659
4.03 0.158235
4.04 0.149065
4.05 0.140157
4.06 0.131518
4.07 0.123176
4.08 0.115097
4.09 0.107273
4.1 0.0996856
4.11 0.0923155
4.12 0.0851361
4.13 0.0781239
4.14 0.0712383
4.15 0.0644335
4.16 0.0576719
4.17 0.0509177
4.18 0.0441377
4.19 0.0373037
4.2 0.0303839
4.21 0.023373
4.22 0.0162695
4.23 0.00908129
4.24 0.0018271
4.25 -0.00546416
4.26 -0.0127511
4.27 -0.0199768
4.28 -0.0270848
4.29 -0.0340135
4.3 -0.0406979
4.31 -0.047073
4.32 -0.0530758
4.33 -0.0585987
4.34 -0.0636245
4.35 -0.0681213
4.36 -0.0720627
4.37 -0.075436
4.38 -0.078243
4.39 -0.0804811
4.4 -0.0821677
4.41 -0.0833963
4.42 -0.0842297
4.43 -0.0847418
4.44 -0.0850146
4.45 -0.0851361
4.46 -0.0851998
4.47 -0.0853101
4.48 -0.085553
4.49 -0.0860058
4.5 -0.0867348
4.51 -0.0877937
4.52 -0.0892314
4.53 -0.091095
4.54 -0.0933504
4.55 -0.0959791
4.56 -0.0989461
4.57 -0.1022
4.58 -0.105677
4.59 -0.109304
4.6 -0.112978
4.61 -0.116601
4.62 -0.120082
4.63 -0.12333
4.64 -0.126261
4.65 -0.12879
4.66 -0.130811
4.67 -0.132318
4.68 -0.133283
4.69 -0.133696
4.7 -0.133564
4.71 -0.132912
4.72 -0.131753
4.73 -0.130166
4.74 -0.128247
4.75 -0.126081
4.76 -0.123759
4.77 -0.121374
4.78 -0.119022
4.79 -0.116819
4.8 -0.11484
4.81 -0.11316
4.82 -0.111838
4.83 -0.110921
4.84 -0.11044
4.85 -0.110435
4.86 -0.110903
4.87 -0.111797
4.88 -0.113081
4.89 -0.114709
4.9 -0.116624
4.91 -0.118764
4.92 -0.121068
4.93 -0.123445
4.94 -0.125828
4.95 -0.128154
4.96 -0.130369
4.97 -0.132426
4.98 -0.134282
4.99 -0.135906
5 -0.137305
5.01 -0.138483
5.02 -0.139456
5.03 -0.140247
5.04 -0.140891
5.05 -0.141419
5.06 -0.141887
5.07 -0.142341
5.08 -0.142822
5.09 -0.143367
5.1 -0.144005
5.11 -0.144764
5.12 -0.145663
5.13 -0.14669
5.14 -0.147836
5.15 -0.149077
5.16 -0.150382
5.17 -0.151713
5.18 -0.153015
5.19 -0.154233
5.2 -0.155315
5.21 -0.156209
5.22 -0.156866
5.23 -0.157244
5.24 -0.1573
5.25 -0.156984
5.26 -0.156316
5.27 -0.155296
5.28 -0.15394
5.29 -0.152274
5.3 -0.150335
5.31 -0.148157
5.32 -0.145813
5.33 -0.143374
5.34 -0.140903
5.35 -0.138466
5.36 -0.136123
5.37 -0.13393
5.38 -0.131959
5.39 -0.130223
5.4 -0.128743
5.41 -0.127526
5.42 -0.126562
5.43 -0.12583
5.44 -0.125302
5.45 -0.124918
5.46 -0.124607
5.47 -0.124301
5.48 -0.123926
5.49 -0.123408
5.5 -0.122674
5.51 -0.121618
5.52 -0.120208
5.53 -0.118401
5.54 -0.116164
5.55 -0.113482
5.56 -0.110356
5.57 -0.106782
5.58 -0.1028
5.59 -0.098491
5.6 -0.0939219
5.61 -0.0891721
5.62 -0.0843288
5.63 -0.0794837
5.64 -0.0747498
5.65 -0.0702168
5.66 -0.0659657
5.67 -0.0620678
5.68 -0.0585807
5.69 -0.0555458
5.7 -0.0530073
5.71 -0.05098
5.72 -0.0494069
5.73 -0.0482465
5.74 -0.0474389
5.75 -0.0469082
5.76 -0.0465648
5.77 -0.0463068
5.78 -0.0460086
5.79 -0.0455603
5.8 -0.0448563
5.81 -0.0437984
5.82 -0.0422995
5.83 -0.0402683
5.84 -0.0376166
5.85 -0.0343602
5.86 -0.0304929
5.87 -0.0260316
5.88 -0.0210153
5.89 -0.0155047
5.9 -0.00955265
5.91 -0.00329331
5.92 0.00314802
5.93 0.00965054
5.94 0.0160899
5.95 0.0223429
5.96 0.0282826
5.97 0.0337591
5.98 0.038715
5.99 0.0430807
6 0.046808
6.01 0.0498724
6.02 0.0522739
6.03 0.0539931
6.04 0.0551106
6.05 0.0557298
6.06 0.0559462
6.07 0.0558708
6.08 0.0556256
6.09 0.0553405
6.1 0.0551704
6.11 0.0552424
6.12 0.0556728
6.13 0.0565639
6.14 0.0580002
6.15 0.060045
6.16 0.0627805
6.17 0.0662118
6.18 0.070285
6.19 0.0749552
6.2 0.0801534
6.21 0.0857885
6.22 0.091751
6.23 0.0979237
6.24 0.104134
6.25 0.11024
6.26 0.116102
6.27 0.121583
6.28 0.12656
6.29 0.130884
6.3 0.134446
6.31 0.137223
6.32 0.139176
6.33 0.140294
6.34 0.140589
6.35 0.140098
6.36 0.138818
6.37 0.13691
6.38 0.134488
6.39 0.13167
6.4 0.128581
6.41 0.125351
6.42 0.122114
6.43 0.11901
6.44 0.116149
6.45 0.113623
6.46 0.111507
6.47 0.109856
6.48 0.108701
6.49 0.108096
6.5 0.107985
6.51 0.108313
6.52 0.109019
6.53 0.110023
6.54 0.111233
6.55 0.112547
6.56 0.113844
6.57 0.115007
6.58 0.115935
6.59 0.116532
6.6 0.116717
6.61 0.116422
6.62 0.115552
6.63 0.114104
6.64 0.112092
6.65 0.109534
6.66 0.106469
6.67 0.102951
6.68 0.0990486
6.69 0.0948347
6.7 0.0904426
6.71 0.0859742
6.72 0.0815327
6.73 0.0772185
6.74 0.0731255
6.75 0.0693651
6.76 0.0660073
6.77 0.0630891
6.78 0.060644
6.79 0.0586868
6.8 0.0572139
6.81 0.0562069
6.82 0.0556628
6.83 0.055474
6.84 0.055571
6.85 0.0558753
6.86 0.0563028
6.87 0.056767
6.88 0.0571745
6.89 0.0574337
6.9 0.0574775
6.91 0.0572466
6.92 0.0566948
6.93 0.0557903
6.94 0.0545169
6.95 0.0528336
6.96 0.050801
6.97 0.048453
6.98 0.0458346
6.99 0.0430006
7 0.0400133
7.01 0.0369384
7.02 0.0338539
7.03 0.03083
7.04 0.027927
7.05 0.0251967
7.06 0.0226812
7.07 0.0204104
7.08 0.0184288
7.09 0.0167136
7.1 0.0152468
7.11 0.014001
7.12 0.0129372
7.13 0.0120067
7.14 0.0111533
7.15 0.0103074
7.16 0.00940007
7.17 0.00836967
7.18 0.00715908
7.19 0.00571858
7.2 0.00400837
7.21 0.00197184
7.22 -0.000384051
7.23 -0.00304691
7.24 -0.00599648
7.25 -0.00919748
7.26 -0.0126005
7.27 -0.0161449
7.28 -0.0197511
7.29 -0.0233246
7.3 -0.0267781
7.31 -0.0300228
7.32 -0.0329717
7.33 -0.0355432
7.34 -0.037622
7.35 -0.0391603
7.36 -0.0401304
7.37 -0.040504
7.38 -0.0402708
7.39 -0.0394387
7.4 -0.0380251
7.41 -0.0360385
7.42 -0.0336011
7.43 -0.0307932
7.44 -0.0277069
7.45 -0.0244436
7.46 -0.0211106
7.47 -0.0178291
7.48 -0.0147223
7.49 -0.0118909
7.5 -0.00942951
7.51 -0.00742118
7.52 -0.00593506
7.53 -0.00502773
7.54 -0.00480068
7.55 -0.00520015
7.56 -0.0062184
7.57 -0.00782922
7.58 -0.00998899
7.59 -0.0126383
7.6 -0.0157235
7.61 -0.0191456
7.62 -0.022787
7.63 -0.0265497
7.64 -0.0303347
7.65 -0.0340457
7.66 -0.0375914
7.67 -0.040853
7.68 -0.0437805
7.69 -0.0463201
7.7 -0.0484313
7.71 -0.0500896
7.72 -0.0512868
7.73 -0.0520099
7.74 -0.0522782
7.75 -0.0521635
7.76 -0.0517181
7.77 -0.0510039
7.78 -0.0500897
7.79 -0.0490488
7.8 -0.0479585
7.81 -0.0469044
7.82 -0.0459553
7.83 -0.0451727
7.84 -0.0446084
7.85 -0.0443036
7.86 -0.0442981
7.87 -0.0446207
7.88 -0.0452455
7.89 -0.0461567
7.9 -0.0473251
7.91 -0.0487102
7.92 -0.0502605
7.93 -0.0519196
7.94 -0.0536057
7.95 -0.055245
7.96 -0.0567654
7.97 -0.0580965
7.98 -0.0591715
7.99 -0.0599207
8 -0.0602624
8.01 -0.0601876
8.02 -0.05967
8.03 -0.0586958
8.04 -0.057265
8.05 -0.0553915
8.06 -0.0530731
8.07 -0.0503739
8.08 -0.0473648
8.09 -0.0441105
8.1 -0.0406836
8.11 -0.037163
8.12 -0.0336324
8.13 -0.0301928
8.14 -0.0269263
8.15 -0.0239116
8.16 -0.021221
8.17 -0.0189193
8.18 -0.0170611
8.19 -0.0157248
8.2 -0.0149348
8.21 -0.0146803
8.22 -0.0149611
8.23 -0.015763
8.24 -0.0170584
8.25 -0.0188085
8.26 -0.0209981
8.27 -0.023512
8.28 -0.0262772
8.29 -0.0292148
8.3 -0.0322416
8.31 -0.0352726
8.32 -0.0382132
8.33 -0.040968
8.34 -0.0434662
8.35 -0.045638
8.36 -0.0474222
8.37 -0.0487676
8.38 -0.0496342
8.39 -0.0499366
8.4 -0.0497116
8.41 -0.0489638
8.42 -0.0477062
8.43 -0.0459635
8.44 -0.0437716
8.45 -0.0411602
8.46 -0.0381833
8.47 -0.0349315
8.48 -0.0314717
8.49 -0.0278732
8.5 -0.0242061
8.51 -0.0205392
8.52 -0.0169508
8.53 -0.0135023
8.54 -0.0102446
8.55 -0.00722237
8.56 -0.00447086
8.57 -0.00201578
8.58 0.000116509
8.59 0.00190604
8.6 0.00338635
8.61 0.00457424
8.62 0.00549489
8.63 0.00618073
8.64 0.00667014
8.65 0.00699657
8.66 0.0072203
8.67 0.00739234
8.68 0.00755819
8.69 0.00776061
8.7 0.00803817
8.71 0.00842707
8.72 0.00896571
8.73 0.00966001
8.74 0.0105184
8.75 0.0115409
8.76 0.0127192
8.77 0.0140373
8.78 0.0154783
8.79 0.0170038
8.8 0.0185735
8.81 0.0201487
8.82 0.0216891
8.83 0.0231544
8.84 0.0245039
8.85 0.0256846
8.86 0.0266798
8.87 0.0274666
8.88 0.0280294
8.89 0.0283605
8.9 0.0284608
8.91 0.0283264
8.92 0.027982
8.93 0.0274667
8.94 0.0268148
8.95 0.0260661
8.96 0.0252645
8.97 0.0244563
8.98 0.0236988
8.99 0.0230368
9 0.0225125
9.01 0.0221628
9.02 0.0220181
9.03 0.0221008
9.04 0.0224378
9.05 0.0230345
9.06 0.0238664
9.07 0.0249147
9.08 0.0261509
9.09 0.0275377
9.1 0.0290303
9.11 0.0305775
9.12 0.0321121
9.13 0.0335752
9.14 0.0349085
9.15 0.0360558
9.16 0.0369651
9.17 0.0375767
9.18 0.0378384
9.19 0.0377462
9.2 0.0372857
9.21 0.0364538
9.22 0.0352597
9.23 0.0337246
9.24 0.0318559
9.25 0.0297267
9.26 0.0273985
9.27 0.0249336
9.28 0.0223997
9.29 0.0198674
9.3 0.017413
9.31 0.0151233
9.32 0.0130555
9.33 0.0112676
9.34 0.0098087
9.35 0.00871778
9.36 0.008022
9.37 0.00777071
9.38 0.00794158
9.39 0.00850569
9.4 0.0094347
9.41 0.0106885
9.42 0.0122164
9.43 0.013962
9.44 0.0158609
9.45 0.0178216
9.46 0.0197708
9.47 0.021636
9.48 0.0233478
9.49 0.0248425
9.5 0.0260402
9.51 0.0268978
9.52 0.0273949
9.53 0.0275112
9.54 0.0272392
9.55 0.0265844
9.56 0.0255615
9.57 0.0241727
9.58 0.0225
9.59 0.0205954
9.6 0.0185174
9.61 0.0163296
9.62 0.0140978
9.63 0.0118936
9.64 0.00978982
9.65 0.00784295
9.66 0.00610432
9.67 0.00461693
9.68 0.00341406
9.69 0.00251838
9.7 0.00197821
9.71 0.00175511
9.72 0.00183469
9.73 0.00219295
9.74 0.00279692
9.75 0.00360609
9.76 0.00457953
9.77 0.00566044
9.78 0.00678647
9.79 0.00790583
9.8 0.00896939
9.81 0.00993247
9.82 0.0107565
9.83 0.0113901
9.84 0.0118259
9.85 0.0120553
9.86 0.0120776
9.87 0.0119013
9.88 0.011544
9.89 0.0110268
9.9 0.0103836
9.91 0.00966572
9.92 0.00891642
9.93 0.00818053
9.94 0.0075027
9.95 0.00692553
9.96 0.00650404
9.97 0.00626456
9.98 0.00622805
9.99 0.0064106
10 0.00681936
10.01 0.00745208
10.02 0.00830267
10.03 0.00935757
10.04 0.010567
10.05 0.0118924
10.06 0.0132897
10.07 0.0147103
10.08 0.0161033
10.09 0.0174064
10.1 0.0185668
10.11 0.0195413
10.12 0.020289
10.13 0.0207757
10.14 0.0209749
10.15 0.0208636
10.16 0.0204093
10.17 0.0196474
10.18 0.0185931
10.19 0.0172706
10.2 0.0157133
10.21 0.0139619
10.22 0.0120569
10.23 0.010062
10.24 0.00803915
10.25 0.00604453
10.26 0.00413337
10.27 0.00235805
10.28 0.000768061
10.29 -0.000567329
10.3 -0.00163711
10.31 -0.00241768
10.32 -0.00289478
10.33 -0.00306383
10.34 -0.00293001
10.35 -0.00249222
10.36 -0.00177998
10.37 -0.00084339
10.38 0.000277059
10.39 0.00153558
10.4 0.00288252
10.41 0.00426599
10.42 0.00562572
10.43 0.00690733
10.44 0.00806281
10.45 0.00904841
10.46 0.00982592
10.47 0.0103637
10.48 0.0106237
10.49 0.0105828
10.5 0.0102536
10.51 0.00963814
10.52 0.00874669
10.53 0.00759673
10.54 0.0062124
10.55 0.00460636
10.56 0.00283544
10.57 0.000941656
10.58 -0.00103398
10.59 -0.00304962
10.6 -0.00506371
10.61 -0.00703303
10.62 -0.0089117
10.63 -0.0106702
10.64 -0.0122794
10.65 -0.0137149
10.66 -0.0149573
10.67 -0.0159925
10.68 -0.0167916
10.69 -0.0173653
10.7 -0.0177215
10.71 -0.0178671
10.72 -0.0178124
10.73 -0.0175711
10.74 -0.0171556
10.75 -0.0165772
10.76 -0.0158709
10.77 -0.0150577
10.78 -0.0141585
10.79 -0.0131939
10.8 -0.0121841
10.81 -0.0111479
10.82 -0.0101068
10.83 -0.00907849
10.84 -0.00807845
10.85 -0.00712108
10.86 -0.00621963
10.87 -0.00538756
10.88 -0.00464428
10.89 -0.00399287
10.9 -0.00344281
10.91 -0.00300285
10.92 -0.002681
10.93 -0.0024845
10.94 -0.00242906
10.95 -0.00251781
10.96 -0.00274788
10.97 -0.00312119
10.98 -0.00363778
10.99 -0.00429549
11 -0.00509031
11.01 -0.00602762
11.02 -0.00708109
11.03 -0.00823653
11.04 -0.00947657
11.05 -0.0107807
11.06 -0.0121256
11.07 -0.0134842
11.08 -0.0148233
11.09 -0.0161115
11.1 -0.0173169
11.11 -0.0184075
11.12 -0.0193514
11.13 -0.020118
11.14 -0.0206531
11.15 -0.0209507
11.16 -0.0209913
11.17 -0.020759
11.18 -0.020243
11.19 -0.0194388
11.2 -0.0183351
11.21 -0.0169356
11.22 -0.0152774
11.23 -0.0133838
11.24 -0.0112846
11.25 -0.00901512
11.26 -0.00661562
11.27 -0.00412703
11.28 -0.00160978
11.29 0.000884598
11.3 0.00330551
11.31 0.00560316
11.32 0.00772979
11.33 0.00963187
11.34 0.0112529
11.35 0.0125785
11.36 0.0135831
11.37 0.0142487
11.38 0.0145653
11.39 0.0145316
11.4 0.0141259
11.41 0.0133877
11.42 0.0123529
11.43 0.0110546
11.44 0.00953282
11.45 0.0078325
11.46 0.00600127
11.47 0.0040932
11.48 0.00217319
11.49 0.000294545
11.5 -0.00149136
11.51 -0.00313647
11.52 -0.0045974
11.53 -0.00581699
11.54 -0.00677003
11.55 -0.00744484
11.56 -0.00782911
11.57 -0.00791922
11.58 -0.00772031
11.59 -0.00724265
11.6 -0.0064885
11.61 -0.00551698
11.62 -0.00436497
11.63 -0.00307426
11.64 -0.00169021
11.65 -0.000260417
11.66 0.00116334
11.67 0.0025268
11.68 0.00378597
11.69 0.0049003
11.7 0.00583442
11.71 0.00655912
11.72 0.00705173
11.73 0.00726919
11.74 0.00723441
11.75 0.00695136
11.76 0.00643195
11.77 0.00569554
11.78 0.00476828
11.79 0.00367565
11.8 0.00245997
11.81 0.00117199
11.82 -0.000145212
