# xPDFsuite Configuration #
[PDF]
wavelength = 0.1
dataformat = QA
inputfile = BiMsol6_insitu_700 C-00678.xy
backgroundfile = Quartz2mm-dist500-00000.xy
mode = xray
bgscale = 0.0042
composition = Bi2Fe4O9
outputtype = gr
qmaxinst = 24.998449118
qmin = 0.1
qmax = 21.4986662415
rmax = 80.0
rmin = 0.0
rstep = 0.01
rpoly = 0.9

[Misc]
inputdir = C:/Data/Seafile/CPH/Beamtime/Desy Oct 20/In situ data/Processed/BiMsol6/PDF
savedir = C:/Data/Seafile/CPH/Beamtime/Desy Oct 20/In situ data/PDF/BiMsol6
backgroundfilefull = C:/Data/Seafile/CPH/Beamtime/Desy Oct 20/In situ data/Processed/Standard_Empty_Cap/Quartz2mm-dist500-00000.xy

#### start data
#S 1
#L r($\AA$)  G($\AA^{-2}$)
0 0
0.01 0.0059475
0.02 0.011557
0.03 0.0165394
0.04 0.0206351
0.05 0.0236263
0.06 0.0253471
0.07 0.0256157
0.08 0.0243796
0.09 0.0217724
0.1 0.0179046
0.11 0.0129468
0.12 0.00712336
0.13 0.000701456
0.14 -0.00601825
0.15 -0.0126576
0.16 -0.0188977
0.17 -0.0244391
0.18 -0.0290137
0.19 -0.0323976
0.2 -0.0343611
0.21 -0.0347475
0.22 -0.0336495
0.23 -0.03113
0.24 -0.0273254
0.25 -0.0224406
0.26 -0.0167418
0.27 -0.0105325
0.28 -0.00424751
0.29 0.00172592
0.3 0.00701181
0.31 0.011253
0.32 0.0141286
0.33 0.015314
0.34 0.0144919
0.35 0.0117135
0.36 0.00697853
0.37 0.000384665
0.38 -0.00787062
0.39 -0.017493
0.4 -0.0281403
0.41 -0.0392275
0.42 -0.0501805
0.43 -0.0604147
0.44 -0.0693254
0.45 -0.0763102
0.46 -0.0807314
0.47 -0.0817668
0.48 -0.0792389
0.49 -0.0728146
0.5 -0.0622762
0.51 -0.0475357
0.52 -0.0286437
0.53 -0.00553272
0.54 0.0212747
0.55 0.0510896
0.56 0.0832719
0.57 0.117073
0.58 0.151654
0.59 0.186104
0.6 0.219255
0.61 0.250193
0.62 0.277996
0.63 0.301799
0.64 0.320822
0.65 0.334397
0.66 0.341592
0.67 0.342025
0.68 0.335859
0.69 0.323095
0.7 0.303911
0.71 0.278653
0.72 0.247834
0.73 0.211639
0.74 0.171503
0.75 0.128351
0.76 0.0831663
0.77 0.0369731
0.78 -0.00919657
0.79 -0.0542276
0.8 -0.0969948
0.81 -0.136724
0.82 -0.172671
0.83 -0.204224
0.84 -0.230914
0.85 -0.25243
0.86 -0.268072
0.87 -0.278363
0.88 -0.283583
0.89 -0.284083
0.9 -0.280339
0.91 -0.272933
0.92 -0.262442
0.93 -0.249611
0.94 -0.235422
0.95 -0.220633
0.96 -0.205973
0.97 -0.192122
0.98 -0.179685
0.99 -0.1694
1 -0.161577
1.01 -0.156436
1.02 -0.154127
1.03 -0.154681
1.04 -0.158015
1.05 -0.164006
1.06 -0.172464
1.07 -0.182787
1.08 -0.194543
1.09 -0.207267
1.1 -0.220479
1.11 -0.233703
1.12 -0.246416
1.13 -0.258182
1.14 -0.268679
1.15 -0.277641
1.16 -0.284876
1.17 -0.290275
1.18 -0.293782
1.19 -0.295317
1.2 -0.295213
1.21 -0.293681
1.22 -0.290977
1.23 -0.287396
1.24 -0.283254
1.25 -0.27888
1.26 -0.274634
1.27 -0.270804
1.28 -0.267632
1.29 -0.265309
1.3 -0.263969
1.31 -0.263691
1.32 -0.264587
1.33 -0.266466
1.34 -0.269198
1.35 -0.272603
1.36 -0.276459
1.37 -0.280515
1.38 -0.284482
1.39 -0.288045
1.4 -0.290953
1.41 -0.292974
1.42 -0.293914
1.43 -0.293626
1.44 -0.292017
1.45 -0.288905
1.46 -0.28448
1.47 -0.278859
1.48 -0.272207
1.49 -0.264743
1.5 -0.256726
1.51 -0.248453
1.52 -0.240283
1.53 -0.23255
1.54 -0.225558
1.55 -0.219589
1.56 -0.214886
1.57 -0.211646
1.58 -0.210173
1.59 -0.210399
1.6 -0.212281
1.61 -0.21573
1.62 -0.22059
1.63 -0.226637
1.64 -0.233614
1.65 -0.241167
1.66 -0.248858
1.67 -0.2563
1.68 -0.263101
1.69 -0.26888
1.7 -0.273284
1.71 -0.27582
1.72 -0.276308
1.73 -0.274612
1.74 -0.27062
1.75 -0.264294
1.76 -0.255677
1.77 -0.244835
1.78 -0.231864
1.79 -0.217233
1.8 -0.201267
1.81 -0.184334
1.82 -0.166829
1.83 -0.14916
1.84 -0.131785
1.85 -0.115131
1.86 -0.099537
1.87 -0.0853049
1.88 -0.0726804
1.89 -0.0618446
1.9 -0.0529361
1.91 -0.0461572
1.92 -0.0412556
1.93 -0.0381067
1.94 -0.036524
1.95 -0.0362681
1.96 -0.0370572
1.97 -0.0386067
1.98 -0.0405278
1.99 -0.0424609
2 -0.0440975
2.01 -0.0451595
2.02 -0.0454118
2.03 -0.0446681
2.04 -0.0426792
2.05 -0.0395278
2.06 -0.0352514
2.07 -0.0299573
2.08 -0.0238201
2.09 -0.0170749
2.1 -0.0100107
2.11 -0.00301282
2.12 0.00353849
2.13 0.00926865
2.14 0.0138065
2.15 0.016799
2.16 0.0179249
2.17 0.0166487
2.18 0.0129604
2.19 0.00674239
2.2 -0.00206476
2.21 -0.0134423
2.22 -0.0272928
2.23 -0.0435343
2.24 -0.0619274
2.25 -0.0819824
2.26 -0.10332
2.27 -0.125522
2.28 -0.148144
2.29 -0.170729
2.3 -0.192733
2.31 -0.213717
2.32 -0.2333
2.33 -0.251139
2.34 -0.266948
2.35 -0.280511
2.36 -0.291597
2.37 -0.300021
2.38 -0.306013
2.39 -0.309679
2.4 -0.31119
2.41 -0.310781
2.42 -0.30874
2.43 -0.305312
2.44 -0.300974
2.45 -0.296137
2.46 -0.291172
2.47 -0.286434
2.48 -0.282254
2.49 -0.278949
2.5 -0.276866
2.51 -0.276096
2.52 -0.276754
2.53 -0.278892
2.54 -0.2825
2.55 -0.287509
2.56 -0.293879
2.57 -0.301359
2.58 -0.309674
2.59 -0.318572
2.6 -0.327782
2.61 -0.337025
2.62 -0.346019
2.63 -0.354425
2.64 -0.362042
2.65 -0.36867
2.66 -0.37415
2.67 -0.378364
2.68 -0.381242
2.69 -0.382676
2.7 -0.382718
2.71 -0.381519
2.72 -0.379197
2.73 -0.375902
2.74 -0.371809
2.75 -0.367112
2.76 -0.361992
2.77 -0.356717
2.78 -0.351483
2.79 -0.346469
2.8 -0.34183
2.81 -0.337698
2.82 -0.334208
2.83 -0.331436
2.84 -0.329364
2.85 -0.32798
2.86 -0.327239
2.87 -0.32707
2.88 -0.327373
2.89 -0.328057
2.9 -0.328941
2.91 -0.32988
2.92 -0.330733
2.93 -0.331362
2.94 -0.331638
2.95 -0.331421
2.96 -0.330582
2.97 -0.32908
2.98 -0.32686
2.99 -0.323883
3 -0.32013
3.01 -0.315597
3.02 -0.310221
3.03 -0.304081
3.04 -0.297217
3.05 -0.289653
3.06 -0.28141
3.07 -0.272498
3.08 -0.262898
3.09 -0.252558
3.1 -0.241503
3.11 -0.229686
3.12 -0.217046
3.13 -0.203506
3.14 -0.188981
3.15 -0.173277
3.16 -0.156344
3.17 -0.138123
3.18 -0.118529
3.19 -0.0974945
3.2 -0.074967
3.21 -0.0508892
3.22 -0.0251539
3.23 0.0020481
3.24 0.0306365
3.25 0.0604942
3.26 0.091467
3.27 0.123365
3.28 0.155996
3.29 0.189046
3.3 0.222201
3.31 0.255155
3.32 0.287596
3.33 0.319201
3.34 0.34964
3.35 0.378427
3.36 0.405405
3.37 0.430316
3.38 0.452931
3.39 0.473057
3.4 0.490539
3.41 0.50509
3.42 0.516661
3.43 0.525392
3.44 0.531314
3.45 0.534496
3.46 0.535046
3.47 0.533103
3.48 0.528584
3.49 0.521965
3.5 0.513454
3.51 0.503266
3.52 0.491615
3.53 0.478716
3.54 0.46473
3.55 0.449866
3.56 0.434364
3.57 0.418379
3.58 0.402048
3.59 0.385487
3.6 0.368796
3.61 0.352058
3.62 0.335347
3.63 0.318715
3.64 0.302204
3.65 0.285853
3.66 0.269698
3.67 0.253788
3.68 0.238183
3.69 0.222918
3.7 0.208055
3.71 0.193668
3.72 0.179842
3.73 0.166674
3.74 0.154353
3.75 0.142956
3.76 0.132587
3.77 0.123373
3.78 0.11544
3.79 0.108908
3.8 0.10394
3.81 0.100745
3.82 0.0992727
3.83 0.0995895
3.84 0.101741
3.85 0.105749
3.86 0.111615
3.87 0.119459
3.88 0.129134
3.89 0.1405
3.9 0.153455
3.91 0.167879
3.92 0.183638
3.93 0.200599
3.94 0.218662
3.95 0.237544
3.96 0.257073
3.97 0.277078
3.98 0.29739
3.99 0.317848
4 0.338285
4.01 0.358542
4.02 0.378489
4.03 0.398012
4.04 0.417006
4.05 0.43538
4.06 0.453051
4.07 0.469862
4.08 0.485834
4.09 0.500919
4.1 0.515071
4.11 0.528249
4.12 0.540415
4.13 0.551466
4.14 0.561361
4.15 0.570122
4.16 0.577706
4.17 0.58407
4.18 0.589169
4.19 0.592957
4.2 0.595225
4.21 0.596073
4.22 0.595462
4.23 0.593349
4.24 0.5897
4.25 0.584486
4.26 0.577605
4.27 0.569016
4.28 0.558826
4.29 0.547047
4.3 0.533702
4.31 0.518824
4.32 0.502461
4.33 0.484529
4.34 0.465229
4.35 0.444661
4.36 0.422912
4.37 0.400075
4.38 0.376248
4.39 0.351506
4.4 0.325934
4.41 0.299709
4.42 0.272937
4.43 0.245722
4.44 0.218167
4.45 0.190372
4.46 0.16243
4.47 0.134455
4.48 0.106538
4.49 0.0787668
4.5 0.0512228
4.51 0.0239857
4.52 -0.00285525
4.53 -0.0291876
4.54 -0.0549763
4.55 -0.0801528
4.56 -0.104651
4.57 -0.128408
4.58 -0.151363
4.59 -0.173387
4.6 -0.194458
4.61 -0.214561
4.62 -0.233656
4.63 -0.25171
4.64 -0.268695
4.65 -0.284577
4.66 -0.299253
4.67 -0.312835
4.68 -0.325336
4.69 -0.336778
4.7 -0.347194
4.71 -0.356624
4.72 -0.365057
4.73 -0.372581
4.74 -0.379306
4.75 -0.385302
4.76 -0.390643
4.77 -0.395405
4.78 -0.399663
4.79 -0.403453
4.8 -0.406901
4.81 -0.410072
4.82 -0.413024
4.83 -0.415811
4.84 -0.418475
4.85 -0.421048
4.86 -0.423557
4.87 -0.426022
4.88 -0.428447
4.89 -0.430829
4.9 -0.433157
4.91 -0.435413
4.92 -0.43756
4.93 -0.439578
4.94 -0.441434
4.95 -0.443095
4.96 -0.444528
4.97 -0.445698
4.98 -0.446559
4.99 -0.447067
5 -0.447218
5.01 -0.446989
5.02 -0.446358
5.03 -0.44531
5.04 -0.44383
5.05 -0.441863
5.06 -0.439438
5.07 -0.436557
5.08 -0.433216
5.09 -0.429414
5.1 -0.425149
5.11 -0.420406
5.12 -0.415164
5.13 -0.409463
5.14 -0.403306
5.15 -0.396698
5.16 -0.389645
5.17 -0.382156
5.18 -0.374209
5.19 -0.365846
5.2 -0.357102
5.21 -0.348005
5.22 -0.338588
5.23 -0.328889
5.24 -0.31895
5.25 -0.308818
5.26 -0.298573
5.27 -0.288279
5.28 -0.278005
5.29 -0.267825
5.3 -0.257812
5.31 -0.248068
5.32 -0.238667
5.33 -0.229673
5.34 -0.221151
5.35 -0.213165
5.36 -0.205767
5.37 -0.199013
5.38 -0.193002
5.39 -0.187688
5.4 -0.183083
5.41 -0.179184
5.42 -0.17598
5.43 -0.173447
5.44 -0.17159
5.45 -0.170347
5.46 -0.169635
5.47 -0.169393
5.48 -0.169559
5.49 -0.170065
5.5 -0.170844
5.51 -0.171845
5.52 -0.172973
5.53 -0.174166
5.54 -0.175368
5.55 -0.176527
5.56 -0.177596
5.57 -0.178526
5.58 -0.179275
5.59 -0.179822
5.6 -0.180142
5.61 -0.180212
5.62 -0.180012
5.63 -0.179523
5.64 -0.178688
5.65 -0.177516
5.66 -0.175984
5.67 -0.174065
5.68 -0.17173
5.69 -0.168943
5.7 -0.165643
5.71 -0.161769
5.72 -0.157314
5.73 -0.152235
5.74 -0.146489
5.75 -0.140037
5.76 -0.132844
5.77 -0.124805
5.78 -0.115957
5.79 -0.106308
5.8 -0.0958629
5.81 -0.0846374
5.82 -0.0726625
5.83 -0.0599616
5.84 -0.0465705
5.85 -0.0326235
5.86 -0.0182089
5.87 -0.00342533
5.88 0.0116198
5.89 0.0268126
5.9 0.0420279
5.91 0.057131
5.92 0.0720063
5.93 0.0865448
5.94 0.100646
5.95 0.11422
5.96 0.127178
5.97 0.139404
5.98 0.150919
5.99 0.161701
6 0.171748
6.01 0.181073
6.02 0.189706
6.03 0.197647
6.04 0.204984
6.05 0.21181
6.06 0.2182
6.07 0.224229
6.08 0.22997
6.09 0.235492
6.1 0.240847
6.11 0.246105
6.12 0.251299
6.13 0.256447
6.14 0.261548
6.15 0.266585
6.16 0.271511
6.17 0.276265
6.18 0.280776
6.19 0.28496
6.2 0.288716
6.21 0.291939
6.22 0.29452
6.23 0.296245
6.24 0.297086
6.25 0.296944
6.26 0.295731
6.27 0.293374
6.28 0.289818
6.29 0.284958
6.3 0.278767
6.31 0.271335
6.32 0.262699
6.33 0.252913
6.34 0.242052
6.35 0.230212
6.36 0.217421
6.37 0.203898
6.38 0.189786
6.39 0.175221
6.4 0.160339
6.41 0.145274
6.42 0.130157
6.43 0.11512
6.44 0.100266
6.45 0.0856773
6.46 0.0714197
6.47 0.0575396
6.48 0.0440646
6.49 0.0310414
6.5 0.0184265
6.51 0.00618068
6.52 -0.00573976
6.53 -0.0173894
6.54 -0.0288309
6.55 -0.0401298
6.56 -0.0513606
6.57 -0.0626007
6.58 -0.0739109
6.59 -0.0853433
6.6 -0.0969393
6.61 -0.108727
6.62 -0.120738
6.63 -0.132956
6.64 -0.145352
6.65 -0.157889
6.66 -0.170513
6.67 -0.183159
6.68 -0.195744
6.69 -0.208157
6.7 -0.220307
6.71 -0.232091
6.72 -0.243407
6.73 -0.25415
6.74 -0.264221
6.75 -0.273463
6.76 -0.2818
6.77 -0.289189
6.78 -0.295567
6.79 -0.300878
6.8 -0.305079
6.81 -0.30813
6.82 -0.30989
6.83 -0.310478
6.84 -0.309891
6.85 -0.308138
6.86 -0.305232
6.87 -0.301188
6.88 -0.295961
6.89 -0.289579
6.9 -0.282126
6.91 -0.273619
6.92 -0.264075
6.93 -0.253506
6.94 -0.241924
6.95 -0.22922
6.96 -0.215511
6.97 -0.200802
6.98 -0.185094
6.99 -0.168388
7 -0.150687
7.01 -0.131948
7.02 -0.112165
7.03 -0.0914218
7.04 -0.069742
7.05 -0.047157
7.06 -0.0237069
7.07 0.000558927
7.08 0.0256528
7.09 0.0514297
7.1 0.0777993
7.11 0.104673
7.12 0.131954
7.13 0.159541
7.14 0.187327
7.15 0.215186
7.16 0.242988
7.17 0.270616
7.18 0.297954
7.19 0.324885
7.2 0.351297
7.21 0.377014
7.22 0.401962
7.23 0.426059
7.24 0.449216
7.25 0.471346
7.26 0.492371
7.27 0.512182
7.28 0.530628
7.29 0.547755
7.3 0.563507
7.31 0.577834
7.32 0.590689
7.33 0.602026
7.34 0.611677
7.35 0.619669
7.36 0.626024
7.37 0.63071
7.38 0.633697
7.39 0.63496
7.4 0.634447
7.41 0.63199
7.42 0.627755
7.43 0.621734
7.44 0.613931
7.45 0.604353
7.46 0.593018
7.47 0.579836
7.48 0.564889
7.49 0.54831
7.5 0.530162
7.51 0.510517
7.52 0.48946
7.53 0.46708
7.54 0.443371
7.55 0.418597
7.56 0.392885
7.57 0.366374
7.58 0.339206
7.59 0.311531
7.6 0.283491
7.61 0.255266
7.62 0.227032
7.63 0.198945
7.64 0.171158
7.65 0.143819
7.66 0.11707
7.67 0.0911421
7.68 0.0660958
7.69 0.0420412
7.7 0.0190816
7.71 -0.00269166
7.72 -0.0231995
7.73 -0.0423097
7.74 -0.0599339
7.75 -0.0761295
7.76 -0.0908744
7.77 -0.10416
7.78 -0.115989
7.79 -0.126377
7.8 -0.135215
7.81 -0.142665
7.82 -0.148801
7.83 -0.153683
7.84 -0.157375
7.85 -0.159951
7.86 -0.161454
7.87 -0.161932
7.88 -0.161554
7.89 -0.160401
7.9 -0.158558
7.91 -0.156105
7.92 -0.15312
7.93 -0.149644
7.94 -0.145781
7.95 -0.141605
7.96 -0.13717
7.97 -0.132527
7.98 -0.127715
7.99 -0.122768
8 -0.117708
8.01 -0.112568
8.02 -0.107362
8.03 -0.1021
8.04 -0.0967874
8.05 -0.0914276
8.06 -0.0860182
8.07 -0.0805615
8.08 -0.0750606
8.09 -0.0695182
8.1 -0.0639397
8.11 -0.0583338
8.12 -0.0527133
8.13 -0.047098
8.14 -0.0415122
8.15 -0.0359833
8.16 -0.0305431
8.17 -0.0252269
8.18 -0.0200731
8.19 -0.0151389
8.2 -0.0104683
8.21 -0.00609197
8.22 -0.00204901
8.23 0.00162453
8.24 0.00489708
8.25 0.00774114
8.26 0.0100869
8.27 0.011974
8.28 0.0134015
8.29 0.0143773
8.3 0.014918
8.31 0.015049
8.32 0.014785
8.33 0.0141727
8.34 0.0132832
8.35 0.0121696
8.36 0.0108877
8.37 0.00949472
8.38 0.00804722
8.39 0.00660478
8.4 0.00522115
8.41 0.00393816
8.42 0.00278971
8.43 0.00180049
8.44 0.000984991
8.45 0.000354455
8.46 -9.71478e-05
8.47 -0.000404563
8.48 -0.000600467
8.49 -0.000727358
8.5 -0.000836391
8.51 -0.000985934
8.52 -0.00125688
8.53 -0.00171632
8.54 -0.0024312
8.55 -0.00346937
8.56 -0.00489542
8.57 -0.00676874
8.58 -0.00916032
8.59 -0.0121449
8.6 -0.0157109
8.61 -0.0198777
8.62 -0.0246526
8.63 -0.0300311
8.64 -0.0359966
8.65 -0.0425665
8.66 -0.0496639
8.67 -0.057222
8.68 -0.0651835
8.69 -0.0734852
8.7 -0.0820599
8.71 -0.0908415
8.72 -0.0997614
8.73 -0.108735
8.74 -0.117699
8.75 -0.126597
8.76 -0.135376
8.77 -0.143993
8.78 -0.152396
8.79 -0.16056
8.8 -0.168478
8.81 -0.176139
8.82 -0.183541
8.83 -0.190689
8.84 -0.197586
8.85 -0.204226
8.86 -0.21065
8.87 -0.216871
8.88 -0.222905
8.89 -0.228764
8.9 -0.234457
8.91 -0.239979
8.92 -0.245332
8.93 -0.250518
8.94 -0.255526
8.95 -0.26034
8.96 -0.26494
8.97 -0.2693
8.98 -0.273359
8.99 -0.277116
9 -0.280542
9.01 -0.283606
9.02 -0.286283
9.03 -0.288548
9.04 -0.290358
9.05 -0.291694
9.06 -0.292576
9.07 -0.293004
9.08 -0.292984
9.09 -0.29253
9.1 -0.291661
9.11 -0.290365
9.12 -0.288712
9.13 -0.286744
9.14 -0.284497
9.15 -0.282013
9.16 -0.27933
9.17 -0.276485
9.18 -0.273516
9.19 -0.270469
9.2 -0.267373
9.21 -0.264255
9.22 -0.261134
9.23 -0.258027
9.24 -0.254946
9.25 -0.251895
9.26 -0.248873
9.27 -0.245875
9.28 -0.242895
9.29 -0.239923
9.3 -0.23695
9.31 -0.233961
9.32 -0.23095
9.33 -0.227907
9.34 -0.224829
9.35 -0.221712
9.36 -0.218558
9.37 -0.215369
9.38 -0.212157
9.39 -0.208933
9.4 -0.205712
9.41 -0.202509
9.42 -0.199341
9.43 -0.196224
9.44 -0.19318
9.45 -0.190215
9.46 -0.187338
9.47 -0.18455
9.48 -0.181851
9.49 -0.179232
9.5 -0.176682
9.51 -0.174172
9.52 -0.17167
9.53 -0.169139
9.54 -0.166537
9.55 -0.163815
9.56 -0.160918
9.57 -0.157762
9.58 -0.154308
9.59 -0.150496
9.6 -0.14627
9.61 -0.141573
9.62 -0.136353
9.63 -0.130524
9.64 -0.124043
9.65 -0.116909
9.66 -0.109094
9.67 -0.100582
9.68 -0.09136
9.69 -0.0814271
9.7 -0.0707081
9.71 -0.0592987
9.72 -0.0472213
9.73 -0.0345032
9.74 -0.021177
9.75 -0.00727963
9.76 0.00717331
9.77 0.0221385
9.78 0.0375356
9.79 0.0533177
9.8 0.0694367
9.81 0.0858447
9.82 0.102493
9.83 0.119349
9.84 0.136341
9.85 0.153419
9.86 0.170535
9.87 0.187638
9.88 0.20468
9.89 0.221602
9.9 0.238339
9.91 0.254846
9.92 0.271068
9.93 0.286948
9.94 0.302428
9.95 0.317449
9.96 0.331901
9.97 0.345755
9.98 0.358966
9.99 0.371483
10 0.383257
10.01 0.394241
10.02 0.404374
10.03 0.41357
10.04 0.42188
10.05 0.429291
10.06 0.4358
10.07 0.441414
10.08 0.446147
10.09 0.449959
10.1 0.452931
10.11 0.45514
10.12 0.456639
10.13 0.45749
10.14 0.457758
10.15 0.457505
10.16 0.456779
10.17 0.455701
10.18 0.454343
10.19 0.452775
10.2 0.451061
10.21 0.449261
10.22 0.447428
10.23 0.445614
10.24 0.443854
10.25 0.442175
10.26 0.440592
10.27 0.439115
10.28 0.437743
10.29 0.436476
10.3 0.435287
10.31 0.434153
10.32 0.433045
10.33 0.431932
10.34 0.430779
10.35 0.429545
10.36 0.428185
10.37 0.426669
10.38 0.424961
10.39 0.423026
10.4 0.420832
10.41 0.418349
10.42 0.415509
10.43 0.412319
10.44 0.408755
10.45 0.404796
10.46 0.400419
10.47 0.395602
10.48 0.390302
10.49 0.384484
10.5 0.378159
10.51 0.371303
10.52 0.363895
10.53 0.355912
10.54 0.347331
10.55 0.338064
10.56 0.328145
10.57 0.317563
10.58 0.306307
10.59 0.294366
10.6 0.281735
10.61 0.268393
10.62 0.254321
10.63 0.239594
10.64 0.22424
10.65 0.208295
10.66 0.191805
10.67 0.174823
10.68 0.157379
10.69 0.139578
10.7 0.121509
10.71 0.103253
10.72 0.084893
10.73 0.0665141
10.74 0.0482045
10.75 0.0300653
10.76 0.0121646
10.77 -0.00542934
10.78 -0.0226564
10.79 -0.0394665
10.8 -0.0558207
10.81 -0.0716518
10.82 -0.0869659
10.83 -0.101782
10.84 -0.116114
10.85 -0.129986
10.86 -0.143433
10.87 -0.156495
10.88 -0.169201
10.89 -0.181647
10.9 -0.193893
10.91 -0.206
10.92 -0.218026
10.93 -0.230026
10.94 -0.242054
10.95 -0.254154
10.96 -0.266351
10.97 -0.278663
10.98 -0.291093
10.99 -0.303634
11 -0.316263
11.01 -0.328947
11.02 -0.341628
11.03 -0.354246
11.04 -0.366731
11.05 -0.379008
11.06 -0.390994
11.07 -0.402578
11.08 -0.413659
11.09 -0.424175
11.1 -0.434045
11.11 -0.443193
11.12 -0.45155
11.13 -0.459057
11.14 -0.46556
11.15 -0.471112
11.16 -0.475696
11.17 -0.479297
11.18 -0.481915
11.19 -0.48356
11.2 -0.484208
11.21 -0.483871
11.22 -0.482653
11.23 -0.480599
11.24 -0.477756
11.25 -0.474173
11.26 -0.469901
11.27 -0.464932
11.28 -0.45937
11.29 -0.45327
11.3 -0.446671
11.31 -0.439604
11.32 -0.432097
11.33 -0.424158
11.34 -0.415782
11.35 -0.407011
11.36 -0.397847
11.37 -0.388287
11.38 -0.378326
11.39 -0.367956
11.4 -0.357128
11.41 -0.345858
11.42 -0.334149
11.43 -0.321995
11.44 -0.309395
11.45 -0.296351
11.46 -0.282862
11.47 -0.268914
11.48 -0.254571
11.49 -0.239862
11.5 -0.224821
11.51 -0.209492
11.52 -0.193923
11.53 -0.178158
11.54 -0.162272
11.55 -0.146336
11.56 -0.130417
11.57 -0.114586
11.58 -0.0989109
11.59 -0.0834669
11.6 -0.0683576
11.61 -0.053624
11.62 -0.0393285
11.63 -0.0255291
11.64 -0.0122785
11.65 0.000376141
11.66 0.01235
11.67 0.0236155
11.68 0.0341812
11.69 0.0440305
11.7 0.0531547
11.71 0.0615525
11.72 0.0692289
11.73 0.0761199
11.74 0.0823303
11.75 0.0878883
11.76 0.0928277
11.77 0.0971872
11.78 0.101009
11.79 0.104316
11.8 0.107159
11.81 0.10962
11.82 0.111746
11.83 0.113587
11.84 0.11519
11.85 0.116598
11.86 0.117838
11.87 0.118964
11.88 0.120004
11.89 0.120981
11.9 0.121909
11.91 0.122794
11.92 0.123635
11.93 0.124419
11.94 0.125131
11.95 0.125745
11.96 0.126229
11.97 0.126542
11.98 0.126641
11.99 0.126443
12 0.125909
12.01 0.124987
12.02 0.123617
12.03 0.12174
12.04 0.119298
12.05 0.116213
12.06 0.112393
12.07 0.107843
12.08 0.102523
12.09 0.0963993
12.1 0.089447
12.11 0.081648
12.12 0.0729199
12.13 0.0633114
12.14 0.052861
12.15 0.0415901
12.16 0.0295286
12.17 0.0167157
12.18 0.00318439
