# xPDFsuite Configuration #
[PDF]
wavelength = 0.1
dataformat = QA
inputfile = BiMsol6_insitu_700 C-00630.xy
backgroundfile = Quartz2mm-dist500-00000.xy
mode = xray
bgscale = 0.0042
composition = Bi2Fe4O9
outputtype = gr
qmaxinst = 24.998449118
qmin = 0.1
qmax = 21.4986662415
rmax = 80.0
rmin = 0.0
rstep = 0.01
rpoly = 0.9

[Misc]
inputdir = C:/Data/Seafile/CPH/Beamtime/Desy Oct 20/In situ data/Processed/BiMsol6/PDF
savedir = C:/Data/Seafile/CPH/Beamtime/Desy Oct 20/In situ data/PDF/BiMsol6
backgroundfilefull = C:/Data/Seafile/CPH/Beamtime/Desy Oct 20/In situ data/Processed/Standard_Empty_Cap/Quartz2mm-dist500-00000.xy

#### start data
#S 1
#L r($\AA$)  G($\AA^{-2}$)
0 0
0.01 0.00587553
0.02 0.0114141
0.03 0.0163273
0.04 0.0203568
0.05 0.0232859
0.06 0.0249502
0.07 0.02517
0.08 0.0238947
0.09 0.0212598
0.1 0.0173772
0.11 0.0124196
0.12 0.00661265
0.13 0.000224932
0.14 -0.00644031
0.15 -0.0130067
0.16 -0.0191563
0.17 -0.0245914
0.18 -0.0290465
0.19 -0.0323009
0.2 -0.034129
0.21 -0.0343798
0.22 -0.0331517
0.23 -0.0305137
0.24 -0.0266079
0.25 -0.0216451
0.26 -0.0158966
0.27 -0.00967412
0.28 -0.0034137
0.29 0.0024962
0.3 0.00767912
0.31 0.0117791
0.32 0.0144781
0.33 0.0154553
0.34 0.0143995
0.35 0.0113725
0.36 0.00638321
0.37 -0.000460289
0.38 -0.00894988
0.39 -0.0187804
0.4 -0.0295952
0.41 -0.0408004
0.42 -0.0518149
0.43 -0.0620478
0.44 -0.0708901
0.45 -0.0777374
0.46 -0.0819514
0.47 -0.0827089
0.48 -0.0798454
0.49 -0.0730369
0.5 -0.0620772
0.51 -0.0468911
0.52 -0.0275437
0.53 -0.00398449
0.54 0.0232465
0.55 0.0534454
0.56 0.0859585
0.57 0.120025
0.58 0.154796
0.59 0.189351
0.6 0.222513
0.61 0.253373
0.62 0.281014
0.63 0.304578
0.64 0.323295
0.65 0.336508
0.66 0.343301
0.67 0.343311
0.68 0.336719
0.69 0.323546
0.7 0.303986
0.71 0.278402
0.72 0.247318
0.73 0.210942
0.74 0.170706
0.75 0.127538
0.76 0.0824212
0.77 0.0363722
0.78 -0.00958553
0.79 -0.0543481
0.8 -0.0968085
0.81 -0.136215
0.82 -0.171845
0.83 -0.203106
0.84 -0.229552
0.85 -0.250889
0.86 -0.266447
0.87 -0.276753
0.88 -0.282096
0.89 -0.282833
0.9 -0.279437
0.91 -0.272485
0.92 -0.262546
0.93 -0.250349
0.94 -0.236847
0.95 -0.222774
0.96 -0.208829
0.97 -0.195664
0.98 -0.183856
0.99 -0.174102
1 -0.166691
1.01 -0.161823
1.02 -0.159629
1.03 -0.16013
1.04 -0.163239
1.05 -0.168828
1.06 -0.17671
1.07 -0.186315
1.08 -0.197237
1.09 -0.209039
1.1 -0.221278
1.11 -0.233515
1.12 -0.245275
1.13 -0.256168
1.14 -0.265911
1.15 -0.274275
1.16 -0.2811
1.17 -0.286306
1.18 -0.289858
1.19 -0.291712
1.2 -0.292174
1.21 -0.291446
1.22 -0.289766
1.23 -0.2874
1.24 -0.284628
1.25 -0.28174
1.26 -0.279035
1.27 -0.276742
1.28 -0.275048
1.29 -0.274087
1.3 -0.273939
1.31 -0.274633
1.32 -0.276204
1.33 -0.278455
1.34 -0.281233
1.35 -0.284343
1.36 -0.287564
1.37 -0.290655
1.38 -0.293333
1.39 -0.295325
1.4 -0.296444
1.41 -0.296511
1.42 -0.295395
1.43 -0.293013
1.44 -0.28934
1.45 -0.284283
1.46 -0.278092
1.47 -0.270941
1.48 -0.263051
1.49 -0.25468
1.5 -0.246123
1.51 -0.237715
1.52 -0.22983
1.53 -0.222766
1.54 -0.216808
1.55 -0.212201
1.56 -0.209147
1.57 -0.207786
1.58 -0.208374
1.59 -0.210752
1.6 -0.214806
1.61 -0.220376
1.62 -0.227238
1.63 -0.235105
1.64 -0.243654
1.65 -0.252464
1.66 -0.261084
1.67 -0.269103
1.68 -0.276118
1.69 -0.28175
1.7 -0.285659
1.71 -0.28735
1.72 -0.286706
1.73 -0.283644
1.74 -0.278103
1.75 -0.270105
1.76 -0.259749
1.77 -0.247163
1.78 -0.23251
1.79 -0.21631
1.8 -0.198935
1.81 -0.18079
1.82 -0.162299
1.83 -0.14389
1.84 -0.126052
1.85 -0.109199
1.86 -0.0936491
1.87 -0.0796842
1.88 -0.0675233
1.89 -0.0573145
1.9 -0.0491613
1.91 -0.0432295
1.92 -0.039215
1.93 -0.0369552
1.94 -0.0362289
1.95 -0.0367661
1.96 -0.0382602
1.97 -0.0404001
1.98 -0.0427867
1.99 -0.0450629
2 -0.0469244
2.01 -0.0481031
2.02 -0.0483791
2.03 -0.0475855
2.04 -0.0454929
2.05 -0.042216
2.06 -0.0378158
2.07 -0.0324217
2.08 -0.0262273
2.09 -0.0194824
2.1 -0.0124899
2.11 -0.00563938
2.12 0.000696749
2.13 0.00615331
2.14 0.0103742
2.15 0.013026
2.16 0.0138112
2.17 0.0122268
2.18 0.00829039
2.19 0.00191127
2.2 -0.00694489
2.21 -0.018238
2.22 -0.0318539
2.23 -0.047693
2.24 -0.0655086
2.25 -0.0848288
2.26 -0.105288
2.27 -0.126491
2.28 -0.14802
2.29 -0.169455
2.3 -0.190294
2.31 -0.210148
2.32 -0.22868
2.33 -0.245593
2.34 -0.260644
2.35 -0.273653
2.36 -0.284429
2.37 -0.292827
2.38 -0.299067
2.39 -0.303256
2.4 -0.305556
2.41 -0.306182
2.42 -0.30539
2.43 -0.303396
2.44 -0.300612
2.45 -0.297386
2.46 -0.294028
2.47 -0.290831
2.48 -0.288062
2.49 -0.285974
2.5 -0.284837
2.51 -0.284716
2.52 -0.285692
2.53 -0.287796
2.54 -0.291008
2.55 -0.295262
2.56 -0.300513
2.57 -0.306559
2.58 -0.313185
2.59 -0.320196
2.6 -0.327385
2.61 -0.334546
2.62 -0.341472
2.63 -0.347918
2.64 -0.353751
2.65 -0.358839
2.66 -0.363079
2.67 -0.366403
2.68 -0.368776
2.69 -0.370136
2.7 -0.370535
2.71 -0.370088
2.72 -0.368884
2.73 -0.36703
2.74 -0.364645
2.75 -0.361856
2.76 -0.358775
2.77 -0.355567
2.78 -0.352346
2.79 -0.349208
2.8 -0.346237
2.81 -0.343493
2.82 -0.341035
2.83 -0.338884
2.84 -0.337022
2.85 -0.335424
2.86 -0.334056
2.87 -0.332867
2.88 -0.3318
2.89 -0.330792
2.9 -0.329765
2.91 -0.328658
2.92 -0.327411
2.93 -0.325974
2.94 -0.324306
2.95 -0.32236
2.96 -0.320099
2.97 -0.317531
2.98 -0.314645
2.99 -0.311437
3 -0.307902
3.01 -0.304034
3.02 -0.299788
3.03 -0.295166
3.04 -0.290141
3.05 -0.284669
3.06 -0.278688
3.07 -0.272122
3.08 -0.264854
3.09 -0.256722
3.1 -0.247666
3.11 -0.237556
3.12 -0.226261
3.13 -0.213649
3.14 -0.199592
3.15 -0.183833
3.16 -0.166343
3.17 -0.1471
3.18 -0.126057
3.19 -0.103199
3.2 -0.0785442
3.21 -0.0521144
3.22 -0.0238966
3.23 0.00579997
3.24 0.0367956
3.25 0.0688762
3.26 0.101797
3.27 0.135286
3.28 0.169048
3.29 0.202724
3.3 0.235987
3.31 0.268523
3.32 0.300026
3.33 0.330201
3.34 0.35876
3.35 0.38525
3.36 0.409644
3.37 0.431773
3.38 0.451506
3.39 0.468751
3.4 0.483455
3.41 0.495445
3.42 0.504773
3.43 0.511641
3.44 0.516141
3.45 0.518387
3.46 0.518512
3.47 0.516661
3.48 0.512798
3.49 0.507301
3.5 0.500328
3.51 0.492028
3.52 0.482541
3.53 0.471996
3.54 0.460464
3.55 0.44805
3.56 0.434901
3.57 0.421092
3.58 0.406689
3.59 0.39175
3.6 0.37633
3.61 0.360445
3.62 0.344195
3.63 0.327647
3.64 0.310873
3.65 0.29395
3.66 0.276972
3.67 0.260047
3.68 0.243317
3.69 0.226905
3.7 0.210951
3.71 0.195603
3.72 0.181012
3.73 0.167331
3.74 0.154825
3.75 0.14358
3.76 0.133704
3.77 0.125317
3.78 0.118521
3.79 0.113399
3.8 0.110067
3.81 0.108668
3.82 0.109058
3.83 0.111223
3.84 0.115125
3.85 0.120708
3.86 0.127894
3.87 0.136707
3.88 0.146952
3.89 0.158461
3.9 0.171112
3.91 0.184778
3.92 0.199337
3.93 0.21468
3.94 0.230732
3.95 0.247314
3.96 0.264332
3.97 0.281699
3.98 0.299339
3.99 0.317182
4 0.335173
4.01 0.353244
4.02 0.371334
4.03 0.389389
4.04 0.407353
4.05 0.425163
4.06 0.442749
4.07 0.459993
4.08 0.47683
4.09 0.49316
4.1 0.508872
4.11 0.523846
4.12 0.537954
4.13 0.550992
4.14 0.562803
4.15 0.573309
4.16 0.582374
4.17 0.589872
4.18 0.595688
4.19 0.599719
4.2 0.601664
4.21 0.60166
4.22 0.599681
4.23 0.595715
4.24 0.589776
4.25 0.581904
4.26 0.572071
4.27 0.560345
4.28 0.54696
4.29 0.532038
4.3 0.515715
4.31 0.498132
4.32 0.479437
4.33 0.459691
4.34 0.439131
4.35 0.417902
4.36 0.396121
4.37 0.373889
4.38 0.351292
4.39 0.328388
4.4 0.305221
4.41 0.281843
4.42 0.258265
4.43 0.23449
4.44 0.210505
4.45 0.186297
4.46 0.16182
4.47 0.137072
4.48 0.112047
4.49 0.0867433
4.5 0.0611715
4.51 0.0353569
4.52 0.00933833
4.53 -0.0168218
4.54 -0.0430221
4.55 -0.0691605
4.56 -0.095119
4.57 -0.120766
4.58 -0.145959
4.59 -0.170489
4.6 -0.194208
4.61 -0.216992
4.62 -0.238697
4.63 -0.259195
4.64 -0.278372
4.65 -0.296111
4.66 -0.312209
4.67 -0.326772
4.68 -0.339792
4.69 -0.351284
4.7 -0.361295
4.71 -0.369896
4.72 -0.377099
4.73 -0.383067
4.74 -0.387999
4.75 -0.392044
4.76 -0.395358
4.77 -0.398097
4.78 -0.400416
4.79 -0.402447
4.8 -0.404367
4.81 -0.406289
4.82 -0.408311
4.83 -0.410504
4.84 -0.412921
4.85 -0.415603
4.86 -0.418552
4.87 -0.421731
4.88 -0.425096
4.89 -0.428589
4.9 -0.432139
4.91 -0.435663
4.92 -0.439053
4.93 -0.442223
4.94 -0.445087
4.95 -0.447568
4.96 -0.449594
4.97 -0.451108
4.98 -0.452037
4.99 -0.452335
5 -0.45203
5.01 -0.451125
5.02 -0.449636
5.03 -0.44759
5.04 -0.445025
5.05 -0.44194
5.06 -0.438428
5.07 -0.434544
5.08 -0.430334
5.09 -0.425838
5.1 -0.421088
5.11 -0.416102
5.12 -0.410884
5.13 -0.405454
5.14 -0.3998
5.15 -0.393905
5.16 -0.387742
5.17 -0.381277
5.18 -0.374441
5.19 -0.367213
5.2 -0.35957
5.21 -0.351483
5.22 -0.342934
5.23 -0.333916
5.24 -0.324424
5.25 -0.314455
5.26 -0.304094
5.27 -0.2934
5.28 -0.282448
5.29 -0.271329
5.3 -0.260145
5.31 -0.249023
5.32 -0.238099
5.33 -0.227496
5.34 -0.217337
5.35 -0.207742
5.36 -0.198821
5.37 -0.190683
5.38 -0.183496
5.39 -0.177236
5.4 -0.171939
5.41 -0.167619
5.42 -0.164269
5.43 -0.161855
5.44 -0.160379
5.45 -0.15974
5.46 -0.159799
5.47 -0.160446
5.48 -0.161565
5.49 -0.163032
5.5 -0.164721
5.51 -0.166508
5.52 -0.168255
5.53 -0.169859
5.54 -0.17123
5.55 -0.172293
5.56 -0.172991
5.57 -0.173262
5.58 -0.17308
5.59 -0.172471
5.6 -0.171452
5.61 -0.170049
5.62 -0.168299
5.63 -0.166248
5.64 -0.163919
5.65 -0.161388
5.66 -0.158696
5.67 -0.155874
5.68 -0.152943
5.69 -0.149908
5.7 -0.146755
5.71 -0.143448
5.72 -0.139952
5.73 -0.136206
5.74 -0.132137
5.75 -0.127663
5.76 -0.122694
5.77 -0.11707
5.78 -0.110732
5.79 -0.103608
5.8 -0.0956207
5.81 -0.0867087
5.82 -0.0768282
5.83 -0.0659236
5.84 -0.0539486
5.85 -0.0410197
5.86 -0.0271957
5.87 -0.012561
5.88 0.002776
5.89 0.0186849
5.9 0.0350383
5.91 0.0516261
5.92 0.0682592
5.93 0.0847567
5.94 0.100939
5.95 0.116634
5.96 0.131661
5.97 0.145801
5.98 0.159
5.99 0.171166
6 0.182234
6.01 0.192167
6.02 0.200959
6.03 0.208553
6.04 0.215049
6.05 0.220576
6.06 0.225239
6.07 0.229157
6.08 0.232463
6.09 0.235291
6.1 0.237767
6.11 0.24007
6.12 0.242322
6.13 0.244629
6.14 0.247077
6.15 0.249727
6.16 0.252632
6.17 0.255793
6.18 0.259172
6.19 0.262712
6.2 0.266333
6.21 0.269933
6.22 0.27339
6.23 0.276515
6.24 0.279179
6.25 0.281229
6.26 0.282513
6.27 0.282886
6.28 0.282216
6.29 0.280321
6.3 0.277078
6.31 0.2725
6.32 0.266548
6.33 0.259212
6.34 0.250512
6.35 0.240495
6.36 0.229111
6.37 0.216592
6.38 0.203073
6.39 0.188695
6.4 0.17361
6.41 0.157976
6.42 0.141946
6.43 0.125695
6.44 0.109399
6.45 0.0931996
6.46 0.0772193
6.47 0.0615649
6.48 0.046323
6.49 0.0316086
6.5 0.0174317
6.51 0.00379761
6.52 -0.00929758
6.53 -0.0218762
6.54 -0.0339764
6.55 -0.0456387
6.56 -0.0569135
6.57 -0.067906
6.58 -0.0786874
6.59 -0.0893275
6.6 -0.0998915
6.61 -0.110437
6.62 -0.121018
6.63 -0.131669
6.64 -0.142409
6.65 -0.153239
6.66 -0.164149
6.67 -0.17511
6.68 -0.186082
6.69 -0.196998
6.7 -0.20779
6.71 -0.218382
6.72 -0.228691
6.73 -0.238628
6.74 -0.248104
6.75 -0.256982
6.76 -0.265178
6.77 -0.272635
6.78 -0.279275
6.79 -0.285028
6.8 -0.289832
6.81 -0.293624
6.82 -0.296247
6.83 -0.297778
6.84 -0.298188
6.85 -0.297455
6.86 -0.295566
6.87 -0.29251
6.88 -0.288212
6.89 -0.282676
6.9 -0.27597
6.91 -0.268099
6.92 -0.259066
6.93 -0.24888
6.94 -0.237547
6.95 -0.224949
6.96 -0.211224
6.97 -0.196388
6.98 -0.180457
6.99 -0.163451
7 -0.145394
7.01 -0.126264
7.02 -0.106084
7.03 -0.0849657
7.04 -0.0629568
7.05 -0.0401133
7.06 -0.0164979
7.07 0.00781965
7.08 0.0328187
7.09 0.0583508
7.1 0.0843179
7.11 0.110626
7.12 0.137178
7.13 0.163873
7.14 0.190609
7.15 0.217266
7.16 0.243742
7.17 0.269939
7.18 0.295762
7.19 0.321118
7.2 0.345919
7.21 0.370014
7.22 0.393358
7.23 0.415894
7.24 0.437552
7.25 0.458266
7.26 0.477974
7.27 0.496585
7.28 0.513967
7.29 0.530162
7.3 0.545116
7.31 0.558778
7.32 0.571099
7.33 0.582028
7.34 0.591396
7.35 0.599215
7.36 0.605491
7.37 0.61018
7.38 0.613243
7.39 0.614643
7.4 0.614318
7.41 0.612096
7.42 0.608129
7.43 0.602406
7.44 0.594926
7.45 0.585696
7.46 0.574733
7.47 0.561949
7.48 0.547429
7.49 0.531305
7.5 0.513643
7.51 0.494517
7.52 0.474012
7.53 0.452217
7.54 0.429128
7.55 0.405
7.56 0.379956
7.57 0.354125
7.58 0.327644
7.59 0.300649
7.6 0.273272
7.61 0.245678
7.62 0.218034
7.63 0.190483
7.64 0.163168
7.65 0.136229
7.66 0.109803
7.67 0.0841068
7.68 0.0592094
7.69 0.0352242
7.7 0.0122605
7.71 -0.00958134
7.72 -0.0302104
7.73 -0.0494813
7.74 -0.0672875
7.75 -0.0836659
7.76 -0.0985763
7.77 -0.111992
7.78 -0.123898
7.79 -0.134297
7.8 -0.143056
7.81 -0.150334
7.82 -0.156203
7.83 -0.160718
7.84 -0.163951
7.85 -0.165982
7.86 -0.166862
7.87 -0.166656
7.88 -0.165557
7.89 -0.16367
7.9 -0.1611
7.91 -0.157954
7.92 -0.154331
7.93 -0.150303
7.94 -0.14599
7.95 -0.141481
7.96 -0.13684
7.97 -0.132122
7.98 -0.127371
7.99 -0.122617
8 -0.117879
8.01 -0.113161
8.02 -0.108458
8.03 -0.103753
8.04 -0.0990272
8.05 -0.0942535
8.06 -0.0893959
8.07 -0.0844259
8.08 -0.0793221
8.09 -0.0740651
8.1 -0.0686426
8.11 -0.0630515
8.12 -0.0572964
8.13 -0.0513867
8.14 -0.0453713
8.15 -0.0392944
8.16 -0.0332108
8.17 -0.0271842
8.18 -0.0212865
8.19 -0.0156141
8.2 -0.0102554
8.21 -0.00527919
8.22 -0.000761881
8.23 0.00322681
8.24 0.0066264
8.25 0.00938598
8.26 0.0113949
8.27 0.0127132
8.28 0.0133452
8.29 0.0133133
8.3 0.0126585
8.31 0.0114392
8.32 0.0097075
8.33 0.00756627
8.34 0.00514746
8.35 0.00256156
8.36 -7.70687e-05
8.37 -0.00265395
8.38 -0.00505845
8.39 -0.00714747
8.4 -0.0088514
8.41 -0.010101
8.42 -0.0108435
8.43 -0.0110473
8.44 -0.0107036
8.45 -0.00980445
8.46 -0.00838397
8.47 -0.00654719
8.48 -0.00438167
8.49 -0.00199304
8.5 0.000498256
8.51 0.00296061
8.52 0.00522489
8.53 0.00714791
8.54 0.00859585
8.55 0.0094396
8.56 0.00956243
8.57 0.0088639
8.58 0.00723028
8.59 0.00455194
8.6 0.000878016
8.61 -0.00379241
8.62 -0.00943447
8.63 -0.0159983
8.64 -0.0234109
8.65 -0.0316342
8.66 -0.0404967
8.67 -0.0498481
8.68 -0.0595514
8.69 -0.0694665
8.7 -0.0794535
8.71 -0.0893736
8.72 -0.0990744
8.73 -0.108457
8.74 -0.117434
8.75 -0.125934
8.76 -0.133912
8.77 -0.141343
8.78 -0.148184
8.79 -0.15448
8.8 -0.160299
8.81 -0.1657
8.82 -0.170757
8.83 -0.175554
8.84 -0.180179
8.85 -0.184724
8.86 -0.189291
8.87 -0.193956
8.88 -0.198785
8.89 -0.203827
8.9 -0.209116
8.91 -0.214681
8.92 -0.220508
8.93 -0.226553
8.94 -0.232764
8.95 -0.239074
8.96 -0.245401
8.97 -0.251651
8.98 -0.257689
8.99 -0.26342
9 -0.268739
9.01 -0.273548
9.02 -0.277756
9.03 -0.281287
9.04 -0.284036
9.05 -0.285951
9.06 -0.287062
9.07 -0.287376
9.08 -0.286917
9.09 -0.285732
9.1 -0.283887
9.11 -0.281413
9.12 -0.278473
9.13 -0.275179
9.14 -0.271643
9.15 -0.267979
9.16 -0.264296
9.17 -0.260703
9.18 -0.257308
9.19 -0.254177
9.2 -0.251364
9.21 -0.248906
9.22 -0.246818
9.23 -0.245096
9.24 -0.243745
9.25 -0.242691
9.26 -0.241863
9.27 -0.24119
9.28 -0.240588
9.29 -0.23997
9.3 -0.239241
9.31 -0.238295
9.32 -0.237067
9.33 -0.235489
9.34 -0.233513
9.35 -0.231102
9.36 -0.228241
9.37 -0.224894
9.38 -0.221111
9.39 -0.216951
9.4 -0.212473
9.41 -0.20775
9.42 -0.202863
9.43 -0.197905
9.44 -0.192979
9.45 -0.188183
9.46 -0.1836
9.47 -0.179303
9.48 -0.175351
9.49 -0.171788
9.5 -0.168668
9.51 -0.165975
9.52 -0.163666
9.53 -0.161693
9.54 -0.159987
9.55 -0.158459
9.56 -0.157003
9.57 -0.155479
9.58 -0.153752
9.59 -0.151684
9.6 -0.149141
9.61 -0.145991
9.62 -0.14211
9.63 -0.137328
9.64 -0.131547
9.65 -0.124743
9.66 -0.116867
9.67 -0.107896
9.68 -0.097827
9.69 -0.0866842
9.7 -0.0744008
9.71 -0.0611699
9.72 -0.0470816
9.73 -0.0322383
9.74 -0.016753
9.75 -0.000745295
9.76 0.0156763
9.77 0.0323772
9.78 0.0492182
9.79 0.0660946
9.8 0.0829137
9.81 0.0995968
9.82 0.116081
9.83 0.13229
9.84 0.148217
9.85 0.163855
9.86 0.179205
9.87 0.194283
9.88 0.209112
9.89 0.223715
9.9 0.238121
9.91 0.252377
9.92 0.266509
9.93 0.280536
9.94 0.294465
9.95 0.308291
9.96 0.321983
9.97 0.335508
9.98 0.348819
9.99 0.36185
10 0.374523
10.01 0.38675
10.02 0.398418
10.03 0.409374
10.04 0.419569
10.05 0.428904
10.06 0.437292
10.07 0.444655
10.08 0.450929
10.09 0.455972
10.1 0.459811
10.11 0.462487
10.12 0.464022
10.13 0.464463
10.14 0.463875
10.15 0.46233
10.16 0.459883
10.17 0.456749
10.18 0.453061
10.19 0.448962
10.2 0.444597
10.21 0.440109
10.22 0.435647
10.23 0.431355
10.24 0.427343
10.25 0.423705
10.26 0.420517
10.27 0.417833
10.28 0.415687
10.29 0.414143
10.3 0.413121
10.31 0.412582
10.32 0.412466
10.33 0.412698
10.34 0.413186
10.35 0.413834
10.36 0.414517
10.37 0.415115
10.38 0.415517
10.39 0.415617
10.4 0.415314
10.41 0.414518
10.42 0.413076
10.43 0.41098
10.44 0.408182
10.45 0.404648
10.46 0.400355
10.47 0.395293
10.48 0.38943
10.49 0.382766
10.5 0.375375
10.51 0.367287
10.52 0.358533
10.53 0.349148
10.54 0.339164
10.55 0.32856
10.56 0.317416
10.57 0.305765
10.58 0.293626
10.59 0.281015
10.6 0.267944
10.61 0.254404
10.62 0.240382
10.63 0.225921
10.64 0.211026
10.65 0.195706
10.66 0.179972
10.67 0.163842
10.68 0.147309
10.69 0.130434
10.7 0.113268
10.71 0.0958576
10.72 0.078261
10.73 0.0605406
10.74 0.0427657
10.75 0.02502
10.76 0.00738224
10.77 -0.0100732
10.78 -0.0272746
10.79 -0.0441553
10.8 -0.0606556
10.81 -0.0766877
10.82 -0.0922271
10.83 -0.107267
10.84 -0.121797
10.85 -0.135822
10.86 -0.149359
10.87 -0.162433
10.88 -0.175059
10.89 -0.187339
10.9 -0.199336
10.91 -0.211119
10.92 -0.22276
10.93 -0.23433
10.94 -0.245899
10.95 -0.257535
10.96 -0.269287
10.97 -0.28119
10.98 -0.293266
10.99 -0.30552
11 -0.317943
11.01 -0.330514
11.02 -0.343168
11.03 -0.355838
11.04 -0.368445
11.05 -0.380899
11.06 -0.393099
11.07 -0.404912
11.08 -0.41621
11.09 -0.426907
11.1 -0.436897
11.11 -0.446085
11.12 -0.454382
11.13 -0.461715
11.14 -0.467908
11.15 -0.473024
11.16 -0.477049
11.17 -0.479981
11.18 -0.481834
11.19 -0.482641
11.2 -0.482404
11.21 -0.481168
11.22 -0.479076
11.23 -0.476204
11.24 -0.472634
11.25 -0.468446
11.26 -0.463719
11.27 -0.458487
11.28 -0.452857
11.29 -0.44689
11.3 -0.440624
11.31 -0.434085
11.32 -0.427284
11.33 -0.42021
11.34 -0.412831
11.35 -0.405138
11.36 -0.397093
11.37 -0.388648
11.38 -0.379754
11.39 -0.370357
11.4 -0.360353
11.41 -0.349722
11.42 -0.338442
11.43 -0.326485
11.44 -0.313833
11.45 -0.300486
11.46 -0.286438
11.47 -0.271678
11.48 -0.256316
11.49 -0.240416
11.5 -0.224054
11.51 -0.207317
11.52 -0.190303
11.53 -0.173115
11.54 -0.155885
11.55 -0.138732
11.56 -0.121767
11.57 -0.105099
11.58 -0.0888278
11.59 -0.0730517
11.6 -0.0579111
11.61 -0.043417
11.62 -0.0296188
11.63 -0.0165513
11.64 -0.00423443
11.65 0.00732598
11.66 0.0180894
11.67 0.0280915
11.68 0.0374032
11.69 0.0460649
11.7 0.0541232
11.71 0.0616283
11.72 0.068631
11.73 0.0751373
11.74 0.0812513
11.75 0.0870161
11.76 0.0924689
11.77 0.09764
11.78 0.102552
11.79 0.107208
11.8 0.111615
11.81 0.115784
11.82 0.119711
11.83 0.123383
11.84 0.126785
11.85 0.129898
11.86 0.132668
11.87 0.135107
11.88 0.137199
11.89 0.138933
11.9 0.140298
11.91 0.141289
11.92 0.141887
11.93 0.142087
11.94 0.141923
11.95 0.141407
11.96 0.14055
11.97 0.139367
11.98 0.13787
11.99 0.136043
12 0.133916
12.01 0.131497
12.02 0.128783
12.03 0.125762
12.04 0.122417
12.05 0.118709
12.06 0.114578
12.07 0.110013
12.08 0.104964
12.09 0.0993781
12.1 0.0931978
12.11 0.0863649
12.12 0.0787557
12.13 0.0703482
12.14 0.0611168
12.15 0.0510219
12.16 0.0400343
12.17 0.0281372
