# xPDFsuite Configuration #
[PDF]
wavelength = 0.1
dataformat = QA
inputfile = BiMsol6_insitu_700 C-00027.xy
backgroundfile = Quartz2mm-dist500-00000.xy
mode = xray
bgscale = 0.0042
composition = Bi2Fe4O9
outputtype = gr
qmaxinst = 24.998449118
qmin = 0.1
qmax = 21.4986662415
rmax = 80.0
rmin = 0.0
rstep = 0.01
rpoly = 0.9

[Misc]
inputdir = C:/Data/Seafile/CPH/Beamtime/Desy Oct 20/In situ data/Processed/BiMsol6/PDF
savedir = C:/Data/Seafile/CPH/Beamtime/Desy Oct 20/In situ data/PDF/BiMsol6
backgroundfilefull = C:/Data/Seafile/CPH/Beamtime/Desy Oct 20/In situ data/Processed/Standard_Empty_Cap/Quartz2mm-dist500-00000.xy

#### start data
#S 1
#L r($\AA$)  G($\AA^{-2}$)
0 0
0.01 0.00717948
0.02 0.0139617
0.03 0.0200065
0.04 0.0250084
0.05 0.0287106
0.06 0.0309165
0.07 0.0314108
0.08 0.0301285
0.09 0.0272245
0.1 0.0228253
0.11 0.0171283
0.12 0.0103937
0.13 0.00293253
0.14 -0.00490747
0.15 -0.0126815
0.16 -0.0200151
0.17 -0.026556
0.18 -0.0319875
0.19 -0.0360429
0.2 -0.0384477
0.21 -0.0390107
0.22 -0.0378307
0.23 -0.0349717
0.24 -0.0305828
0.25 -0.0248929
0.26 -0.0182022
0.27 -0.0108484
0.28 -0.00333339
0.29 0.00389708
0.3 0.0104099
0.31 0.0157915
0.32 0.0196685
0.33 0.021662
0.34 0.0213997
0.35 0.0189236
0.36 0.0142192
0.37 0.00738291
0.38 -0.00137634
0.39 -0.0117401
0.4 -0.0233428
0.41 -0.0355352
0.42 -0.0476789
0.43 -0.0591263
0.44 -0.0692061
0.45 -0.0772491
0.46 -0.0825485
0.47 -0.0841987
0.48 -0.081992
0.49 -0.0755587
0.5 -0.0646574
0.51 -0.0491908
0.52 -0.029216
0.53 -0.00466585
0.54 0.0238825
0.55 0.0556697
0.56 0.0899884
0.57 0.126012
0.58 0.162818
0.59 0.199403
0.6 0.234485
0.61 0.267071
0.62 0.296162
0.63 0.320825
0.64 0.340224
0.65 0.35365
0.66 0.360114
0.67 0.359235
0.68 0.351225
0.69 0.336125
0.7 0.314165
0.71 0.285767
0.72 0.251525
0.73 0.211715
0.74 0.167903
0.75 0.121125
0.76 0.0724723
0.77 0.0230699
0.78 -0.0259549
0.79 -0.0733781
0.8 -0.11799
0.81 -0.158998
0.82 -0.195632
0.83 -0.22727
0.84 -0.253456
0.85 -0.27391
0.86 -0.287934
0.87 -0.296172
0.88 -0.298994
0.89 -0.296842
0.9 -0.29029
0.91 -0.280021
0.92 -0.266717
0.93 -0.251235
0.94 -0.234637
0.95 -0.217749
0.96 -0.201359
0.97 -0.186185
0.98 -0.172855
0.99 -0.16215
1 -0.154331
1.01 -0.149572
1.02 -0.147971
1.03 -0.149497
1.04 -0.153992
1.05 -0.161256
1.06 -0.171005
1.07 -0.182546
1.08 -0.195372
1.09 -0.208948
1.1 -0.222735
1.11 -0.236214
1.12 -0.248803
1.13 -0.26007
1.14 -0.269715
1.15 -0.277498
1.16 -0.283267
1.17 -0.28697
1.18 -0.288616
1.19 -0.288205
1.2 -0.286169
1.21 -0.2828
1.22 -0.27844
1.23 -0.273459
1.24 -0.268241
1.25 -0.2632
1.26 -0.258732
1.27 -0.255129
1.28 -0.252635
1.29 -0.251426
1.3 -0.251603
1.31 -0.253197
1.32 -0.256274
1.33 -0.260526
1.34 -0.265732
1.35 -0.271615
1.36 -0.277855
1.37 -0.284106
1.38 -0.289965
1.39 -0.295026
1.4 -0.298986
1.41 -0.301566
1.42 -0.302537
1.43 -0.30174
1.44 -0.299089
1.45 -0.294378
1.46 -0.287907
1.47 -0.279864
1.48 -0.2705
1.49 -0.26013
1.5 -0.249121
1.51 -0.237887
1.52 -0.226921
1.53 -0.216663
1.54 -0.207518
1.55 -0.19986
1.56 -0.194006
1.57 -0.190213
1.58 -0.18889
1.59 -0.189933
1.6 -0.193278
1.61 -0.198807
1.62 -0.206309
1.63 -0.215494
1.64 -0.226026
1.65 -0.237449
1.66 -0.24918
1.67 -0.26071
1.68 -0.271527
1.69 -0.281132
1.7 -0.289055
1.71 -0.294653
1.72 -0.297675
1.73 -0.297922
1.74 -0.295229
1.75 -0.289526
1.76 -0.280842
1.77 -0.269235
1.78 -0.25479
1.79 -0.238092
1.8 -0.219533
1.81 -0.199562
1.82 -0.178667
1.83 -0.157356
1.84 -0.136188
1.85 -0.115716
1.86 -0.0963843
1.87 -0.0785905
1.88 -0.062665
1.89 -0.0488618
1.9 -0.0373852
1.91 -0.0285218
1.92 -0.0220002
1.93 -0.0177007
1.94 -0.0154251
1.95 -0.0149064
1.96 -0.0158211
1.97 -0.0178479
1.98 -0.020516
1.99 -0.0233749
2 -0.0260365
2.01 -0.0281415
2.02 -0.0293738
2.03 -0.0294689
2.04 -0.0280747
2.05 -0.0252301
2.06 -0.0209209
2.07 -0.0152142
2.08 -0.00825647
2.09 -0.000267424
2.1 0.00848992
2.11 0.0176184
2.12 0.0266871
2.13 0.0352861
2.14 0.0429996
2.15 0.0494225
2.16 0.0541757
2.17 0.0566693
2.18 0.0568088
2.19 0.0544113
2.2 0.049355
2.21 0.0415997
2.22 0.0311887
2.23 0.0181431
2.24 0.00264948
2.25 -0.0148165
2.26 -0.0338984
2.27 -0.0541915
2.28 -0.0752569
2.29 -0.0966356
2.3 -0.117803
2.31 -0.138273
2.32 -0.15763
2.33 -0.175498
2.34 -0.191556
2.35 -0.205546
2.36 -0.217198
2.37 -0.226278
2.38 -0.23296
2.39 -0.237303
2.4 -0.239436
2.41 -0.239553
2.42 -0.237901
2.43 -0.234674
2.44 -0.230327
2.45 -0.225253
2.46 -0.219805
2.47 -0.214328
2.48 -0.209147
2.49 -0.204576
2.5 -0.200956
2.51 -0.198419
2.52 -0.197103
2.53 -0.197089
2.54 -0.198402
2.55 -0.201013
2.56 -0.204921
2.57 -0.209931
2.58 -0.215817
2.59 -0.222374
2.6 -0.229378
2.61 -0.236595
2.62 -0.243786
2.63 -0.250675
2.64 -0.257065
2.65 -0.262778
2.66 -0.267667
2.67 -0.271618
2.68 -0.274558
2.69 -0.276381
2.7 -0.277108
2.71 -0.276839
2.72 -0.275649
2.73 -0.27364
2.74 -0.270931
2.75 -0.267655
2.76 -0.263921
2.77 -0.25993
2.78 -0.255814
2.79 -0.251691
2.8 -0.247665
2.81 -0.243815
2.82 -0.240215
2.83 -0.236901
2.84 -0.233862
2.85 -0.231079
2.86 -0.228512
2.87 -0.226106
2.88 -0.223792
2.89 -0.221487
2.9 -0.2191
2.91 -0.216553
2.92 -0.213775
2.93 -0.210704
2.94 -0.207294
2.95 -0.203495
2.96 -0.199282
2.97 -0.194691
2.98 -0.189749
2.99 -0.184496
3 -0.178987
3.01 -0.173287
3.02 -0.167462
3.03 -0.161604
3.04 -0.155787
3.05 -0.150074
3.06 -0.144521
3.07 -0.139167
3.08 -0.134044
3.09 -0.12917
3.1 -0.124506
3.11 -0.120015
3.12 -0.115642
3.13 -0.111313
3.14 -0.106942
3.15 -0.102413
3.16 -0.0976137
3.17 -0.0924425
3.18 -0.0867948
3.19 -0.0805728
3.2 -0.0736892
3.21 -0.0660538
3.22 -0.0575456
3.23 -0.0482049
3.24 -0.0380205
3.25 -0.0270026
3.26 -0.0151816
3.27 -0.00260709
3.28 0.010699
3.29 0.0246219
3.3 0.0390389
3.31 0.0538508
3.32 0.0689567
3.33 0.0842583
3.34 0.0996635
3.35 0.115083
3.36 0.130442
3.37 0.14569
3.38 0.160795
3.39 0.17574
3.4 0.190527
3.41 0.205166
3.42 0.219698
3.43 0.234174
3.44 0.248647
3.45 0.263172
3.46 0.277804
3.47 0.292592
3.48 0.307601
3.49 0.322835
3.5 0.338298
3.51 0.353976
3.52 0.369833
3.53 0.385809
3.54 0.401819
3.55 0.417741
3.56 0.433444
3.57 0.448783
3.58 0.463601
3.59 0.477731
3.6 0.491001
3.61 0.503117
3.62 0.513993
3.63 0.52349
3.64 0.531475
3.65 0.537833
3.66 0.542472
3.67 0.545254
3.68 0.546075
3.69 0.545074
3.7 0.542278
3.71 0.537745
3.72 0.531557
3.73 0.52382
3.74 0.514541
3.75 0.503979
3.76 0.492326
3.77 0.479745
3.78 0.4664
3.79 0.452456
3.8 0.438062
3.81 0.423369
3.82 0.408546
3.83 0.39371
3.84 0.378963
3.85 0.364389
3.86 0.350056
3.87 0.336041
3.88 0.322367
3.89 0.30904
3.9 0.296067
3.91 0.283442
3.92 0.271157
3.93 0.2592
3.94 0.247576
3.95 0.236236
3.96 0.225163
3.97 0.214343
3.98 0.203767
3.99 0.193428
4 0.183341
4.01 0.173503
4.02 0.163907
4.03 0.15456
4.04 0.145467
4.05 0.136633
4.06 0.128063
4.07 0.11978
4.08 0.111749
4.09 0.103956
4.1 0.0963802
4.11 0.0889976
4.12 0.0817772
4.13 0.0746887
4.14 0.0676868
4.15 0.0607241
4.16 0.0537605
4.17 0.0467585
4.18 0.039685
4.19 0.0325134
4.2 0.0252109
4.21 0.0177829
4.22 0.0102352
4.23 0.00258501
4.24 -0.00513848
4.25 -0.0128945
4.26 -0.0206275
4.27 -0.0282648
4.28 -0.0357383
4.29 -0.0429735
4.3 -0.0498942
4.31 -0.0564251
4.32 -0.062495
4.33 -0.0679803
4.34 -0.0728685
4.35 -0.077129
4.36 -0.0807381
4.37 -0.0836883
4.38 -0.0859893
4.39 -0.0876466
4.4 -0.0886894
4.41 -0.089231
4.42 -0.08935
4.43 -0.089136
4.44 -0.0886874
4.45 -0.088108
4.46 -0.0875108
4.47 -0.0870129
4.48 -0.0867109
4.49 -0.0866914
4.5 -0.0870283
4.51 -0.08778
4.52 -0.0890007
4.53 -0.0907431
4.54 -0.0929625
4.55 -0.0956365
4.56 -0.0987241
4.57 -0.102167
4.58 -0.105892
4.59 -0.109823
4.6 -0.113842
4.61 -0.117842
4.62 -0.121721
4.63 -0.12538
4.64 -0.128728
4.65 -0.131673
4.66 -0.134098
4.67 -0.135995
4.68 -0.137328
4.69 -0.138081
4.7 -0.138259
4.71 -0.137879
4.72 -0.136949
4.73 -0.135541
4.74 -0.133749
4.75 -0.131652
4.76 -0.129333
4.77 -0.126883
4.78 -0.124391
4.79 -0.121957
4.8 -0.119662
4.81 -0.117577
4.82 -0.115759
4.83 -0.114256
4.84 -0.113099
4.85 -0.11233
4.86 -0.111953
4.87 -0.111935
4.88 -0.112254
4.89 -0.112878
4.9 -0.113768
4.91 -0.114879
4.92 -0.116179
4.93 -0.117597
4.94 -0.119086
4.95 -0.120606
4.96 -0.122121
4.97 -0.123605
4.98 -0.125035
4.99 -0.126397
5 -0.127693
5.01 -0.128931
5.02 -0.130122
5.03 -0.131284
5.04 -0.132437
5.05 -0.133607
5.06 -0.134814
5.07 -0.136078
5.08 -0.137411
5.09 -0.138821
5.1 -0.140307
5.11 -0.141864
5.12 -0.143476
5.13 -0.145112
5.14 -0.14674
5.15 -0.148322
5.16 -0.149815
5.17 -0.151175
5.18 -0.152337
5.19 -0.153264
5.2 -0.153922
5.21 -0.15428
5.22 -0.154314
5.23 -0.15401
5.24 -0.153358
5.25 -0.152344
5.26 -0.151023
5.27 -0.149428
5.28 -0.147603
5.29 -0.145599
5.3 -0.143474
5.31 -0.141289
5.32 -0.13912
5.33 -0.137028
5.34 -0.13507
5.35 -0.133296
5.36 -0.131744
5.37 -0.130448
5.38 -0.129445
5.39 -0.128705
5.4 -0.128213
5.41 -0.127934
5.42 -0.127825
5.43 -0.127829
5.44 -0.127877
5.45 -0.127884
5.46 -0.12777
5.47 -0.12746
5.48 -0.126877
5.49 -0.125955
5.5 -0.124636
5.51 -0.122821
5.52 -0.120532
5.53 -0.117758
5.54 -0.11451
5.55 -0.110814
5.56 -0.106715
5.57 -0.102257
5.58 -0.0975267
5.59 -0.0926341
5.6 -0.0876748
5.61 -0.0827487
5.62 -0.0779556
5.63 -0.0733914
5.64 -0.0691869
5.65 -0.065392
5.66 -0.0620609
5.67 -0.0592326
5.68 -0.0569259
5.69 -0.0551387
5.7 -0.0538668
5.71 -0.0530692
5.72 -0.0526404
5.73 -0.0524945
5.74 -0.0525319
5.75 -0.0526429
5.76 -0.0527121
5.77 -0.0525959
5.78 -0.0521812
5.79 -0.0513681
5.8 -0.0500665
5.81 -0.0482026
5.82 -0.045723
5.83 -0.0425742
5.84 -0.0387177
5.85 -0.0342317
5.86 -0.0291639
5.87 -0.0235843
5.88 -0.0175831
5.89 -0.0112676
5.9 -0.00475315
5.91 0.00180309
5.92 0.00826192
5.93 0.014492
5.94 0.0203694
5.95 0.0257821
5.96 0.0306201
5.97 0.0347544
5.98 0.0381943
5.99 0.0409197
6 0.0429374
6.01 0.0442807
6.02 0.0450086
6.03 0.0451717
6.04 0.0449082
6.05 0.0443643
6.06 0.0436755
6.07 0.0429837
6.08 0.042432
6.09 0.0421639
6.1 0.0423621
6.11 0.0431049
6.12 0.0444832
6.13 0.0465647
6.14 0.0493913
6.15 0.0529776
6.16 0.0573546
6.17 0.062462
6.18 0.0681848
6.19 0.074424
6.2 0.0810605
6.21 0.0879591
6.22 0.0949728
6.23 0.101926
6.24 0.108654
6.25 0.115008
6.26 0.120851
6.27 0.12606
6.28 0.130529
6.29 0.13413
6.3 0.136791
6.31 0.138542
6.32 0.139387
6.33 0.139354
6.34 0.138499
6.35 0.136897
6.36 0.134589
6.37 0.131761
6.38 0.128546
6.39 0.125075
6.4 0.121481
6.41 0.117891
6.42 0.114437
6.43 0.111249
6.44 0.108405
6.45 0.105976
6.46 0.104012
6.47 0.102544
6.48 0.101578
6.49 0.101146
6.5 0.101174
6.51 0.101596
6.52 0.102346
6.53 0.103346
6.54 0.104511
6.55 0.10575
6.56 0.106964
6.57 0.108062
6.58 0.108969
6.59 0.109617
6.6 0.109952
6.61 0.109932
6.62 0.109499
6.63 0.108661
6.64 0.107438
6.65 0.105848
6.66 0.103926
6.67 0.101711
6.68 0.099249
6.69 0.0965874
6.7 0.0938057
6.71 0.09096
6.72 0.0881034
6.73 0.0852841
6.74 0.0825433
6.75 0.0799237
6.76 0.077448
6.77 0.0751226
6.78 0.0729501
6.79 0.070924
6.8 0.0690303
6.81 0.0672492
6.82 0.0655608
6.83 0.0639245
6.84 0.062311
6.85 0.0606923
6.86 0.0590429
6.87 0.057342
6.88 0.0555694
6.89 0.053716
6.9 0.0517856
6.91 0.0497848
6.92 0.0477266
6.93 0.0456299
6.94 0.0435181
6.95 0.0414225
6.96 0.039373
6.97 0.0373976
6.98 0.0355221
6.99 0.0337686
7 0.0321539
7.01 0.0306958
7.02 0.0293989
7.03 0.0282458
7.04 0.0272207
7.05 0.0263001
7.06 0.0254534
7.07 0.0246439
7.08 0.023825
7.09 0.0229479
7.1 0.0219674
7.11 0.0208399
7.12 0.0195252
7.13 0.0179889
7.14 0.0161931
7.15 0.0141082
7.16 0.0117486
7.17 0.00912021
7.18 0.00624027
7.19 0.00313724
7.2 -0.000149833
7.21 -0.00357947
7.22 -0.00707791
7.23 -0.0105776
7.24 -0.0140107
7.25 -0.0173081
7.26 -0.0204018
7.27 -0.0232182
7.28 -0.025672
7.29 -0.02774
7.3 -0.0293844
7.31 -0.0305791
7.32 -0.0313105
7.33 -0.0315779
7.34 -0.0313594
7.35 -0.030706
7.36 -0.0296737
7.37 -0.0283125
7.38 -0.0266806
7.39 -0.0248424
7.4 -0.0228653
7.41 -0.0208229
7.42 -0.0187965
7.43 -0.0168518
7.44 -0.0150487
7.45 -0.0134401
7.46 -0.0120701
7.47 -0.0109942
7.48 -0.0102319
7.49 -0.00978042
7.5 -0.00964011
7.51 -0.00980144
7.52 -0.0102463
7.53 -0.0109505
7.54 -0.0119022
7.55 -0.013037
7.56 -0.0143165
7.57 -0.0157024
7.58 -0.0171575
7.59 -0.0186478
7.6 -0.020142
7.61 -0.0216121
7.62 -0.0230406
7.63 -0.0244161
7.64 -0.0257332
7.65 -0.026992
7.66 -0.0281977
7.67 -0.0293559
7.68 -0.030485
7.69 -0.0315993
7.7 -0.0327129
7.71 -0.033839
7.72 -0.0349886
7.73 -0.0361709
7.74 -0.0373906
7.75 -0.0386433
7.76 -0.0399227
7.77 -0.0412174
7.78 -0.0425122
7.79 -0.0437883
7.8 -0.045018
7.81 -0.0461789
7.82 -0.0472488
7.83 -0.0482055
7.84 -0.0490296
7.85 -0.0497051
7.86 -0.0502145
7.87 -0.0505443
7.88 -0.0507088
7.89 -0.0507155
7.9 -0.0505776
7.91 -0.0503135
7.92 -0.0499466
7.93 -0.0494994
7.94 -0.0490096
7.95 -0.0485091
7.96 -0.0480269
7.97 -0.0475892
7.98 -0.0472183
7.99 -0.0469337
8 -0.0467525
8.01 -0.046668
8.02 -0.0466736
8.03 -0.0467549
8.04 -0.0468901
8.05 -0.0470509
8.06 -0.0471997
8.07 -0.0472933
8.08 -0.0472919
8.09 -0.0471555
8.1 -0.0468463
8.11 -0.0463311
8.12 -0.0455795
8.13 -0.0445499
8.14 -0.043261
8.15 -0.0417186
8.16 -0.0399403
8.17 -0.037956
8.18 -0.0358072
8.19 -0.0335427
8.2 -0.0312368
8.21 -0.0289653
8.22 -0.0268036
8.23 -0.0248284
8.24 -0.0231155
8.25 -0.0217377
8.26 -0.0208093
8.27 -0.0203412
8.28 -0.0203705
8.29 -0.0209184
8.3 -0.021989
8.31 -0.0235678
8.32 -0.0256459
8.33 -0.0281626
8.34 -0.0310163
8.35 -0.0341185
8.36 -0.0373681
8.37 -0.0406545
8.38 -0.0438608
8.39 -0.0468332
8.4 -0.0494635
8.41 -0.0516437
8.42 -0.053275
8.43 -0.0542728
8.44 -0.0545699
8.45 -0.0540839
8.46 -0.0527687
8.47 -0.0506827
8.48 -0.0478537
8.49 -0.0443322
8.5 -0.0401901
8.51 -0.0355183
8.52 -0.0303943
8.53 -0.0249868
8.54 -0.0194336
8.55 -0.0138677
8.56 -0.00842109
8.57 -0.00321964
8.58 0.00160443
8.59 0.00591456
8.6 0.0096627
8.61 0.0127898
8.62 0.0152592
8.63 0.0170572
8.64 0.0181937
8.65 0.0186509
8.66 0.0185282
8.67 0.0179207
8.68 0.0169191
8.69 0.0156252
8.7 0.0141472
8.71 0.0125969
8.72 0.0110992
8.73 0.00975938
8.74 0.00866645
8.75 0.00789508
8.76 0.00750283
8.77 0.00752816
8.78 0.00802219
8.79 0.00896313
8.8 0.0103048
8.81 0.0120007
8.82 0.0139879
8.83 0.0161905
8.84 0.018523
8.85 0.020885
8.86 0.023171
8.87 0.0252905
8.88 0.0271601
8.89 0.0287072
8.9 0.029873
8.91 0.030586
8.92 0.0308274
8.93 0.0306204
8.94 0.0299853
8.95 0.0289613
8.96 0.0276047
8.97 0.0259864
8.98 0.0241796
8.99 0.0223059
9 0.0204616
9.01 0.0187424
9.02 0.017239
9.03 0.0160334
9.04 0.0152183
9.05 0.0148574
9.06 0.0149579
9.07 0.0155305
9.08 0.0165655
9.09 0.0180324
9.1 0.0198808
9.11 0.0220672
9.12 0.0244666
9.13 0.0269777
9.14 0.0294949
9.15 0.0319097
9.16 0.0341149
9.17 0.0359914
9.18 0.0374237
9.19 0.0383627
9.2 0.038753
9.21 0.0385597
9.22 0.0377699
9.23 0.0363937
9.24 0.0344165
9.25 0.0319449
9.26 0.0290709
9.27 0.0258914
9.28 0.0225164
9.29 0.0190648
9.3 0.0156658
9.31 0.0124684
9.32 0.00958276
9.33 0.0071145
9.34 0.00515423
9.35 0.00377419
9.36 0.00302535
9.37 0.00299136
9.38 0.00363654
9.39 0.00491061
9.4 0.00676089
9.41 0.0091127
9.42 0.0118721
9.43 0.0149325
9.44 0.0181688
9.45 0.0214241
9.46 0.0245672
9.47 0.0274709
9.48 0.0300163
9.49 0.0320979
9.5 0.0335809
9.51 0.0344082
9.52 0.0345656
9.53 0.0340394
9.54 0.0328413
9.55 0.0310077
9.56 0.0285941
9.57 0.0256456
9.58 0.0223263
9.59 0.018753
9.6 0.0150513
9.61 0.0113504
9.62 0.00777894
9.63 0.00448281
9.64 0.00158738
9.65 -0.000828848
9.66 -0.00269164
9.67 -0.00394837
9.68 -0.00456985
9.69 -0.00455123
9.7 -0.00384531
9.71 -0.00257426
9.72 -0.000809049
9.73 0.00136234
9.74 0.00383753
9.75 0.00650374
9.76 0.0092394
9.77 0.011906
9.78 0.0143854
9.79 0.0165718
9.8 0.0183731
9.81 0.0197134
9.82 0.0205368
9.83 0.0207499
9.84 0.0203953
9.85 0.0194982
9.86 0.0180991
9.87 0.0162593
9.88 0.0140583
9.89 0.0115847
9.9 0.00895521
9.91 0.00630377
9.92 0.00374669
9.93 0.00139748
9.94 -0.000637464
9.95 -0.0022629
9.96 -0.00334661
9.97 -0.00385629
9.98 -0.00376722
9.99 -0.00306474
10 -0.00175667
10.01 0.000127095
10.02 0.0025488
10.03 0.00545335
10.04 0.00870519
10.05 0.0122018
10.06 0.0158323
10.07 0.0194813
10.08 0.0230332
10.09 0.0263501
10.1 0.0293263
10.11 0.0318804
10.12 0.0339386
10.13 0.0354446
10.14 0.0363609
10.15 0.0366595
10.16 0.0362976
10.17 0.0353634
10.18 0.0339028
10.19 0.0319775
10.2 0.0296623
10.21 0.0270423
10.22 0.0242011
10.23 0.021253
10.24 0.0183013
10.25 0.0154357
10.26 0.0127382
10.27 0.0102805
10.28 0.00812416
10.29 0.00635308
10.3 0.00495828
10.31 0.00394909
10.32 0.00331941
10.33 0.00304858
10.34 0.00310286
10.35 0.00345067
10.36 0.00402779
10.37 0.00475706
10.38 0.00557404
10.39 0.00641407
10.4 0.00721493
10.41 0.00791919
10.42 0.00845499
10.43 0.00879452
10.44 0.00890963
10.45 0.00878255
10.46 0.00840672
10.47 0.00778651
10.48 0.00692653
10.49 0.0058513
10.5 0.00460947
10.51 0.00323954
10.52 0.00178339
10.53 0.000284298
10.54 -0.00121505
10.55 -0.0026666
10.56 -0.0040349
10.57 -0.00529192
10.58 -0.00641589
10.59 -0.00739255
10.6 -0.00821541
10.61 -0.00888016
10.62 -0.00939119
10.63 -0.00977661
10.64 -0.0100572
10.65 -0.0102571
10.66 -0.0104023
10.67 -0.0105188
10.68 -0.0106334
10.69 -0.0107702
10.7 -0.0109458
10.71 -0.0111716
10.72 -0.0114527
10.73 -0.0117881
10.74 -0.0121711
10.75 -0.012588
10.76 -0.0130147
10.77 -0.0134273
10.78 -0.0137993
10.79 -0.0141031
10.8 -0.0143114
10.81 -0.0143877
10.82 -0.0143137
10.83 -0.0140791
10.84 -0.013676
10.85 -0.0131036
10.86 -0.0123694
10.87 -0.0114874
10.88 -0.0104749
10.89 -0.00937975
10.9 -0.00824172
10.91 -0.00710538
10.92 -0.00601865
10.93 -0.00503092
10.94 -0.00420457
10.95 -0.003589
10.96 -0.00321685
10.97 -0.00312126
10.98 -0.00332679
10.99 -0.00384802
11 -0.00469001
11.01 -0.00587611
11.02 -0.00734746
11.03 -0.00906985
11.04 -0.0109986
11.05 -0.01308
11.06 -0.0152526
11.07 -0.0174465
11.08 -0.01958
11.09 -0.021581
11.1 -0.0233804
11.11 -0.0249135
11.12 -0.0261227
11.13 -0.0269589
11.14 -0.0273353
11.15 -0.0272684
11.16 -0.0267515
11.17 -0.0257885
11.18 -0.0243972
11.19 -0.022608
11.2 -0.0204497
11.21 -0.0179773
11.22 -0.0152793
11.23 -0.0124255
11.24 -0.00948944
11.25 -0.00654597
11.26 -0.00366858
11.27 -0.000947215
11.28 0.00155953
11.29 0.00380053
11.3 0.005732
11.31 0.00732125
11.32 0.00854744
11.33 0.00938884
11.34 0.00983384
11.35 0.00993074
11.36 0.00970755
11.37 0.00920096
11.38 0.00845474
11.39 0.00751782
11.4 0.00643489
11.41 0.00527379
11.42 0.00408986
11.43 0.00293124
11.44 0.001841
11.45 0.000855786
11.46 8.50943e-06
11.47 -0.00066775
11.48 -0.00117611
11.49 -0.00151528
11.5 -0.00169204
11.51 -0.0017204
11.52 -0.00162053
11.53 -0.00141185
11.54 -0.00113089
11.55 -0.000812137
11.56 -0.000485865
11.57 -0.000180624
11.58 7.81394e-05
11.59 0.000268148
11.6 0.000364666
11.61 0.000366894
11.62 0.000272945
11.63 8.72301e-05
11.64 -0.000179883
11.65 -0.000512697
11.66 -0.000892447
11.67 -0.00129107
11.68 -0.00168049
11.69 -0.00203447
11.7 -0.00232781
11.71 -0.00253769
11.72 -0.00264463
11.73 -0.00261969
11.74 -0.00246762
11.75 -0.00218714
11.76 -0.00178329
11.77 -0.0012674
11.78 -0.000656655
11.79 2.89982e-05
11.8 0.000758589
11.81 0.00149748
11.82 0.0022139
