# xPDFsuite Configuration #
[PDF]
wavelength = 0.1
dataformat = QA
inputfile = BiMsol6_insitu_700 C-00452.xy
backgroundfile = Quartz2mm-dist500-00000.xy
mode = xray
bgscale = 0.0042
composition = Bi2Fe4O9
outputtype = gr
qmaxinst = 24.998449118
qmin = 0.1
qmax = 21.4986662415
rmax = 80.0
rmin = 0.0
rstep = 0.01
rpoly = 0.9

[Misc]
inputdir = C:/Data/Seafile/CPH/Beamtime/Desy Oct 20/In situ data/Processed/BiMsol6/PDF
savedir = C:/Data/Seafile/CPH/Beamtime/Desy Oct 20/In situ data/PDF/BiMsol6
backgroundfilefull = C:/Data/Seafile/CPH/Beamtime/Desy Oct 20/In situ data/Processed/Standard_Empty_Cap/Quartz2mm-dist500-00000.xy

#### start data
#S 1
#L r($\AA$)  G($\AA^{-2}$)
0 0
0.01 0.0063859
0.02 0.0124104
0.03 0.017764
0.04 0.0221694
0.05 0.0253936
0.06 0.027259
0.07 0.0275716
0.08 0.026275
0.09 0.0235124
0.1 0.0194019
0.11 0.0141262
0.12 0.00792513
0.13 0.00108459
0.14 -0.00607384
0.15 -0.0131459
0.16 -0.0197903
0.17 -0.0256873
0.18 -0.0305501
0.19 -0.0341396
0.2 -0.03621
0.21 -0.0365942
0.22 -0.0353913
0.23 -0.0326688
0.24 -0.0285723
0.25 -0.0233211
0.26 -0.0171996
0.27 -0.010532
0.28 -0.0037828
0.29 0.00263442
0.3 0.00831821
0.31 0.0128873
0.32 0.0159992
0.33 0.0173075
0.34 0.0164739
0.35 0.0135531
0.36 0.00854464
0.37 0.00155301
0.38 -0.00721134
0.39 -0.0174348
0.4 -0.0287529
0.41 -0.0405427
0.42 -0.0521929
0.43 -0.0630817
0.44 -0.0725661
0.45 -0.080006
0.46 -0.0847242
0.47 -0.0858484
0.48 -0.0831914
0.49 -0.0764011
0.5 -0.0652486
0.51 -0.049643
0.52 -0.0296406
0.53 -0.00517415
0.54 0.0231991
0.55 0.0547457
0.56 0.0887846
0.57 0.12452
0.58 0.161061
0.59 0.197441
0.6 0.232422
0.61 0.265039
0.62 0.294318
0.63 0.319349
0.64 0.339312
0.65 0.353505
0.66 0.360953
0.67 0.361263
0.68 0.354617
0.69 0.341028
0.7 0.320694
0.71 0.293996
0.72 0.261483
0.73 0.223374
0.74 0.181184
0.75 0.135898
0.76 0.0885602
0.77 0.0402538
0.78 -0.00793115
0.79 -0.054816
0.8 -0.0992184
0.81 -0.140337
0.82 -0.1774
0.83 -0.209775
0.84 -0.236986
0.85 -0.258724
0.86 -0.274273
0.87 -0.284209
0.88 -0.28885
0.89 -0.288587
0.9 -0.283943
0.91 -0.275551
0.92 -0.264041
0.93 -0.25022
0.94 -0.235124
0.95 -0.219556
0.96 -0.204289
0.97 -0.190034
0.98 -0.177428
0.99 -0.167248
1 -0.159798
1.01 -0.155286
1.02 -0.15385
1.03 -0.155499
1.04 -0.160124
1.05 -0.167567
1.06 -0.177601
1.07 -0.189561
1.08 -0.202972
1.09 -0.21732
1.1 -0.23208
1.11 -0.246733
1.12 -0.260703
1.13 -0.273526
1.14 -0.284864
1.15 -0.294435
1.16 -0.302039
1.17 -0.307568
1.18 -0.310972
1.19 -0.312173
1.2 -0.311551
1.21 -0.309346
1.22 -0.305851
1.23 -0.301398
1.24 -0.296342
1.25 -0.291054
1.26 -0.285939
1.27 -0.281319
1.28 -0.277469
1.29 -0.274606
1.3 -0.272886
1.31 -0.272404
1.32 -0.2733
1.33 -0.275364
1.34 -0.278461
1.35 -0.282398
1.36 -0.286938
1.37 -0.291808
1.38 -0.296699
1.39 -0.301264
1.4 -0.305218
1.41 -0.3083
1.42 -0.310287
1.43 -0.311005
1.44 -0.310338
1.45 -0.308074
1.46 -0.304395
1.47 -0.299405
1.48 -0.293265
1.49 -0.286192
1.5 -0.278449
1.51 -0.270335
1.52 -0.26222
1.53 -0.25446
1.54 -0.247378
1.55 -0.241274
1.56 -0.23641
1.57 -0.233003
1.58 -0.231381
1.59 -0.231494
1.6 -0.233314
1.61 -0.236766
1.62 -0.241703
1.63 -0.247909
1.64 -0.255135
1.65 -0.26303
1.66 -0.271148
1.67 -0.279095
1.68 -0.286472
1.69 -0.292887
1.7 -0.297975
1.71 -0.301231
1.72 -0.302461
1.73 -0.301511
1.74 -0.298257
1.75 -0.292651
1.76 -0.284723
1.77 -0.27453
1.78 -0.262157
1.79 -0.248072
1.8 -0.232601
1.81 -0.21611
1.82 -0.198997
1.83 -0.181676
1.84 -0.164609
1.85 -0.148235
1.86 -0.132903
1.87 -0.118927
1.88 -0.106563
1.89 -0.0960035
1.9 -0.0873981
1.91 -0.0809622
1.92 -0.0764482
1.93 -0.0737368
1.94 -0.0726443
1.95 -0.0729313
1.96 -0.0743132
1.97 -0.0765016
1.98 -0.0790952
1.99 -0.0817185
2 -0.0840457
2.01 -0.0857782
2.02 -0.0866576
2.03 -0.0864713
2.04 -0.0849279
2.05 -0.0820888
2.06 -0.0779609
2.07 -0.0726213
2.08 -0.0662146
2.09 -0.0589482
2.1 -0.0510686
2.11 -0.0429351
2.12 -0.0349285
2.13 -0.027412
2.14 -0.0207513
2.15 -0.0153004
2.16 -0.0113885
2.17 -0.00953397
2.18 -0.0098049
2.19 -0.0123526
2.2 -0.0172746
2.21 -0.0245967
2.22 -0.0342713
2.23 -0.0462712
2.24 -0.0604236
2.25 -0.0763037
2.26 -0.0935937
2.27 -0.111935
2.28 -0.130942
2.29 -0.150211
2.3 -0.169285
2.31 -0.187741
2.32 -0.205224
2.33 -0.221411
2.34 -0.23603
2.35 -0.248865
2.36 -0.25969
2.37 -0.268318
2.38 -0.274908
2.39 -0.279523
2.4 -0.282287
2.41 -0.283377
2.42 -0.283019
2.43 -0.281398
2.44 -0.278912
2.45 -0.275903
2.46 -0.27268
2.47 -0.269543
2.48 -0.266773
2.49 -0.264639
2.5 -0.263438
2.51 -0.263265
2.52 -0.264228
2.53 -0.266385
2.54 -0.269746
2.55 -0.274267
2.56 -0.279934
2.57 -0.286557
2.58 -0.293923
2.59 -0.301839
2.6 -0.310093
2.61 -0.318468
2.62 -0.326741
2.63 -0.33465
2.64 -0.34202
2.65 -0.348688
2.66 -0.354515
2.67 -0.359396
2.68 -0.363261
2.69 -0.366002
2.7 -0.367634
2.71 -0.368248
2.72 -0.367906
2.73 -0.366691
2.74 -0.364707
2.75 -0.362065
2.76 -0.358838
2.77 -0.355218
2.78 -0.351318
2.79 -0.347237
2.8 -0.343064
2.81 -0.338866
2.82 -0.334696
2.83 -0.330584
2.84 -0.326529
2.85 -0.322516
2.86 -0.318511
2.87 -0.314469
2.88 -0.310331
2.89 -0.306011
2.9 -0.30145
2.91 -0.296587
2.92 -0.291363
2.93 -0.285729
2.94 -0.279647
2.95 -0.27307
2.96 -0.265973
2.97 -0.258396
2.98 -0.250358
2.99 -0.241889
3 -0.233027
3.01 -0.223815
3.02 -0.214275
3.03 -0.204479
3.04 -0.194473
3.05 -0.184287
3.06 -0.173938
3.07 -0.163433
3.08 -0.152753
3.09 -0.141857
3.1 -0.130712
3.11 -0.119255
3.12 -0.107412
3.13 -0.0950982
3.14 -0.0822229
3.15 -0.0686287
3.16 -0.0542484
3.17 -0.0390214
3.18 -0.0228787
3.19 -0.00576848
3.2 0.0123399
3.21 0.0314726
3.22 0.0516757
3.23 0.0727932
3.24 0.0947359
3.25 0.117385
3.26 0.140592
3.27 0.164186
3.28 0.18797
3.29 0.211691
3.3 0.235117
3.31 0.258013
3.32 0.280146
3.33 0.30129
3.34 0.321216
3.35 0.339572
3.36 0.356323
3.37 0.371333
3.38 0.384496
3.39 0.395739
3.4 0.405027
3.41 0.412236
3.42 0.417429
3.43 0.420786
3.44 0.422412
3.45 0.422436
3.46 0.421009
3.47 0.418298
3.48 0.414374
3.49 0.409566
3.5 0.40406
3.51 0.398034
3.52 0.39166
3.53 0.385093
3.54 0.37848
3.55 0.371959
3.56 0.365632
3.57 0.359575
3.58 0.353847
3.59 0.348488
3.6 0.343521
3.61 0.338996
3.62 0.33487
3.63 0.331125
3.64 0.32774
3.65 0.324695
3.66 0.321967
3.67 0.31955
3.68 0.31744
3.69 0.315609
3.7 0.314058
3.71 0.312799
3.72 0.31185
3.73 0.311236
3.74 0.311027
3.75 0.311235
3.76 0.311893
3.77 0.313037
3.78 0.314704
3.79 0.316926
3.8 0.319746
3.81 0.323219
3.82 0.327298
3.83 0.331978
3.84 0.337243
3.85 0.343065
3.86 0.349405
3.87 0.356247
3.88 0.3635
3.89 0.371079
3.9 0.378908
3.91 0.386905
3.92 0.394986
3.93 0.403065
3.94 0.411039
3.95 0.418826
3.96 0.426346
3.97 0.433525
3.98 0.44029
3.99 0.446577
4 0.45228
4.01 0.457352
4.02 0.461767
4.03 0.465479
4.04 0.468446
4.05 0.470627
4.06 0.471978
4.07 0.472372
4.08 0.471866
4.09 0.470428
4.1 0.468025
4.11 0.464631
4.12 0.460218
4.13 0.4547
4.14 0.44806
4.15 0.440348
4.16 0.431559
4.17 0.4217
4.18 0.410784
4.19 0.398836
4.2 0.385784
4.21 0.371792
4.22 0.356924
4.23 0.341251
4.24 0.324856
4.25 0.307828
4.26 0.290243
4.27 0.272207
4.28 0.25386
4.29 0.235303
4.3 0.216633
4.31 0.197942
4.32 0.179312
4.33 0.160833
4.34 0.142554
4.35 0.124512
4.36 0.106729
4.37 0.0892101
4.38 0.0719464
4.39 0.0549199
4.4 0.0380932
4.41 0.0213962
4.42 0.00476909
4.43 -0.0118526
4.44 -0.0285347
4.45 -0.0453405
4.46 -0.0623484
4.47 -0.0795983
4.48 -0.0971167
4.49 -0.114919
4.5 -0.133002
4.51 -0.151344
4.52 -0.169907
4.53 -0.188625
4.54 -0.207392
4.55 -0.226104
4.56 -0.244642
4.57 -0.262874
4.58 -0.280662
4.59 -0.297805
4.6 -0.314168
4.61 -0.32964
4.62 -0.344099
4.63 -0.357436
4.64 -0.369562
4.65 -0.380389
4.66 -0.389761
4.67 -0.3978
4.68 -0.404523
4.69 -0.409978
4.7 -0.414235
4.71 -0.41739
4.72 -0.419501
4.73 -0.420745
4.74 -0.421317
4.75 -0.421376
4.76 -0.421082
4.77 -0.420594
4.78 -0.420064
4.79 -0.419657
4.8 -0.419496
4.81 -0.41968
4.82 -0.420287
4.83 -0.42137
4.84 -0.42296
4.85 -0.425089
4.86 -0.427729
4.87 -0.430804
4.88 -0.434245
4.89 -0.437968
4.9 -0.441877
4.91 -0.445868
4.92 -0.449815
4.93 -0.453602
4.94 -0.457123
4.95 -0.460283
4.96 -0.462996
4.97 -0.46519
4.98 -0.466781
4.99 -0.467711
5 -0.468002
5.01 -0.467653
5.02 -0.466676
5.03 -0.465098
5.04 -0.462956
5.05 -0.460248
5.06 -0.457071
5.07 -0.453486
5.08 -0.449542
5.09 -0.445281
5.1 -0.44074
5.11 -0.435933
5.12 -0.430863
5.13 -0.425547
5.14 -0.419967
5.15 -0.414092
5.16 -0.407879
5.17 -0.401276
5.18 -0.394174
5.19 -0.386524
5.2 -0.378267
5.21 -0.369334
5.22 -0.359659
5.23 -0.349183
5.24 -0.337835
5.25 -0.325515
5.26 -0.312285
5.27 -0.298145
5.28 -0.283108
5.29 -0.267208
5.3 -0.250496
5.31 -0.232984
5.32 -0.214793
5.33 -0.196048
5.34 -0.176851
5.35 -0.157314
5.36 -0.137547
5.37 -0.117666
5.38 -0.0977947
5.39 -0.0780463
5.4 -0.0585178
5.41 -0.0392965
5.42 -0.020459
5.43 -0.00207048
5.44 0.015779
5.45 0.0330503
5.46 0.0497396
5.47 0.065826
5.48 0.0812954
5.49 0.0961388
5.5 0.110349
5.51 0.123847
5.52 0.1367
5.53 0.148897
5.54 0.160423
5.55 0.171258
5.56 0.181373
5.57 0.190693
5.58 0.199166
5.59 0.206793
5.6 0.213528
5.61 0.21932
5.62 0.224123
5.63 0.227892
5.64 0.230471
5.65 0.231934
5.66 0.232278
5.67 0.231502
5.68 0.229618
5.69 0.226658
5.7 0.222626
5.71 0.21757
5.72 0.211649
5.73 0.204962
5.74 0.19762
5.75 0.189743
5.76 0.181459
5.77 0.172885
5.78 0.164188
5.79 0.155497
5.8 0.146931
5.81 0.138595
5.82 0.130581
5.83 0.122978
5.84 0.115873
5.85 0.10926
5.86 0.103153
5.87 0.0975433
5.88 0.0924052
5.89 0.0876967
5.9 0.0833891
5.91 0.0793863
5.92 0.0756034
5.93 0.0719647
5.94 0.0683968
5.95 0.0648322
5.96 0.0612103
5.97 0.0574745
5.98 0.0536059
5.99 0.0495974
6 0.0454611
6.01 0.0412286
6.02 0.0369507
6.03 0.0327044
6.04 0.0285873
6.05 0.0246985
6.06 0.0211471
6.07 0.0180466
6.08 0.015511
6.09 0.0136587
6.1 0.0126756
6.11 0.0125721
6.12 0.0134144
6.13 0.0152477
6.14 0.0180938
6.15 0.021949
6.16 0.0268422
6.17 0.0326939
6.18 0.0393634
6.19 0.0467388
6.2 0.0546878
6.21 0.0630612
6.22 0.0716967
6.23 0.0804139
6.24 0.089012
6.25 0.0973193
6.26 0.105172
6.27 0.11242
6.28 0.118926
6.29 0.124527
6.3 0.129109
6.31 0.13267
6.32 0.135177
6.33 0.136625
6.34 0.137037
6.35 0.136457
6.36 0.134869
6.37 0.13246
6.38 0.129351
6.39 0.125663
6.4 0.121522
6.41 0.117061
6.42 0.112405
6.43 0.107693
6.44 0.10305
6.45 0.098574
6.46 0.0943481
6.47 0.0904385
6.48 0.0868931
6.49 0.0837801
6.5 0.0810806
6.51 0.0787762
6.52 0.0768428
6.53 0.0752442
6.54 0.0739348
6.55 0.072868
6.56 0.0719907
6.57 0.071228
6.58 0.0705282
6.59 0.0698456
6.6 0.0691428
6.61 0.0683923
6.62 0.0675721
6.63 0.0666825
6.64 0.0657363
6.65 0.0647553
6.66 0.063771
6.67 0.0628233
6.68 0.0619609
6.69 0.061251
6.7 0.0607359
6.71 0.0604654
6.72 0.0604846
6.73 0.0608325
6.74 0.0615392
6.75 0.0626531
6.76 0.0641716
6.77 0.0660708
6.78 0.0683319
6.79 0.070924
6.8 0.0738054
6.81 0.0769264
6.82 0.0802379
6.83 0.0836494
6.84 0.0870919
6.85 0.0904966
6.86 0.0937965
6.87 0.0969287
6.88 0.0998205
6.89 0.102419
6.9 0.104703
6.91 0.106648
6.92 0.108242
6.93 0.109484
6.94 0.110386
6.95 0.110934
6.96 0.111201
6.97 0.111226
6.98 0.111055
6.99 0.110737
7 0.11032
7.01 0.109853
7.02 0.109387
7.03 0.108964
7.04 0.108617
7.05 0.108368
7.06 0.108234
7.07 0.108222
7.08 0.108339
7.09 0.108561
7.1 0.108867
7.11 0.109228
7.12 0.109614
7.13 0.109991
7.14 0.110318
7.15 0.110554
7.16 0.110669
7.17 0.110635
7.18 0.110431
7.19 0.11004
7.2 0.109452
7.21 0.108649
7.22 0.107651
7.23 0.106476
7.24 0.105145
7.25 0.10368
7.26 0.102108
7.27 0.100455
7.28 0.0987465
7.29 0.0970116
7.3 0.0952674
7.31 0.093524
7.32 0.0917831
7.33 0.0900369
7.34 0.0882634
7.35 0.0864292
7.36 0.0844932
7.37 0.0824032
7.38 0.0800986
7.39 0.0775112
7.4 0.0745598
7.41 0.0711217
7.42 0.0671561
7.43 0.0625879
7.44 0.0573469
7.45 0.0513706
7.46 0.0446067
7.47 0.0369554
7.48 0.0284089
7.49 0.0190016
7.5 0.00874565
7.51 -0.00232855
7.52 -0.0141728
7.53 -0.0267251
7.54 -0.0399569
7.55 -0.0536903
7.56 -0.0678113
7.57 -0.0821959
7.58 -0.096712
7.59 -0.111223
7.6 -0.125573
7.61 -0.139603
7.62 -0.153191
7.63 -0.16621
7.64 -0.178548
7.65 -0.190099
7.66 -0.200776
7.67 -0.210391
7.68 -0.218986
7.69 -0.22653
7.7 -0.233003
7.71 -0.238403
7.72 -0.242744
7.73 -0.246005
7.74 -0.248214
7.75 -0.249497
7.76 -0.249919
7.77 -0.24955
7.78 -0.248466
7.79 -0.246746
7.8 -0.244423
7.81 -0.241631
7.82 -0.238455
7.83 -0.234966
7.84 -0.231232
7.85 -0.227312
7.86 -0.223258
7.87 -0.219119
7.88 -0.214941
7.89 -0.210757
7.9 -0.20659
7.91 -0.20246
7.92 -0.198379
7.93 -0.194364
7.94 -0.190415
7.95 -0.186534
7.96 -0.182721
7.97 -0.178975
7.98 -0.175297
7.99 -0.171687
8 -0.168153
8.01 -0.164691
8.02 -0.161306
8.03 -0.158006
8.04 -0.1548
8.05 -0.1517
8.06 -0.148729
8.07 -0.145901
8.08 -0.143227
8.09 -0.140726
8.1 -0.138414
8.11 -0.136311
8.12 -0.134437
8.13 -0.13283
8.14 -0.131479
8.15 -0.130395
8.16 -0.129584
8.17 -0.129049
8.18 -0.128788
8.19 -0.128812
8.2 -0.1291
8.21 -0.12962
8.22 -0.130345
8.23 -0.131244
8.24 -0.132278
8.25 -0.133403
8.26 -0.134565
8.27 -0.135698
8.28 -0.136739
8.29 -0.137622
8.3 -0.138278
8.31 -0.138634
8.32 -0.138592
8.33 -0.138066
8.34 -0.137009
8.35 -0.135354
8.36 -0.133037
8.37 -0.130003
8.38 -0.126201
8.39 -0.1215
8.4 -0.115949
8.41 -0.109537
8.42 -0.102259
8.43 -0.0941216
8.44 -0.0851422
8.45 -0.0753169
8.46 -0.0646757
8.47 -0.0533324
8.48 -0.0413531
8.49 -0.0288123
8.5 -0.0157916
8.51 -0.00237837
8.52 0.0113571
8.53 0.0252875
8.54 0.0393152
8.55 0.0533505
8.56 0.067308
8.57 0.0811079
8.58 0.0946679
8.59 0.107903
8.6 0.120781
8.61 0.133262
8.62 0.145314
8.63 0.156919
8.64 0.168065
8.65 0.178713
8.66 0.188899
8.67 0.198651
8.68 0.207992
8.69 0.216945
8.7 0.225537
8.71 0.233786
8.72 0.241696
8.73 0.249318
8.74 0.256665
8.75 0.263744
8.76 0.270554
8.77 0.277087
8.78 0.2833
8.79 0.289172
8.8 0.294678
8.81 0.299773
8.82 0.304406
8.83 0.308518
8.84 0.312041
8.85 0.314842
8.86 0.316917
8.87 0.318202
8.88 0.318634
8.89 0.318155
8.9 0.316713
8.91 0.314193
8.92 0.310568
8.93 0.305862
8.94 0.300059
8.95 0.293151
8.96 0.285141
8.97 0.276039
8.98 0.265747
8.99 0.254424
9 0.242109
9.01 0.228848
9.02 0.214693
9.03 0.199701
9.04 0.183895
9.05 0.167343
9.06 0.15016
9.07 0.132414
9.08 0.114174
9.09 0.0955089
9.1 0.0764891
9.11 0.0571612
9.12 0.0376299
9.13 0.017968
9.14 -0.00175409
9.15 -0.0214653
9.16 -0.041094
9.17 -0.0605577
9.18 -0.0797647
9.19 -0.0986526
9.2 -0.117146
9.21 -0.135168
9.22 -0.152642
9.23 -0.169493
9.24 -0.185569
9.25 -0.200843
9.26 -0.215258
9.27 -0.228749
9.28 -0.241252
9.29 -0.252712
9.3 -0.263043
9.31 -0.272136
9.32 -0.280053
9.33 -0.28677
9.34 -0.292271
9.35 -0.296552
9.36 -0.299615
9.37 -0.301371
9.38 -0.301907
9.39 -0.30129
9.4 -0.299555
9.41 -0.296743
9.42 -0.292897
9.43 -0.288045
9.44 -0.282171
9.45 -0.275417
9.46 -0.267832
9.47 -0.259459
9.48 -0.250343
9.49 -0.240523
9.5 -0.229987
9.51 -0.218791
9.52 -0.20699
9.53 -0.194608
9.54 -0.181666
9.55 -0.16818
9.56 -0.154164
9.57 -0.139586
9.58 -0.124519
9.59 -0.108982
9.6 -0.0929984
9.61 -0.0765937
9.62 -0.0597989
9.63 -0.0426304
9.64 -0.02514
9.65 -0.00739574
9.66 0.0105475
9.67 0.0286297
9.68 0.0467856
9.69 0.0649462
9.7 0.0830229
9.71 0.100942
9.72 0.118629
9.73 0.136008
9.74 0.153009
9.75 0.169563
9.76 0.185576
9.77 0.200974
9.78 0.21574
9.79 0.229831
9.8 0.243214
9.81 0.25586
9.82 0.267749
9.83 0.278789
9.84 0.289046
9.85 0.298532
9.86 0.307254
9.87 0.315224
9.88 0.322457
9.89 0.328941
9.9 0.334671
9.91 0.339717
9.92 0.344098
9.93 0.347825
9.94 0.35091
9.95 0.353362
9.96 0.355129
9.97 0.356255
9.98 0.356757
9.99 0.356631
10 0.355875
10.01 0.354484
10.02 0.352437
10.03 0.349694
10.04 0.346314
10.05 0.342301
10.06 0.337665
10.07 0.33242
10.08 0.326587
10.09 0.320148
10.1 0.313167
10.11 0.305703
10.12 0.297801
10.13 0.289511
10.14 0.280888
10.15 0.271984
10.16 0.262852
10.17 0.253579
10.18 0.244226
10.19 0.234854
10.2 0.225521
10.21 0.216282
10.22 0.207203
10.23 0.198329
10.24 0.189694
10.25 0.181329
10.26 0.173262
10.27 0.165511
10.28 0.158093
10.29 0.15105
10.3 0.144346
10.31 0.137976
10.32 0.131932
10.33 0.126201
10.34 0.120765
10.35 0.115622
10.36 0.110746
10.37 0.106098
10.38 0.101652
10.39 0.0973827
10.4 0.0932632
10.41 0.0892653
10.42 0.0853668
10.43 0.0815243
10.44 0.0777056
10.45 0.0738771
10.46 0.0700038
10.47 0.0660489
10.48 0.0619658
10.49 0.0577052
10.5 0.0532335
10.51 0.0485077
10.52 0.0434844
10.53 0.0381201
10.54 0.0323726
10.55 0.0261542
10.56 0.0194605
10.57 0.0122654
10.58 0.00454178
10.59 -0.0037315
10.6 -0.0125682
10.61 -0.0219954
10.62 -0.0320316
10.63 -0.0426166
10.64 -0.0537258
10.65 -0.065325
10.66 -0.0773706
10.67 -0.0898107
10.68 -0.10261
10.69 -0.11567
10.7 -0.128911
10.71 -0.142256
10.72 -0.155627
10.73 -0.168948
10.74 -0.182139
10.75 -0.195106
10.76 -0.2078
10.77 -0.220166
10.78 -0.232157
10.79 -0.243739
10.8 -0.254887
10.81 -0.265552
10.82 -0.275754
10.83 -0.285522
10.84 -0.294879
10.85 -0.303858
10.86 -0.312499
10.87 -0.320844
10.88 -0.328931
10.89 -0.33684
10.9 -0.344624
10.91 -0.352334
10.92 -0.360013
10.93 -0.367702
10.94 -0.375435
10.95 -0.383234
10.96 -0.391104
10.97 -0.399041
10.98 -0.407029
10.99 -0.41504
11 -0.423036
11.01 -0.430953
11.02 -0.438735
11.03 -0.446313
11.04 -0.453615
11.05 -0.460565
11.06 -0.467085
11.07 -0.473065
11.08 -0.478419
11.09 -0.48311
11.1 -0.487077
11.11 -0.490266
11.12 -0.492635
11.13 -0.494151
11.14 -0.494692
11.15 -0.494341
11.16 -0.493104
11.17 -0.490994
11.18 -0.488033
11.19 -0.484251
11.2 -0.47965
11.21 -0.47426
11.22 -0.468184
11.23 -0.461468
11.24 -0.454162
11.25 -0.446312
11.26 -0.437963
11.27 -0.429112
11.28 -0.419835
11.29 -0.41017
11.3 -0.400138
11.31 -0.389755
11.32 -0.379031
11.33 -0.36796
11.34 -0.356523
11.35 -0.344744
11.36 -0.332613
11.37 -0.320119
11.38 -0.307251
11.39 -0.293997
11.4 -0.280313
11.41 -0.266212
11.42 -0.251703
11.43 -0.236787
11.44 -0.221467
11.45 -0.205755
11.46 -0.189656
11.47 -0.173167
11.48 -0.156351
11.49 -0.139235
11.5 -0.121853
11.51 -0.104242
11.52 -0.0864375
11.53 -0.0684716
11.54 -0.0503948
11.55 -0.0322519
11.56 -0.0140811
11.57 0.00408161
11.58 0.0222021
11.59 0.0402478
11.6 0.0581776
11.61 0.0759751
11.62 0.0936184
11.63 0.111088
11.64 0.128368
11.65 0.145442
11.66 0.162281
11.67 0.178875
11.68 0.195223
11.69 0.211311
11.7 0.227127
11.71 0.242656
11.72 0.257882
11.73 0.272747
11.74 0.287267
11.75 0.301417
11.76 0.315175
11.77 0.328512
11.78 0.341399
11.79 0.353779
11.8 0.36561
11.81 0.376891
11.82 0.387587
11.83 0.397667
11.84 0.407097
11.85 0.415846
11.86 0.423801
11.87 0.431002
11.88 0.437427
11.89 0.443049
11.9 0.447844
11.91 0.45179
11.92 0.454824
11.93 0.4569
11.94 0.458062
11.95 0.458295
11.96 0.457582
11.97 0.45591
11.98 0.453266
11.99 0.449541
12 0.4448
12.01 0.439054
12.02 0.432296
12.03 0.424521
12.04 0.415727
12.05 0.405882
12.06 0.394937
12.07 0.382987
12.08 0.370046
12.09 0.35613
12.1 0.341263
12.11 0.325473
12.12 0.308722
12.13 0.291106
12.14 0.272701
12.15 0.253563
12.16 0.233753
12.17 0.21334
12.18 0.192389
12.19 0.170957
12.2 0.149179
12.21 0.127147
12.22 0.104956
12.23 0.082703
12.24 0.0604882
12.25 0.0384318
