# xPDFsuite Configuration #
[PDF]
wavelength = 0.1
dataformat = QA
inputfile = BiMsol6_insitu_700 C-00550.xy
backgroundfile = Quartz2mm-dist500-00000.xy
mode = xray
bgscale = 0.0042
composition = Bi2Fe4O9
outputtype = gr
qmaxinst = 24.998449118
qmin = 0.1
qmax = 21.4986662415
rmax = 80.0
rmin = 0.0
rstep = 0.01
rpoly = 0.9

[Misc]
inputdir = C:/Data/Seafile/CPH/Beamtime/Desy Oct 20/In situ data/Processed/BiMsol6/PDF
savedir = C:/Data/Seafile/CPH/Beamtime/Desy Oct 20/In situ data/PDF/BiMsol6
backgroundfilefull = C:/Data/Seafile/CPH/Beamtime/Desy Oct 20/In situ data/Processed/Standard_Empty_Cap/Quartz2mm-dist500-00000.xy

#### start data
#S 1
#L r($\AA$)  G($\AA^{-2}$)
0 0
0.01 0.00606892
0.02 0.0117927
0.03 0.0168761
0.04 0.0210541
0.05 0.0241044
0.06 0.0258577
0.07 0.0261291
0.08 0.0248651
0.09 0.0222028
0.1 0.0182554
0.11 0.0131978
0.12 0.00725943
0.13 0.000713724
0.14 -0.00613157
0.15 -0.0128906
0.16 -0.0192375
0.17 -0.0248672
0.18 -0.0295063
0.19 -0.0329268
0.2 -0.034895
0.21 -0.0352525
0.22 -0.034095
0.23 -0.0314884
0.24 -0.0275732
0.25 -0.02256
0.26 -0.0167218
0.27 -0.0103701
0.28 -0.00394892
0.29 0.00214634
0.3 0.00753209
0.31 0.0118444
0.32 0.014757
0.33 0.0159399
0.34 0.0150716
0.35 0.0122072
0.36 0.00734889
0.37 0.000599357
0.38 -0.00783718
0.39 -0.0176578
0.4 -0.0285098
0.41 -0.0397952
0.42 -0.0509276
0.43 -0.0613106
0.44 -0.0703283
0.45 -0.077368
0.46 -0.081782
0.47 -0.0827361
0.48 -0.0800554
0.49 -0.0734065
0.5 -0.0625746
0.51 -0.0474775
0.52 -0.0281745
0.53 -0.00460803
0.54 0.0226815
0.55 0.0529864
0.56 0.0856486
0.57 0.1199
0.58 0.154884
0.59 0.18967
0.6 0.223064
0.61 0.254144
0.62 0.281979
0.63 0.305696
0.64 0.324513
0.65 0.337762
0.66 0.344511
0.67 0.344391
0.68 0.337587
0.69 0.324117
0.7 0.304182
0.71 0.278155
0.72 0.246572
0.73 0.209654
0.74 0.168861
0.75 0.125142
0.76 0.0795063
0.77 0.0329952
0.78 -0.0133428
0.79 -0.0583732
0.8 -0.100962
0.81 -0.140347
0.82 -0.175793
0.83 -0.206697
0.84 -0.232611
0.85 -0.253246
0.86 -0.267923
0.87 -0.277206
0.88 -0.281409
0.89 -0.280917
0.9 -0.27624
0.91 -0.267992
0.92 -0.256786
0.93 -0.243402
0.94 -0.228834
0.95 -0.213855
0.96 -0.199204
0.97 -0.185562
0.98 -0.173536
0.99 -0.163867
1 -0.156837
1.01 -0.152637
1.02 -0.15139
1.03 -0.153098
1.04 -0.157643
1.05 -0.164869
1.06 -0.174544
1.07 -0.186031
1.08 -0.198866
1.09 -0.212556
1.1 -0.226596
1.11 -0.24049
1.12 -0.253687
1.13 -0.265752
1.14 -0.276369
1.15 -0.285276
1.16 -0.292293
1.17 -0.29733
1.18 -0.300348
1.19 -0.301289
1.2 -0.300525
1.21 -0.298296
1.22 -0.294889
1.23 -0.290627
1.24 -0.285852
1.25 -0.280924
1.26 -0.276223
1.27 -0.272049
1.28 -0.268652
1.29 -0.266228
1.3 -0.26491
1.31 -0.264769
1.32 -0.265917
1.33 -0.268134
1.34 -0.271268
1.35 -0.275118
1.36 -0.279437
1.37 -0.28395
1.38 -0.28834
1.39 -0.292267
1.4 -0.295463
1.41 -0.29768
1.42 -0.298711
1.43 -0.298402
1.44 -0.296656
1.45 -0.293284
1.46 -0.288496
1.47 -0.282421
1.48 -0.275243
1.49 -0.267201
1.5 -0.258576
1.51 -0.249692
1.52 -0.240937
1.53 -0.232669
1.54 -0.225217
1.55 -0.218884
1.56 -0.213929
1.57 -0.210564
1.58 -0.209117
1.59 -0.209513
1.6 -0.211703
1.61 -0.215594
1.62 -0.221016
1.63 -0.227731
1.64 -0.235463
1.65 -0.243835
1.66 -0.252376
1.67 -0.260673
1.68 -0.268305
1.69 -0.274867
1.7 -0.279978
1.71 -0.283114
1.72 -0.28408
1.73 -0.282728
1.74 -0.278935
1.75 -0.272661
1.76 -0.263947
1.77 -0.252861
1.78 -0.239502
1.79 -0.224365
1.8 -0.207796
1.81 -0.190184
1.82 -0.171947
1.83 -0.153518
1.84 -0.135383
1.85 -0.117998
1.86 -0.101726
1.87 -0.086891
1.88 -0.0737572
1.89 -0.0625217
1.9 -0.0533375
1.91 -0.0464266
1.92 -0.0415272
1.93 -0.0385134
1.94 -0.0371932
1.95 -0.0373181
1.96 -0.0385942
1.97 -0.0407263
1.98 -0.0433034
1.99 -0.0459419
2 -0.0483124
2.01 -0.050116
2.02 -0.0510966
2.03 -0.0510477
2.04 -0.0496938
2.05 -0.0471056
2.06 -0.0433062
2.07 -0.0383916
2.08 -0.0325269
2.09 -0.025941
2.1 -0.0189124
2.11 -0.0118253
2.12 -0.00506888
2.13 0.000977999
2.14 0.00593799
2.15 0.00945001
2.16 0.0111834
2.17 0.0105993
2.18 0.00766699
2.19 0.0022558
2.2 -0.00570635
2.21 -0.0162137
2.22 -0.0291817
2.23 -0.044542
2.24 -0.0620698
2.25 -0.0812872
2.26 -0.101827
2.27 -0.12328
2.28 -0.145213
2.29 -0.16718
2.3 -0.18865
2.31 -0.209188
2.32 -0.228416
2.33 -0.245994
2.34 -0.26164
2.35 -0.275136
2.36 -0.286256
2.37 -0.294812
2.38 -0.301022
2.39 -0.304982
2.4 -0.306854
2.41 -0.30686
2.42 -0.305274
2.43 -0.302325
2.44 -0.298472
2.45 -0.294106
2.46 -0.28958
2.47 -0.285233
2.48 -0.281378
2.49 -0.278316
2.5 -0.276372
2.51 -0.275635
2.52 -0.276215
2.53 -0.278161
2.54 -0.281464
2.55 -0.286061
2.56 -0.291913
2.57 -0.298792
2.58 -0.306444
2.59 -0.314638
2.6 -0.323128
2.61 -0.331663
2.62 -0.339989
2.63 -0.347804
2.64 -0.35493
2.65 -0.361193
2.66 -0.366454
2.67 -0.370615
2.68 -0.373619
2.69 -0.375378
2.7 -0.375943
2.71 -0.375449
2.72 -0.373999
2.73 -0.371724
2.74 -0.368774
2.75 -0.36531
2.76 -0.361478
2.77 -0.357495
2.78 -0.353512
2.79 -0.349663
2.8 -0.34606
2.81 -0.34279
2.82 -0.339935
2.83 -0.33753
2.84 -0.335543
2.85 -0.333943
2.86 -0.332672
2.87 -0.331657
2.88 -0.330807
2.89 -0.330015
2.9 -0.32916
2.91 -0.328135
2.92 -0.326842
2.93 -0.325194
2.94 -0.323116
2.95 -0.320528
2.96 -0.31737
2.97 -0.313662
2.98 -0.309402
2.99 -0.304607
3 -0.299302
3.01 -0.293522
3.02 -0.287268
3.03 -0.280616
3.04 -0.273606
3.05 -0.266258
3.06 -0.25858
3.07 -0.250559
3.08 -0.242152
3.09 -0.233274
3.1 -0.223876
3.11 -0.213859
3.12 -0.203105
3.13 -0.191482
3.14 -0.17885
3.15 -0.164952
3.16 -0.149689
3.17 -0.132966
3.18 -0.114669
3.19 -0.0947053
3.2 -0.0730129
3.21 -0.0495268
3.22 -0.0241323
3.23 0.00293661
3.24 0.0315714
3.25 0.0616192
3.26 0.0928842
3.27 0.12513
3.28 0.158114
3.29 0.191465
3.3 0.224821
3.31 0.257836
3.32 0.290157
3.33 0.321433
3.34 0.351306
3.35 0.379252
3.36 0.405143
3.37 0.428726
3.38 0.449794
3.39 0.468182
3.4 0.483774
3.41 0.496326
3.42 0.50585
3.43 0.512549
3.44 0.516513
3.45 0.517872
3.46 0.516792
3.47 0.513467
3.48 0.507905
3.49 0.500593
3.5 0.491771
3.51 0.481678
3.52 0.470542
3.53 0.45858
3.54 0.445968
3.55 0.432898
3.56 0.419553
3.57 0.406053
3.58 0.392488
3.59 0.378927
3.6 0.365413
3.61 0.35198
3.62 0.338629
3.63 0.325353
3.64 0.312142
3.65 0.298984
3.66 0.285872
3.67 0.272808
3.68 0.259808
3.69 0.246899
3.7 0.234129
3.71 0.221563
3.72 0.209284
3.73 0.197393
3.74 0.186066
3.75 0.175413
3.76 0.165563
3.77 0.156662
3.78 0.148856
3.79 0.142286
3.8 0.137132
3.81 0.133615
3.82 0.131713
3.83 0.131506
3.84 0.133048
3.85 0.136372
3.86 0.14148
3.87 0.148491
3.88 0.157264
3.89 0.167655
3.9 0.179565
3.91 0.192871
3.92 0.207435
3.93 0.223124
3.94 0.239833
3.95 0.257288
3.96 0.275323
3.97 0.293771
3.98 0.312472
3.99 0.331273
4 0.350017
4.01 0.368556
4.02 0.386775
4.03 0.404566
4.04 0.421834
4.05 0.438495
4.06 0.454468
4.07 0.469601
4.08 0.483909
4.09 0.497338
4.1 0.509833
4.11 0.521344
4.12 0.531818
4.13 0.541134
4.14 0.549233
4.15 0.556124
4.16 0.561751
4.17 0.566059
4.18 0.568996
4.19 0.57051
4.2 0.570385
4.21 0.56874
4.22 0.565552
4.23 0.5608
4.24 0.554478
4.25 0.546589
4.26 0.537077
4.27 0.525952
4.28 0.513366
4.29 0.499381
4.3 0.484069
4.31 0.467513
4.32 0.449804
4.33 0.430942
4.34 0.411132
4.35 0.390492
4.36 0.369124
4.37 0.347127
4.38 0.324593
4.39 0.301594
4.4 0.278201
4.41 0.254514
4.42 0.23059
4.43 0.206473
4.44 0.182203
4.45 0.157808
4.46 0.133305
4.47 0.108722
4.48 0.0840786
4.49 0.0593925
4.5 0.0346842
4.51 0.00997877
4.52 -0.0146899
4.53 -0.0392708
4.54 -0.0637155
4.55 -0.0879625
4.56 -0.11194
4.57 -0.135566
4.58 -0.158752
4.59 -0.18135
4.6 -0.203267
4.61 -0.224421
4.62 -0.244708
4.63 -0.264031
4.64 -0.282297
4.65 -0.299407
4.66 -0.31518
4.67 -0.329685
4.68 -0.34289
4.69 -0.354781
4.7 -0.365367
4.71 -0.374672
4.72 -0.382665
4.73 -0.389446
4.74 -0.39516
4.75 -0.399907
4.76 -0.403797
4.77 -0.406948
4.78 -0.40948
4.79 -0.411478
4.8 -0.41313
4.81 -0.414548
4.82 -0.415837
4.83 -0.417086
4.84 -0.418374
4.85 -0.41977
4.86 -0.421323
4.87 -0.423048
4.88 -0.42495
4.89 -0.427019
4.9 -0.429227
4.91 -0.431537
4.92 -0.4339
4.93 -0.436246
4.94 -0.438512
4.95 -0.440633
4.96 -0.442543
4.97 -0.444183
4.98 -0.445478
4.99 -0.446363
5 -0.446824
5.01 -0.446831
5.02 -0.446363
5.03 -0.44541
5.04 -0.443969
5.05 -0.441997
5.06 -0.439547
5.07 -0.436644
5.08 -0.433306
5.09 -0.429553
5.1 -0.425403
5.11 -0.420859
5.12 -0.415917
5.13 -0.410614
5.14 -0.404952
5.15 -0.398928
5.16 -0.392532
5.17 -0.385753
5.18 -0.378539
5.19 -0.370897
5.2 -0.362823
5.21 -0.354307
5.22 -0.345342
5.23 -0.335928
5.24 -0.326066
5.25 -0.315749
5.26 -0.305054
5.27 -0.294026
5.28 -0.282724
5.29 -0.271218
5.3 -0.259591
5.31 -0.247938
5.32 -0.236375
5.33 -0.225006
5.34 -0.213939
5.35 -0.203279
5.36 -0.193129
5.37 -0.183593
5.38 -0.174828
5.39 -0.166837
5.4 -0.159673
5.41 -0.153374
5.42 -0.147955
5.43 -0.143417
5.44 -0.139795
5.45 -0.137027
5.46 -0.135011
5.47 -0.133673
5.48 -0.132927
5.49 -0.132677
5.5 -0.132823
5.51 -0.133279
5.52 -0.133898
5.53 -0.134581
5.54 -0.135235
5.55 -0.135776
5.56 -0.136132
5.57 -0.136228
5.58 -0.136013
5.59 -0.135474
5.6 -0.134598
5.61 -0.133385
5.62 -0.131844
5.63 -0.129995
5.64 -0.127835
5.65 -0.125426
5.66 -0.122799
5.67 -0.119983
5.68 -0.117001
5.69 -0.113868
5.7 -0.110584
5.71 -0.107138
5.72 -0.103524
5.73 -0.0997109
5.74 -0.0956588
5.75 -0.091318
5.76 -0.086631
5.77 -0.081489
5.78 -0.0758509
5.79 -0.0696609
5.8 -0.0628597
5.81 -0.0553959
5.82 -0.0472294
5.83 -0.0383089
5.84 -0.028588
5.85 -0.0181415
5.86 -0.00700248
5.87 0.00477579
5.88 0.0171205
5.89 0.0299403
5.9 0.043148
5.91 0.0565839
5.92 0.0701017
5.93 0.0835602
5.94 0.0968163
5.95 0.109729
5.96 0.122152
5.97 0.133903
5.98 0.144927
5.99 0.155141
6 0.164482
6.01 0.172912
6.02 0.180419
6.03 0.186948
6.04 0.192575
6.05 0.197404
6.06 0.201519
6.07 0.205021
6.08 0.208024
6.09 0.210646
6.1 0.213
6.11 0.215245
6.12 0.217492
6.13 0.21984
6.14 0.222369
6.15 0.225139
6.16 0.228207
6.17 0.231577
6.18 0.23521
6.19 0.239057
6.2 0.243043
6.21 0.247068
6.22 0.251015
6.23 0.254704
6.24 0.257999
6.25 0.260744
6.26 0.262783
6.27 0.263966
6.28 0.264152
6.29 0.26315
6.3 0.26083
6.31 0.257189
6.32 0.25218
6.33 0.245786
6.34 0.238018
6.35 0.228919
6.36 0.218438
6.37 0.206805
6.38 0.194164
6.39 0.180662
6.4 0.166461
6.41 0.151732
6.42 0.136643
6.43 0.121389
6.44 0.106159
6.45 0.0911082
6.46 0.0763729
6.47 0.0620704
6.48 0.0482948
6.49 0.0351758
6.5 0.0227131
6.51 0.0109027
6.52 -0.000271207
6.53 -0.0108472
6.54 -0.0208846
6.55 -0.0304483
6.56 -0.0396205
6.57 -0.0485396
6.58 -0.0573084
6.59 -0.0660278
6.6 -0.0747927
6.61 -0.0836876
6.62 -0.0928047
6.63 -0.102191
6.64 -0.111869
6.65 -0.121844
6.66 -0.132102
6.67 -0.142607
6.68 -0.153303
6.69 -0.164109
6.7 -0.17491
6.71 -0.185597
6.72 -0.196048
6.73 -0.206137
6.74 -0.215736
6.75 -0.224664
6.76 -0.232802
6.77 -0.240069
6.78 -0.246367
6.79 -0.251612
6.8 -0.255739
6.81 -0.258686
6.82 -0.260301
6.83 -0.2607
6.84 -0.259889
6.85 -0.257888
6.86 -0.254728
6.87 -0.250452
6.88 -0.245046
6.89 -0.23858
6.9 -0.231168
6.91 -0.222864
6.92 -0.213718
6.93 -0.203774
6.94 -0.193069
6.95 -0.181551
6.96 -0.16932
6.97 -0.156388
6.98 -0.142753
6.99 -0.128408
7 -0.113341
7.01 -0.0974973
7.02 -0.080844
7.03 -0.0634144
7.04 -0.0451963
7.05 -0.0261841
7.06 -0.00638068
7.07 0.0142006
7.08 0.0356077
7.09 0.0577276
7.1 0.0804929
7.11 0.103832
7.12 0.12766
7.13 0.151879
7.14 0.176383
7.15 0.201042
7.16 0.225705
7.17 0.250237
7.18 0.274501
7.19 0.298361
7.2 0.321684
7.21 0.344267
7.22 0.366023
7.23 0.386859
7.24 0.40668
7.25 0.4254
7.26 0.442948
7.27 0.45923
7.28 0.474119
7.29 0.487694
7.3 0.499936
7.31 0.510836
7.32 0.520391
7.33 0.528603
7.34 0.535372
7.35 0.540768
7.36 0.544847
7.37 0.547615
7.38 0.549074
7.39 0.549222
7.4 0.548032
7.41 0.545378
7.42 0.541376
7.43 0.536005
7.44 0.529241
7.45 0.521061
7.46 0.51144
7.47 0.500256
7.48 0.487525
7.49 0.473312
7.5 0.45762
7.51 0.440468
7.52 0.421886
7.53 0.401914
7.54 0.380487
7.55 0.357844
7.56 0.334089
7.57 0.309343
7.58 0.283744
7.59 0.257446
7.6 0.230597
7.61 0.203402
7.62 0.176081
7.63 0.148826
7.64 0.121833
7.65 0.0952942
7.66 0.0693986
7.67 0.0444369
7.68 0.0205039
7.69 -0.00225477
7.7 -0.0237068
7.71 -0.0437392
7.72 -0.0622602
7.73 -0.0791225
7.74 -0.0942416
7.75 -0.107711
7.76 -0.119536
7.77 -0.129744
7.78 -0.138384
7.79 -0.145519
7.8 -0.1511
7.81 -0.155353
7.82 -0.158412
7.83 -0.16039
7.84 -0.16141
7.85 -0.161591
7.86 -0.161032
7.87 -0.159838
7.88 -0.158173
7.89 -0.156134
7.9 -0.153809
7.91 -0.151273
7.92 -0.14859
7.93 -0.145803
7.94 -0.142956
7.95 -0.140072
7.96 -0.137157
7.97 -0.13421
7.98 -0.131217
7.99 -0.128156
8 -0.124991
8.01 -0.121696
8.02 -0.118241
8.03 -0.114593
8.04 -0.110725
8.05 -0.106611
8.06 -0.102213
8.07 -0.0975294
8.08 -0.092572
8.09 -0.0873501
8.1 -0.0818837
8.11 -0.0762022
8.12 -0.0703427
8.13 -0.0643489
8.14 -0.0582956
8.15 -0.0522465
8.16 -0.0462696
8.17 -0.0404358
8.18 -0.0348166
8.19 -0.0295063
8.2 -0.0245758
8.21 -0.0200702
8.22 -0.0160416
8.23 -0.0125327
8.24 -0.00957538
8.25 -0.00719144
8.26 -0.00545107
8.27 -0.00427908
8.28 -0.00365228
8.29 -0.00353466
8.3 -0.00387817
8.31 -0.00462389
8.32 -0.00571789
8.33 -0.00707278
8.34 -0.00858671
8.35 -0.010175
8.36 -0.011753
8.37 -0.0132385
8.38 -0.0145542
8.39 -0.0155973
8.4 -0.0163277
8.41 -0.0167017
8.42 -0.016687
8.43 -0.0162657
8.44 -0.0154353
8.45 -0.0141918
8.46 -0.01256
8.47 -0.0106145
8.48 -0.00841512
8.49 -0.00603272
8.5 -0.00354785
8.51 -0.0010482
8.52 0.00135668
8.53 0.00356796
8.54 0.00549425
8.55 0.00704668
8.56 0.00814313
8.57 0.00871051
8.58 0.0086649
8.59 0.00792132
8.6 0.00649893
8.61 0.00438234
8.62 0.0015717
8.63 -0.00191757
8.64 -0.00605539
8.65 -0.0108459
8.66 -0.0161902
8.67 -0.0220022
8.68 -0.0282067
8.69 -0.0347239
8.7 -0.0414715
8.71 -0.048369
8.72 -0.0553325
8.73 -0.0622772
8.74 -0.069139
8.75 -0.0758629
8.76 -0.0824047
8.77 -0.0887319
8.78 -0.0948055
8.79 -0.100626
8.8 -0.10621
8.81 -0.111574
8.82 -0.116743
8.83 -0.121751
8.84 -0.126634
8.85 -0.131431
8.86 -0.136198
8.87 -0.140974
8.88 -0.145797
8.89 -0.150697
8.9 -0.155698
8.91 -0.160824
8.92 -0.166077
8.93 -0.171444
8.94 -0.176907
8.95 -0.182441
8.96 -0.188009
8.97 -0.193568
8.98 -0.199056
8.99 -0.204421
9 -0.209609
9.01 -0.214563
9.02 -0.219232
9.03 -0.223567
9.04 -0.227507
9.05 -0.231009
9.06 -0.234077
9.07 -0.2367
9.08 -0.238879
9.09 -0.240623
9.1 -0.241954
9.11 -0.242865
9.12 -0.243438
9.13 -0.243723
9.14 -0.243769
9.15 -0.243632
9.16 -0.243362
9.17 -0.243009
9.18 -0.242625
9.19 -0.242254
9.2 -0.241925
9.21 -0.241661
9.22 -0.24147
9.23 -0.241355
9.24 -0.241309
9.25 -0.241302
9.26 -0.241303
9.27 -0.241272
9.28 -0.241166
9.29 -0.240935
9.3 -0.240523
9.31 -0.239862
9.32 -0.238924
9.33 -0.237669
9.34 -0.236066
9.35 -0.234092
9.36 -0.231734
9.37 -0.22896
9.38 -0.225804
9.39 -0.222302
9.4 -0.218488
9.41 -0.214408
9.42 -0.210112
9.43 -0.205655
9.44 -0.201099
9.45 -0.196516
9.46 -0.191966
9.47 -0.187501
9.48 -0.183166
9.49 -0.178994
9.5 -0.175023
9.51 -0.171257
9.52 -0.167675
9.53 -0.164254
9.54 -0.160954
9.55 -0.15772
9.56 -0.154483
9.57 -0.151145
9.58 -0.147617
9.59 -0.143803
9.6 -0.139603
9.61 -0.134917
9.62 -0.12965
9.63 -0.123663
9.64 -0.116872
9.65 -0.109248
9.66 -0.100742
9.67 -0.0913195
9.68 -0.0809653
9.69 -0.0696819
9.7 -0.0573901
9.71 -0.0442394
9.72 -0.0302916
9.73 -0.0156216
9.74 -0.000316546
9.75 0.0155263
9.76 0.031819
9.77 0.0484412
9.78 0.0652564
9.79 0.0821582
9.8 0.0990457
9.81 0.115826
9.82 0.132415
9.83 0.148709
9.84 0.164668
9.85 0.180253
9.86 0.195437
9.87 0.210201
9.88 0.224542
9.89 0.238446
9.9 0.251914
9.91 0.264996
9.92 0.277715
9.93 0.290092
9.94 0.302145
9.95 0.313889
9.96 0.325306
9.97 0.336414
9.98 0.347208
9.99 0.357667
10 0.36776
10.01 0.377445
10.02 0.386659
10.03 0.395305
10.04 0.403363
10.05 0.410767
10.06 0.417455
10.07 0.423365
10.08 0.428441
10.09 0.432563
10.1 0.435735
10.11 0.437967
10.12 0.439259
10.13 0.439622
10.14 0.439088
10.15 0.437689
10.16 0.435437
10.17 0.432498
10.18 0.428969
10.19 0.424956
10.2 0.420574
10.21 0.415944
10.22 0.411188
10.23 0.406443
10.24 0.401828
10.25 0.397446
10.26 0.393387
10.27 0.389727
10.28 0.386528
10.29 0.383882
10.3 0.381752
10.31 0.380133
10.32 0.378997
10.33 0.3783
10.34 0.377978
10.35 0.377967
10.36 0.378156
10.37 0.378428
10.38 0.378671
10.39 0.378773
10.4 0.378622
10.41 0.378109
10.42 0.377066
10.43 0.375445
10.44 0.373167
10.45 0.370168
10.46 0.366394
10.47 0.36181
10.48 0.356354
10.49 0.350004
10.5 0.34283
10.51 0.334854
10.52 0.326111
10.53 0.316644
10.54 0.306501
10.55 0.295679
10.56 0.284294
10.57 0.27241
10.58 0.26008
10.59 0.247353
10.6 0.234274
10.61 0.220869
10.62 0.207163
10.63 0.193203
10.64 0.179006
10.65 0.164586
10.66 0.14995
10.67 0.135103
10.68 0.120028
10.69 0.104743
10.7 0.0892582
10.71 0.0735799
10.72 0.0577197
10.73 0.0416942
10.74 0.0255223
10.75 0.0092291
10.76 -0.00713713
10.77 -0.0235353
10.78 -0.0399195
10.79 -0.0562401
10.8 -0.0724453
10.81 -0.0884645
10.82 -0.104246
10.83 -0.119749
10.84 -0.134928
10.85 -0.149746
10.86 -0.164174
10.87 -0.178183
10.88 -0.191726
10.89 -0.204845
10.9 -0.217553
10.91 -0.22987
10.92 -0.241825
10.93 -0.253456
10.94 -0.26479
10.95 -0.275886
10.96 -0.286807
10.97 -0.297601
10.98 -0.308312
10.99 -0.31898
11 -0.329636
11.01 -0.340304
11.02 -0.350992
11.03 -0.361695
11.04 -0.372395
11.05 -0.383058
11.06 -0.39364
11.07 -0.404069
11.08 -0.414265
11.09 -0.424155
11.1 -0.433651
11.11 -0.442661
11.12 -0.451091
11.13 -0.458846
11.14 -0.465746
11.15 -0.471777
11.16 -0.476875
11.17 -0.48098
11.18 -0.484044
11.19 -0.486036
11.2 -0.486888
11.21 -0.486577
11.22 -0.485197
11.23 -0.482783
11.24 -0.479381
11.25 -0.475049
11.26 -0.469855
11.27 -0.463801
11.28 -0.45704
11.29 -0.449665
11.3 -0.441754
11.31 -0.43338
11.32 -0.42461
11.33 -0.415492
11.34 -0.406065
11.35 -0.396388
11.36 -0.386482
11.37 -0.376357
11.38 -0.366008
11.39 -0.355423
11.4 -0.344554
11.41 -0.33338
11.42 -0.321875
11.43 -0.309999
11.44 -0.297717
11.45 -0.284994
11.46 -0.27179
11.47 -0.258051
11.48 -0.243813
11.49 -0.229082
11.5 -0.213876
11.51 -0.198227
11.52 -0.182182
11.53 -0.165781
11.54 -0.149119
11.55 -0.132296
11.56 -0.115407
11.57 -0.0985527
11.58 -0.0818373
11.59 -0.0653716
11.6 -0.0493031
11.61 -0.0337015
11.62 -0.0186559
11.63 -0.00424462
11.64 0.00946632
11.65 0.0224251
11.66 0.0345418
11.67 0.0458075
11.68 0.0562627
11.69 0.065923
11.7 0.0748184
11.71 0.0829918
11.72 0.0904957
11.73 0.0973326
11.74 0.103648
11.75 0.109514
11.76 0.115004
11.77 0.120188
11.78 0.12513
11.79 0.12988
11.8 0.134491
11.81 0.139006
11.82 0.143448
11.83 0.147824
11.84 0.15213
11.85 0.156349
11.86 0.160435
11.87 0.164355
11.88 0.168062
11.89 0.1715
11.9 0.174611
11.91 0.177333
11.92 0.179585
11.93 0.181288
11.94 0.182424
11.95 0.182951
11.96 0.182833
11.97 0.182045
11.98 0.180571
11.99 0.178337
12 0.175403
12.01 0.171796
12.02 0.167538
12.03 0.162655
12.04 0.15718
12.05 0.151127
12.06 0.144509
12.07 0.137403
12.08 0.129837
12.09 0.121832
12.1 0.113406
12.11 0.104566
12.12 0.095277
12.13 0.0855537
12.14 0.075393
12.15 0.0647736
12.16 0.0536697
12.17 0.0420529
