# xPDFsuite Configuration #
[PDF]
wavelength = 0.1
dataformat = QA
inputfile = BiMsol6_insitu_700 C-00134.xy
backgroundfile = Quartz2mm-dist500-00000.xy
mode = xray
bgscale = 0.0042
composition = Bi2Fe4O9
outputtype = gr
qmaxinst = 24.998449118
qmin = 0.1
qmax = 21.4986662415
rmax = 80.0
rmin = 0.0
rstep = 0.01
rpoly = 0.9

[Misc]
inputdir = C:/Data/Seafile/CPH/Beamtime/Desy Oct 20/In situ data/Processed/BiMsol6/PDF
savedir = C:/Data/Seafile/CPH/Beamtime/Desy Oct 20/In situ data/PDF/BiMsol6
backgroundfilefull = C:/Data/Seafile/CPH/Beamtime/Desy Oct 20/In situ data/Processed/Standard_Empty_Cap/Quartz2mm-dist500-00000.xy

#### start data
#S 1
#L r($\AA$)  G($\AA^{-2}$)
0 0
0.01 0.00593115
0.02 0.0115247
0.03 0.0164918
0.04 0.0205736
0.05 0.0235532
0.06 0.025266
0.07 0.0255324
0.08 0.0243022
0.09 0.0217113
0.1 0.0178724
0.11 0.0129591
0.12 0.00719791
0.13 0.000858285
0.14 -0.00575511
0.15 -0.0122653
0.16 -0.0183538
0.17 -0.0237225
0.18 -0.0281056
0.19 -0.0312828
0.2 -0.0330287
0.21 -0.0331934
0.22 -0.031877
0.23 -0.0291499
0.24 -0.0251562
0.25 -0.0201087
0.26 -0.0142809
0.27 -0.00798737
0.28 -0.00166569
0.29 0.00429436
0.3 0.00951534
0.31 0.0136408
0.32 0.0163531
0.33 0.0173321
0.34 0.0162685
0.35 0.0132281
0.36 0.00822379
0.37 0.00136826
0.38 -0.00712486
0.39 -0.0169444
0.4 -0.0277252
0.41 -0.038867
0.42 -0.0497833
0.43 -0.0598778
0.44 -0.0685365
0.45 -0.0751515
0.46 -0.0790814
0.47 -0.0794992
0.48 -0.0762477
0.49 -0.0690076
0.5 -0.0575798
0.51 -0.0418989
0.52 -0.0220418
0.53 0.00202638
0.54 0.0297466
0.55 0.0603969
0.56 0.0933036
0.57 0.127685
0.58 0.162675
0.59 0.197329
0.6 0.230437
0.61 0.26109
0.62 0.288356
0.63 0.311369
0.64 0.329355
0.65 0.341658
0.66 0.347354
0.67 0.346097
0.68 0.338095
0.69 0.323389
0.7 0.302202
0.71 0.27493
0.72 0.242131
0.73 0.204059
0.74 0.162187
0.75 0.117485
0.76 0.070977
0.77 0.0237183
0.78 -0.0232326
0.79 -0.0687271
0.8 -0.111625
0.81 -0.151176
0.82 -0.186646
0.83 -0.217442
0.84 -0.243125
0.85 -0.263418
0.86 -0.277648
0.87 -0.286405
0.88 -0.29002
0.89 -0.288897
0.9 -0.283559
0.91 -0.274637
0.92 -0.262758
0.93 -0.248716
0.94 -0.233513
0.95 -0.217928
0.96 -0.202703
0.97 -0.188523
0.98 -0.175989
0.99 -0.165842
1 -0.158353
1.01 -0.153704
1.02 -0.152007
1.03 -0.153251
1.04 -0.15731
1.05 -0.164011
1.06 -0.173109
1.07 -0.18396
1.08 -0.196093
1.09 -0.20901
1.1 -0.222204
1.11 -0.235178
1.12 -0.247382
1.13 -0.258388
1.14 -0.267897
1.15 -0.275657
1.16 -0.281506
1.17 -0.28537
1.18 -0.287231
1.19 -0.287056
1.2 -0.285237
1.21 -0.282032
1.22 -0.277749
1.23 -0.272727
1.24 -0.267326
1.25 -0.261926
1.26 -0.256915
1.27 -0.252589
1.28 -0.2492
1.29 -0.24694
1.3 -0.245932
1.31 -0.24624
1.32 -0.247969
1.33 -0.250864
1.34 -0.254754
1.35 -0.259412
1.36 -0.264568
1.37 -0.26992
1.38 -0.275125
1.39 -0.279816
1.4 -0.283704
1.41 -0.286524
1.42 -0.288052
1.43 -0.288124
1.44 -0.286637
1.45 -0.283385
1.46 -0.278595
1.47 -0.272405
1.48 -0.265013
1.49 -0.256671
1.5 -0.247685
1.51 -0.238396
1.52 -0.229225
1.53 -0.220556
1.54 -0.212746
1.55 -0.206121
1.56 -0.200967
1.57 -0.197514
1.58 -0.196124
1.59 -0.196722
1.6 -0.199266
1.61 -0.203661
1.62 -0.209735
1.63 -0.217238
1.64 -0.22588
1.65 -0.235265
1.66 -0.244884
1.67 -0.254289
1.68 -0.263028
1.69 -0.270656
1.7 -0.276754
1.71 -0.280745
1.72 -0.282401
1.73 -0.281543
1.74 -0.278019
1.75 -0.271765
1.76 -0.262804
1.77 -0.251184
1.78 -0.236983
1.79 -0.22073
1.8 -0.202782
1.81 -0.183552
1.82 -0.163488
1.83 -0.143059
1.84 -0.122787
1.85 -0.103189
1.86 -0.0846821
1.87 -0.0676446
1.88 -0.0523947
1.89 -0.0391807
1.9 -0.0282081
1.91 -0.019768
1.92 -0.0136145
1.93 -0.00964983
1.94 -0.00770151
1.95 -0.00753064
1.96 -0.00884264
1.97 -0.0113516
1.98 -0.0146143
1.99 -0.0181969
2 -0.021727
2.01 -0.0248541
2.02 -0.0272641
2.03 -0.0286874
2.04 -0.028771
2.05 -0.0275141
2.06 -0.0248731
2.07 -0.02088
2.08 -0.0156413
2.09 -0.00933404
2.1 -0.00216941
2.11 0.00550691
2.12 0.0133004
2.13 0.0208388
2.14 0.0277388
2.15 0.0336207
2.16 0.038123
2.17 0.0406977
2.18 0.0412174
2.19 0.0394847
2.2 0.0353565
2.21 0.0287625
2.22 0.0197087
2.23 0.00817692
2.24 -0.00570044
2.25 -0.0215109
2.26 -0.0389518
2.27 -0.0576722
2.28 -0.077284
2.29 -0.0973749
2.3 -0.117486
2.31 -0.13715
2.32 -0.155973
2.33 -0.173593
2.34 -0.189696
2.35 -0.204018
2.36 -0.216286
2.37 -0.226254
2.38 -0.234042
2.39 -0.239671
2.4 -0.243229
2.41 -0.244863
2.42 -0.244775
2.43 -0.243106
2.44 -0.240261
2.45 -0.236591
2.46 -0.232411
2.47 -0.228034
2.48 -0.223761
2.49 -0.219882
2.5 -0.21671
2.51 -0.214397
2.52 -0.213086
2.53 -0.212872
2.54 -0.213799
2.55 -0.215861
2.56 -0.219078
2.57 -0.223296
2.58 -0.228329
2.59 -0.234005
2.6 -0.240135
2.61 -0.246514
2.62 -0.252937
2.63 -0.259165
2.64 -0.265014
2.65 -0.270322
2.66 -0.274956
2.67 -0.278809
2.68 -0.28181
2.69 -0.283863
2.7 -0.284981
2.71 -0.285245
2.72 -0.284719
2.73 -0.283488
2.74 -0.281656
2.75 -0.279339
2.76 -0.276631
2.77 -0.273706
2.78 -0.270677
2.79 -0.267643
2.8 -0.264688
2.81 -0.261875
2.82 -0.259255
2.83 -0.256846
2.84 -0.254621
2.85 -0.252546
2.86 -0.250565
2.87 -0.248608
2.88 -0.246592
2.89 -0.244399
2.9 -0.241941
2.91 -0.239129
2.92 -0.235883
2.93 -0.232133
2.94 -0.227826
2.95 -0.222902
2.96 -0.217329
2.97 -0.211166
2.98 -0.204449
2.99 -0.197232
3 -0.189589
3.01 -0.181608
3.02 -0.173374
3.03 -0.165023
3.04 -0.156665
3.05 -0.148402
3.06 -0.140328
3.07 -0.132521
3.08 -0.125057
3.09 -0.118
3.1 -0.111337
3.11 -0.105056
3.12 -0.0991254
3.13 -0.0934875
3.14 -0.0880651
3.15 -0.0827627
3.16 -0.0774468
3.17 -0.07199
3.18 -0.0662634
3.19 -0.060138
3.2 -0.0534892
3.21 -0.0461865
3.22 -0.0380614
3.23 -0.029099
3.24 -0.0192419
3.25 -0.00845618
3.26 0.00326742
3.27 0.0159134
3.28 0.0295023
3.29 0.0439322
3.3 0.0590771
3.31 0.0748325
3.32 0.0910813
3.33 0.107698
3.34 0.124553
3.35 0.141512
3.36 0.158429
3.37 0.17519
3.38 0.191692
3.39 0.207851
3.4 0.223596
3.41 0.238848
3.42 0.253575
3.43 0.267797
3.44 0.281522
3.45 0.294775
3.46 0.30759
3.47 0.320014
3.48 0.332063
3.49 0.343836
3.5 0.355381
3.51 0.366744
3.52 0.377958
3.53 0.389047
3.54 0.400013
3.55 0.410844
3.56 0.421519
3.57 0.431993
3.58 0.442206
3.59 0.452081
3.6 0.461531
3.61 0.470393
3.62 0.478597
3.63 0.486041
3.64 0.492615
3.65 0.498216
3.66 0.502745
3.67 0.506066
3.68 0.508051
3.69 0.508736
3.7 0.508086
3.71 0.506083
3.72 0.502729
3.73 0.498045
3.74 0.491956
3.75 0.48462
3.76 0.476143
3.77 0.466616
3.78 0.456141
3.79 0.444825
3.8 0.432767
3.81 0.420065
3.82 0.406899
3.83 0.393383
3.84 0.379627
3.85 0.365736
3.86 0.351805
3.87 0.337932
3.88 0.324198
3.89 0.310666
3.9 0.29739
3.91 0.284413
3.92 0.271768
3.93 0.259489
3.94 0.247624
3.95 0.236145
3.96 0.225054
3.97 0.214347
3.98 0.204018
3.99 0.194054
4 0.184464
4.01 0.175218
4.02 0.16628
4.03 0.157627
4.04 0.149235
4.05 0.141076
4.06 0.133125
4.07 0.125368
4.08 0.117752
4.09 0.110246
4.1 0.102822
4.11 0.0954478
4.12 0.0880965
4.13 0.0807399
4.14 0.0733516
4.15 0.0659139
4.16 0.0584136
4.17 0.0508431
4.18 0.0432014
4.19 0.0354943
4.2 0.0277317
4.21 0.0199436
4.22 0.0121604
4.23 0.00441907
4.24 -0.00323714
4.25 -0.0107601
4.26 -0.0180859
4.27 -0.0251478
4.28 -0.0319045
4.29 -0.0383033
4.3 -0.0442957
4.31 -0.0498387
4.32 -0.0548965
4.33 -0.0593888
4.34 -0.0633446
4.35 -0.0667703
4.36 -0.069677
4.37 -0.0720882
4.38 -0.0740394
4.39 -0.0755642
4.4 -0.0767149
4.41 -0.0775912
4.42 -0.0782673
4.43 -0.078821
4.44 -0.0793315
4.45 -0.0798766
4.46 -0.0805465
4.47 -0.081408
4.48 -0.0825139
4.49 -0.0839085
4.5 -0.0856228
4.51 -0.0876739
4.52 -0.0900725
4.53 -0.0928223
4.54 -0.0958613
4.55 -0.0991443
4.56 -0.102615
4.57 -0.106205
4.58 -0.109843
4.59 -0.113439
4.6 -0.116903
4.61 -0.120159
4.62 -0.123132
4.63 -0.125755
4.64 -0.127973
4.65 -0.129731
4.66 -0.130957
4.67 -0.131683
4.68 -0.131913
4.69 -0.131664
4.7 -0.13097
4.71 -0.129876
4.72 -0.128421
4.73 -0.12669
4.74 -0.124775
4.75 -0.122756
4.76 -0.120711
4.77 -0.118721
4.78 -0.116859
4.79 -0.115221
4.8 -0.113845
4.81 -0.112778
4.82 -0.112049
4.83 -0.11168
4.84 -0.111675
4.85 -0.112051
4.86 -0.112784
4.87 -0.113824
4.88 -0.115132
4.89 -0.116665
4.9 -0.118374
4.91 -0.12021
4.92 -0.122127
4.93 -0.124067
4.94 -0.12599
4.95 -0.127862
4.96 -0.129656
4.97 -0.131355
4.98 -0.132943
4.99 -0.134417
5 -0.135793
5.01 -0.137084
5.02 -0.138308
5.03 -0.139487
5.04 -0.140644
5.05 -0.141802
5.06 -0.142981
5.07 -0.144196
5.08 -0.145454
5.09 -0.146757
5.1 -0.148097
5.11 -0.14946
5.12 -0.15082
5.13 -0.152145
5.14 -0.153398
5.15 -0.154539
5.16 -0.155525
5.17 -0.156315
5.18 -0.156844
5.19 -0.157086
5.2 -0.15702
5.21 -0.156629
5.22 -0.155902
5.23 -0.154843
5.24 -0.153458
5.25 -0.151758
5.26 -0.149813
5.27 -0.147674
5.28 -0.1454
5.29 -0.143057
5.3 -0.140713
5.31 -0.138451
5.32 -0.136344
5.33 -0.134453
5.34 -0.132831
5.35 -0.13152
5.36 -0.13055
5.37 -0.129941
5.38 -0.12972
5.39 -0.129825
5.4 -0.130218
5.41 -0.130841
5.42 -0.131625
5.43 -0.132488
5.44 -0.133332
5.45 -0.134045
5.46 -0.13453
5.47 -0.134692
5.48 -0.134441
5.49 -0.133699
5.5 -0.132402
5.51 -0.130429
5.52 -0.127823
5.53 -0.124584
5.54 -0.120733
5.55 -0.116311
5.56 -0.111384
5.57 -0.106017
5.58 -0.100324
5.59 -0.0944478
5.6 -0.0885108
5.61 -0.0826408
5.62 -0.076964
5.63 -0.071601
5.64 -0.0667178
5.65 -0.0623737
5.66 -0.0586351
5.67 -0.0555497
5.68 -0.0531401
5.69 -0.0514029
5.7 -0.0503336
5.71 -0.0498811
5.72 -0.0499123
5.73 -0.0503199
5.74 -0.0509796
5.75 -0.0517548
5.76 -0.0525011
5.77 -0.0530408
5.78 -0.0532295
5.79 -0.0529401
5.8 -0.0520576
5.81 -0.0504867
5.82 -0.0481565
5.83 -0.0449958
5.84 -0.0409507
5.85 -0.0361135
5.86 -0.0305383
5.87 -0.0243076
5.88 -0.01753
5.89 -0.0103358
5.9 -0.00286439
5.91 0.00468728
5.92 0.0121437
5.93 0.0193384
5.94 0.0261123
5.95 0.0323198
5.96 0.0378167
5.97 0.0424322
5.98 0.0461681
5.99 0.0489901
6 0.0508972
6.01 0.0519221
6.02 0.0521306
6.03 0.0515756
6.04 0.0504267
6.05 0.0488675
6.06 0.0470685
6.07 0.0452109
6.08 0.0434799
6.09 0.042064
6.1 0.0412024
6.11 0.0410109
6.12 0.0416186
6.13 0.0431269
6.14 0.0456049
6.15 0.0490868
6.16 0.0536321
6.17 0.0591793
6.18 0.0655907
6.19 0.0727494
6.2 0.0805097
6.21 0.0887018
6.22 0.0971374
6.23 0.105597
6.24 0.113852
6.25 0.1217
6.26 0.128949
6.27 0.135427
6.28 0.14098
6.29 0.145427
6.3 0.148654
6.31 0.150683
6.32 0.151506
6.33 0.151149
6.34 0.149678
6.35 0.147187
6.36 0.143726
6.37 0.13955
6.38 0.134844
6.39 0.129794
6.4 0.124593
6.41 0.119429
6.42 0.114503
6.43 0.110015
6.44 0.106088
6.45 0.102838
6.46 0.100351
6.47 0.09868
6.48 0.0978473
6.49 0.0979144
6.5 0.0987666
6.51 0.100304
6.52 0.102419
6.53 0.104983
6.54 0.107854
6.55 0.110875
6.56 0.113865
6.57 0.116659
6.58 0.119108
6.59 0.12108
6.6 0.12246
6.61 0.123155
6.62 0.123032
6.63 0.12209
6.64 0.120349
6.65 0.117836
6.66 0.114602
6.67 0.11072
6.68 0.106279
6.69 0.101375
6.7 0.0961863
6.71 0.090848
6.72 0.0854954
6.73 0.08026
6.74 0.075265
6.75 0.0706534
6.76 0.0665193
6.77 0.0629151
6.78 0.0598874
6.79 0.0574596
6.8 0.0556318
6.81 0.0543859
6.82 0.0537242
6.83 0.0535172
6.84 0.0536831
6.85 0.0541286
6.86 0.054753
6.87 0.0554525
6.88 0.0561161
6.89 0.0566318
6.9 0.0569156
6.91 0.0568933
6.92 0.0565058
6.93 0.0557112
6.94 0.0544852
6.95 0.0527737
6.96 0.0506424
6.97 0.0481262
6.98 0.0452735
6.99 0.0421448
7 0.0388098
7.01 0.0353423
7.02 0.0318321
7.03 0.0283646
7.04 0.0250125
7.05 0.0218412
7.06 0.0189055
7.07 0.0162484
7.08 0.0139323
7.09 0.0119428
7.1 0.0102714
7.11 0.00889923
7.12 0.00779473
7.13 0.00691475
7.14 0.00621119
7.15 0.00562022
7.16 0.00506554
7.17 0.00448337
7.18 0.00381267
7.19 0.0029979
7.2 0.00199154
7.21 0.00073276
7.22 -0.000788972
7.23 -0.00257615
7.24 -0.00462309
7.25 -0.00691026
7.26 -0.00940482
7.27 -0.0120647
7.28 -0.0148324
7.29 -0.0176288
7.3 -0.020383
7.31 -0.0230223
7.32 -0.0254741
7.33 -0.0276692
7.34 -0.0295143
7.35 -0.030964
7.36 -0.03199
7.37 -0.0325652
7.38 -0.0326771
7.39 -0.0323278
7.4 -0.0315279
7.41 -0.0302811
7.42 -0.0286812
7.43 -0.0267895
7.44 -0.0246773
7.45 -0.0224233
7.46 -0.0201113
7.47 -0.0178355
7.48 -0.0156923
7.49 -0.0137602
7.5 -0.0121129
7.51 -0.0108148
7.52 -0.00991934
7.53 -0.00947005
7.54 -0.00954465
7.55 -0.0101011
7.56 -0.0111329
7.57 -0.0126191
7.58 -0.0145256
7.59 -0.0168063
7.6 -0.0194193
7.61 -0.0222887
7.62 -0.0253245
7.63 -0.028452
7.64 -0.031596
7.65 -0.0346832
7.66 -0.0376446
7.67 -0.0403902
7.68 -0.0428821
7.69 -0.0450794
7.7 -0.0469509
7.71 -0.0484773
7.72 -0.0496509
7.73 -0.0504598
7.74 -0.0509156
7.75 -0.0510702
7.76 -0.0509596
7.77 -0.0506269
7.78 -0.0501202
7.79 -0.0494911
7.8 -0.0487907
7.81 -0.0480825
7.82 -0.0474166
7.83 -0.0468375
7.84 -0.0463838
7.85 -0.0460868
7.86 -0.0459773
7.87 -0.0460793
7.88 -0.0463812
7.89 -0.0468774
7.9 -0.0475534
7.91 -0.0483869
7.92 -0.0493484
7.93 -0.0504071
7.94 -0.0515113
7.95 -0.052614
7.96 -0.0536694
7.97 -0.0546314
7.98 -0.0554554
7.99 -0.0560938
8 -0.05649
8.01 -0.0566304
8.02 -0.0564904
8.03 -0.0560527
8.04 -0.0553078
8.05 -0.0542542
8.06 -0.0528759
8.07 -0.0512031
8.08 -0.0492716
8.09 -0.047113
8.1 -0.0447646
8.11 -0.0422694
8.12 -0.039674
8.13 -0.0370309
8.14 -0.034402
8.15 -0.0318404
8.16 -0.029398
8.17 -0.0271249
8.18 -0.0250675
8.19 -0.0232881
8.2 -0.0218231
8.21 -0.0206879
8.22 -0.0199036
8.23 -0.0194835
8.24 -0.0194326
8.25 -0.0197488
8.26 -0.0204569
8.27 -0.0214932
8.28 -0.0228276
8.29 -0.0244229
8.3 -0.0262356
8.31 -0.0282165
8.32 -0.0303154
8.33 -0.0324667
8.34 -0.034605
8.35 -0.0366712
8.36 -0.0386072
8.37 -0.0403574
8.38 -0.0418699
8.39 -0.0430623
8.4 -0.0439196
8.41 -0.0444126
8.42 -0.0445173
8.43 -0.0442187
8.44 -0.0435103
8.45 -0.042377
8.46 -0.0408228
8.47 -0.038899
8.48 -0.0366357
8.49 -0.0340697
8.5 -0.0312436
8.51 -0.0282048
8.52 -0.0249933
8.53 -0.0216808
8.54 -0.0183234
8.55 -0.0149731
8.56 -0.0116791
8.57 -0.00848721
8.58 -0.0054441
8.59 -0.00259717
8.6 3.97419e-05
8.61 0.00244761
8.62 0.00461485
8.63 0.0065373
8.64 0.00821791
8.65 0.00964747
8.66 0.0108578
8.67 0.0118776
8.68 0.0127327
8.69 0.013451
8.7 0.0140623
8.71 0.0145952
8.72 0.0150785
8.73 0.0155447
8.74 0.0160165
8.75 0.0165122
8.76 0.0170455
8.77 0.0176251
8.78 0.0182583
8.79 0.0189406
8.8 0.0196625
8.81 0.0204123
8.82 0.0211749
8.83 0.021933
8.84 0.022667
8.85 0.0233513
8.86 0.0239701
8.87 0.0245072
8.88 0.0249487
8.89 0.0252845
8.9 0.025509
8.91 0.0256137
8.92 0.0256053
8.93 0.0254996
8.94 0.0253109
8.95 0.0250579
8.96 0.0247623
8.97 0.0244484
8.98 0.0241457
8.99 0.0238817
9 0.023681
9.01 0.023566
9.02 0.0235556
9.03 0.0236644
9.04 0.023909
9.05 0.0242938
9.06 0.0248063
9.07 0.0254359
9.08 0.0261657
9.09 0.0269734
9.1 0.0278315
9.11 0.0287067
9.12 0.0295591
9.13 0.0303519
9.14 0.0310493
9.15 0.0316166
9.16 0.0320222
9.17 0.0322299
9.18 0.0322094
9.19 0.0319619
9.2 0.0314823
9.21 0.0307734
9.22 0.0298462
9.23 0.0287199
9.24 0.0274085
9.25 0.0259637
9.26 0.0244305
9.27 0.0228543
9.28 0.0212833
9.29 0.0197669
9.3 0.0183584
9.31 0.0171176
9.32 0.0160754
9.33 0.0152658
9.34 0.0147153
9.35 0.0144417
9.36 0.0144532
9.37 0.0147709
9.38 0.0153648
9.39 0.0162008
9.4 0.0172453
9.41 0.0184563
9.42 0.0197851
9.43 0.0211776
9.44 0.0225692
9.45 0.0238958
9.46 0.0250995
9.47 0.0261258
9.48 0.0269248
9.49 0.0274539
9.5 0.0276544
9.51 0.0275092
9.52 0.0270206
9.53 0.0261893
9.54 0.0250272
9.55 0.0235572
9.56 0.0218109
9.57 0.019815
9.58 0.0176514
9.59 0.0153791
9.6 0.013061
9.61 0.0107622
9.62 0.0085472
9.63 0.00649122
9.64 0.00465868
9.65 0.00309035
9.66 0.00182688
9.67 0.000899047
9.68 0.000326737
9.69 0.000118298
9.7 0.000310162
9.71 0.000842477
9.72 0.00168557
9.73 0.00280052
9.74 0.00413995
9.75 0.00564963
9.76 0.00727266
9.77 0.0089379
9.78 0.0105759
9.79 0.0121255
9.8 0.0135299
9.81 0.0147378
9.82 0.0157055
9.83 0.0163669
9.84 0.016722
9.85 0.0167637
9.86 0.0164923
9.87 0.0159196
9.88 0.0150679
9.89 0.0139614
9.9 0.0126405
9.91 0.0111737
9.92 0.00961599
9.93 0.00802573
9.94 0.00646235
9.95 0.00498457
9.96 0.00366648
9.97 0.00255447
9.98 0.00168797
9.99 0.00110177
10 0.000821326
10.01 0.000862012
10.02 0.00123793
10.03 0.00195958
10.04 0.00297893
10.05 0.00426688
10.06 0.00578553
10.07 0.00748939
10.08 0.00932685
10.09 0.0112431
10.1 0.0131679
10.11 0.0150389
10.12 0.0167982
10.13 0.0183906
10.14 0.0197662
10.15 0.0208757
10.16 0.0216558
10.17 0.0221082
10.18 0.0222176
10.19 0.021979
10.2 0.0213972
10.21 0.0204869
10.22 0.0192528
10.23 0.017741
10.24 0.0160071
10.25 0.0140989
10.26 0.0120684
10.27 0.0099705
10.28 0.00786169
10.29 0.0058088
10.3 0.00386468
10.31 0.0020782
10.32 0.000492905
10.33 -0.000854179
10.34 -0.00193352
10.35 -0.00270574
10.36 -0.00315877
10.37 -0.00330845
10.38 -0.00316298
10.39 -0.00273927
10.4 -0.00206241
10.41 -0.00116485
10.42 -6.99991e-05
10.43 0.00115305
10.44 0.00245456
10.45 0.00378331
10.46 0.00508732
10.47 0.00631531
10.48 0.00740959
10.49 0.00831506
10.5 0.00900139
10.51 0.00943537
10.52 0.00959084
10.53 0.00944945
10.54 0.00900112
10.55 0.00821363
10.56 0.00712325
10.57 0.0057525
10.58 0.00412702
10.59 0.00227966
10.6 0.000249513
10.61 -0.00192231
10.62 -0.00418381
10.63 -0.00647296
10.64 -0.00873707
10.65 -0.0109239
10.66 -0.0129831
10.67 -0.0148675
10.68 -0.016511
10.69 -0.0178873
10.7 -0.0189739
10.71 -0.0197498
10.72 -0.0202024
10.73 -0.0203276
10.74 -0.0201216
10.75 -0.0195806
10.76 -0.0187568
10.77 -0.0176808
10.78 -0.0163896
10.79 -0.0149254
10.8 -0.0133348
10.81 -0.011665
10.82 -0.00997705
10.83 -0.00832396
10.84 -0.00675442
10.85 -0.00531393
10.86 -0.00404348
10.87 -0.00298221
10.88 -0.00218176
10.89 -0.00163998
10.9 -0.00136818
10.91 -0.00136946
10.92 -0.00163871
10.93 -0.00216284
10.94 -0.00293546
10.95 -0.00391956
10.96 -0.00506947
10.97 -0.00634631
10.98 -0.00770815
10.99 -0.00911128
11 -0.0105114
11.01 -0.0118555
11.02 -0.0131051
11.03 -0.0142243
11.04 -0.015182
11.05 -0.0159531
11.06 -0.0165189
11.07 -0.0168548
11.08 -0.0169562
11.09 -0.0168403
11.1 -0.0165183
11.11 -0.016007
11.12 -0.0153287
11.13 -0.0145099
11.14 -0.0135718
11.15 -0.0125609
11.16 -0.0115104
11.17 -0.0104518
11.18 -0.00941479
11.19 -0.00842575
11.2 -0.00751122
11.21 -0.00669268
11.22 -0.00597548
11.23 -0.00536437
11.24 -0.00485831
11.25 -0.0044506
11.26 -0.00412938
11.27 -0.00388315
11.28 -0.00368326
11.29 -0.00350514
11.3 -0.00332421
11.31 -0.0031158
11.32 -0.00285645
11.33 -0.00252177
11.34 -0.00208804
11.35 -0.00154953
11.36 -0.000899746
11.37 -0.000138099
11.38 0.000729768
11.39 0.00169196
11.4 0.00273513
11.41 0.00382737
11.42 0.00493698
11.43 0.00603073
11.44 0.00707296
11.45 0.0080268
11.46 0.00885165
11.47 0.00949727
11.48 0.009945
11.49 0.0101687
11.5 0.0101482
11.51 0.00987018
11.52 0.00932896
11.53 0.00850782
11.54 0.00743039
11.55 0.00612859
11.56 0.00463181
11.57 0.00297652
11.58 0.00120527
11.59 -0.000634667
11.6 -0.00248737
11.61 -0.00429373
11.62 -0.00600108
11.63 -0.00755877
11.64 -0.00891982
11.65 -0.0100425
11.66 -0.0108716
11.67 -0.0113817
11.68 -0.011571
11.69 -0.0114335
11.7 -0.0109731
11.71 -0.0102035
11.72 -0.00914748
11.73 -0.00781327
11.74 -0.0062751
11.75 -0.00458114
11.76 -0.00278418
11.77 -0.000939986
11.78 0.000894485
11.79 0.00265616
11.8 0.00428266
11.81 0.00573049
