# xPDFsuite Configuration #
[PDF]
wavelength = 0.1
dataformat = QA
inputfile = BiMsol6_insitu_700 C-00364.xy
backgroundfile = Quartz2mm-dist500-00000.xy
mode = xray
bgscale = 0.0042
composition = Bi2Fe4O9
outputtype = gr
qmaxinst = 24.998449118
qmin = 0.1
qmax = 21.4986662415
rmax = 80.0
rmin = 0.0
rstep = 0.01
rpoly = 0.9

[Misc]
inputdir = C:/Data/Seafile/CPH/Beamtime/Desy Oct 20/In situ data/Processed/BiMsol6/PDF
savedir = C:/Data/Seafile/CPH/Beamtime/Desy Oct 20/In situ data/PDF/BiMsol6
backgroundfilefull = C:/Data/Seafile/CPH/Beamtime/Desy Oct 20/In situ data/Processed/Standard_Empty_Cap/Quartz2mm-dist500-00000.xy

#### start data
#S 1
#L r($\AA$)  G($\AA^{-2}$)
0 0
0.01 0.00643708
0.02 0.0125114
0.03 0.0179123
0.04 0.0223613
0.05 0.0256242
0.06 0.0275226
0.07 0.0278612
0.08 0.0265827
0.09 0.0238303
0.1 0.0197217
0.11 0.0144398
0.12 0.00822453
0.13 0.00136232
0.14 -0.00582504
0.15 -0.0129314
0.16 -0.0196141
0.17 -0.0255517
0.18 -0.0304556
0.19 -0.0340847
0.2 -0.0361912
0.21 -0.0366054
0.22 -0.035425
0.23 -0.0327157
0.24 -0.0286221
0.25 -0.0233625
0.26 -0.017221
0.27 -0.0105211
0.28 -0.00372927
0.29 0.0027391
0.3 0.00848012
0.31 0.0131095
0.32 0.0162814
0.33 0.017645
0.34 0.0168565
0.35 0.0139667
0.36 0.00897079
0.37 0.00196903
0.38 -0.00683163
0.39 -0.0171204
0.4 -0.0285373
0.41 -0.0404582
0.42 -0.0522697
0.43 -0.0633473
0.44 -0.0730434
0.45 -0.0807119
0.46 -0.0856677
0.47 -0.0870278
0.48 -0.0845927
0.49 -0.077998
0.5 -0.0670017
0.51 -0.0514987
0.52 -0.0315318
0.53 -0.00701313
0.54 0.0215119
0.55 0.0533173
0.56 0.0877307
0.57 0.123963
0.58 0.161127
0.59 0.198257
0.6 0.234125
0.61 0.267744
0.62 0.298128
0.63 0.324353
0.64 0.345579
0.65 0.361083
0.66 0.369865
0.67 0.3715
0.68 0.366141
0.69 0.35377
0.7 0.334555
0.71 0.308847
0.72 0.277171
0.73 0.239695
0.74 0.197932
0.75 0.152851
0.76 0.105484
0.77 0.0569076
0.78 0.00821175
0.79 -0.0394317
0.8 -0.0848306
0.81 -0.12715
0.82 -0.165593
0.83 -0.199501
0.84 -0.228363
0.85 -0.251834
0.86 -0.269162
0.87 -0.28087
0.88 -0.287238
0.89 -0.288615
0.9 -0.285486
0.91 -0.278449
0.92 -0.268096
0.93 -0.255194
0.94 -0.240777
0.95 -0.225637
0.96 -0.210539
0.97 -0.196199
0.98 -0.18326
0.99 -0.172497
1 -0.164254
1.01 -0.158776
1.02 -0.156236
1.03 -0.156683
1.04 -0.160045
1.05 -0.166214
1.06 -0.17501
1.07 -0.185817
1.08 -0.198197
1.09 -0.211676
1.1 -0.225762
1.11 -0.239964
1.12 -0.253752
1.13 -0.266665
1.14 -0.278365
1.15 -0.288567
1.16 -0.297066
1.17 -0.303738
1.18 -0.308514
1.19 -0.311301
1.2 -0.312425
1.21 -0.312086
1.22 -0.310536
1.23 -0.308064
1.24 -0.304982
1.25 -0.301611
1.26 -0.298307
1.27 -0.295361
1.28 -0.293009
1.29 -0.291442
1.3 -0.290789
1.31 -0.291127
1.32 -0.292557
1.33 -0.294893
1.34 -0.298003
1.35 -0.301705
1.36 -0.305778
1.37 -0.309971
1.38 -0.313991
1.39 -0.317531
1.4 -0.320349
1.41 -0.322222
1.42 -0.322965
1.43 -0.322443
1.44 -0.320577
1.45 -0.317203
1.46 -0.312529
1.47 -0.306691
1.48 -0.299872
1.49 -0.292309
1.5 -0.284279
1.51 -0.276099
1.52 -0.268149
1.53 -0.260765
1.54 -0.254262
1.55 -0.248925
1.56 -0.245
1.57 -0.242679
1.58 -0.242277
1.59 -0.2437
1.6 -0.246889
1.61 -0.251738
1.62 -0.258069
1.63 -0.265638
1.64 -0.274162
1.65 -0.283259
1.66 -0.292464
1.67 -0.301366
1.68 -0.309549
1.69 -0.316614
1.7 -0.322187
1.71 -0.325752
1.72 -0.327125
1.73 -0.326169
1.74 -0.322775
1.75 -0.31691
1.76 -0.308627
1.77 -0.298008
1.78 -0.285164
1.79 -0.2706
1.8 -0.254671
1.81 -0.237776
1.82 -0.220342
1.83 -0.202813
1.84 -0.185692
1.85 -0.16944
1.86 -0.154422
1.87 -0.140971
1.88 -0.129355
1.89 -0.119775
1.9 -0.11239
1.91 -0.107432
1.92 -0.104624
1.93 -0.103831
1.94 -0.104853
1.95 -0.107428
1.96 -0.111244
1.97 -0.115985
1.98 -0.121209
1.99 -0.126494
2 -0.131474
2.01 -0.135808
2.02 -0.139193
2.03 -0.141372
2.04 -0.141987
2.05 -0.141074
2.06 -0.138601
2.07 -0.13461
2.08 -0.129214
2.09 -0.122593
2.1 -0.114948
2.11 -0.106619
2.12 -0.0979992
2.13 -0.08945
2.14 -0.0813392
2.15 -0.0740302
2.16 -0.0678674
2.17 -0.0633532
2.18 -0.0606243
2.19 -0.0598688
2.2 -0.0612232
2.21 -0.0647559
2.22 -0.070466
2.23 -0.0783719
2.24 -0.088358
2.25 -0.10006
2.26 -0.113214
2.27 -0.127511
2.28 -0.142617
2.29 -0.158175
2.3 -0.1738
2.31 -0.189094
2.32 -0.203731
2.33 -0.217418
2.34 -0.229904
2.35 -0.240989
2.36 -0.250473
2.37 -0.258188
2.38 -0.264256
2.39 -0.268729
2.4 -0.271709
2.41 -0.273353
2.42 -0.273856
2.43 -0.27339
2.44 -0.272292
2.45 -0.270857
2.46 -0.269351
2.47 -0.268028
2.48 -0.267125
2.49 -0.26687
2.5 -0.267509
2.51 -0.2691
2.52 -0.271721
2.53 -0.275401
2.54 -0.280126
2.55 -0.285836
2.56 -0.292493
2.57 -0.29991
2.58 -0.307886
2.59 -0.316234
2.6 -0.324761
2.61 -0.333268
2.62 -0.341555
2.63 -0.349381
2.64 -0.356614
2.65 -0.363116
2.66 -0.36878
2.67 -0.373526
2.68 -0.377304
2.69 -0.380032
2.7 -0.381734
2.71 -0.382501
2.72 -0.38239
2.73 -0.381471
2.74 -0.379824
2.75 -0.377531
2.76 -0.374615
2.77 -0.371218
2.78 -0.367395
2.79 -0.363185
2.8 -0.358607
2.81 -0.353659
2.82 -0.348295
2.83 -0.342461
2.84 -0.336118
2.85 -0.329189
2.86 -0.321587
2.87 -0.313224
2.88 -0.30401
2.89 -0.293757
2.9 -0.28248
2.91 -0.270142
2.92 -0.256717
2.93 -0.242207
2.94 -0.226639
2.95 -0.210032
2.96 -0.19246
2.97 -0.174119
2.98 -0.155153
2.99 -0.135729
3 -0.116028
3.01 -0.0962405
3.02 -0.0765917
3.03 -0.0572861
3.04 -0.0385005
3.05 -0.0203974
3.06 -0.00311681
3.07 0.0132287
3.08 0.0285235
3.09 0.0426623
3.1 0.0557309
3.11 0.0677631
3.12 0.0788266
3.13 0.0890208
3.14 0.0984724
3.15 0.107295
3.16 0.115709
3.17 0.123913
3.18 0.132085
3.19 0.140402
3.2 0.149028
3.21 0.15812
3.22 0.167858
3.23 0.178283
3.24 0.189448
3.25 0.201373
3.26 0.214043
3.27 0.227408
3.28 0.241423
3.29 0.255934
3.3 0.270772
3.31 0.285772
3.32 0.300754
3.33 0.315533
3.34 0.329916
3.35 0.343642
3.36 0.35659
3.37 0.368612
3.38 0.379581
3.39 0.389398
3.4 0.397992
3.41 0.405246
3.42 0.411168
3.43 0.415859
3.44 0.419383
3.45 0.421829
3.46 0.423309
3.47 0.423953
3.48 0.423847
3.49 0.423237
3.5 0.422283
3.51 0.421142
3.52 0.419961
3.53 0.41888
3.54 0.418037
3.55 0.417555
3.56 0.417499
3.57 0.417927
3.58 0.418877
3.59 0.420365
3.6 0.42239
3.61 0.424981
3.62 0.42805
3.63 0.431542
3.64 0.435399
3.65 0.439557
3.66 0.443953
3.67 0.448526
3.68 0.453212
3.69 0.457946
3.7 0.462681
3.71 0.467378
3.72 0.472007
3.73 0.476547
3.74 0.48097
3.75 0.485275
3.76 0.489458
3.77 0.493518
3.78 0.49745
3.79 0.501248
3.8 0.504897
3.81 0.508366
3.82 0.511641
3.83 0.514684
3.84 0.517448
3.85 0.519878
3.86 0.521905
3.87 0.523408
3.88 0.524315
3.89 0.524553
3.9 0.524029
3.91 0.522648
3.92 0.520318
3.93 0.516929
3.94 0.512301
3.95 0.506466
3.96 0.499366
3.97 0.490952
3.98 0.481193
3.99 0.47007
4 0.457484
4.01 0.443485
4.02 0.428166
4.03 0.411572
4.04 0.393758
4.05 0.374792
4.06 0.354741
4.07 0.333598
4.08 0.31157
4.09 0.288752
4.1 0.265239
4.11 0.241129
4.12 0.216518
4.13 0.191484
4.14 0.166139
4.15 0.140597
4.16 0.114948
4.17 0.0892813
4.18 0.0636858
4.19 0.0382481
4.2 0.0130923
4.21 -0.0117135
4.22 -0.0360839
4.23 -0.0599322
4.24 -0.083172
4.25 -0.105717
4.26 -0.127441
4.27 -0.148234
4.28 -0.16807
4.29 -0.186879
4.3 -0.204595
4.31 -0.221161
4.32 -0.236532
4.33 -0.250543
4.34 -0.263282
4.35 -0.274765
4.36 -0.285005
4.37 -0.29403
4.38 -0.301886
4.39 -0.308594
4.4 -0.314198
4.41 -0.318877
4.42 -0.322732
4.43 -0.325873
4.44 -0.328414
4.45 -0.330473
4.46 -0.332144
4.47 -0.333574
4.48 -0.334878
4.49 -0.336146
4.5 -0.337459
4.51 -0.338881
4.52 -0.340465
4.53 -0.342255
4.54 -0.344242
4.55 -0.346416
4.56 -0.34875
4.57 -0.351203
4.58 -0.353719
4.59 -0.356229
4.6 -0.358649
4.61 -0.360905
4.62 -0.362922
4.63 -0.364626
4.64 -0.365955
4.65 -0.366846
4.66 -0.367213
4.67 -0.36708
4.68 -0.366439
4.69 -0.365302
4.7 -0.363697
4.71 -0.36167
4.72 -0.359263
4.73 -0.35657
4.74 -0.353695
4.75 -0.350737
4.76 -0.347795
4.77 -0.344971
4.78 -0.342367
4.79 -0.340121
4.8 -0.338289
4.81 -0.336941
4.82 -0.336135
4.83 -0.33591
4.84 -0.33629
4.85 -0.337314
4.86 -0.338967
4.87 -0.341179
4.88 -0.343902
4.89 -0.347074
4.9 -0.350622
4.91 -0.354464
4.92 -0.358528
4.93 -0.362694
4.94 -0.36687
4.95 -0.370974
4.96 -0.374924
4.97 -0.378651
4.98 -0.382076
4.99 -0.385133
5 -0.387807
5.01 -0.39007
5.02 -0.391905
5.03 -0.393305
5.04 -0.394269
5.05 -0.39476
5.06 -0.394823
5.07 -0.394474
5.08 -0.39372
5.09 -0.392565
5.1 -0.391006
5.11 -0.389017
5.12 -0.386555
5.13 -0.383622
5.14 -0.380176
5.15 -0.376165
5.16 -0.371527
5.17 -0.366194
5.18 -0.360014
5.19 -0.352945
5.2 -0.344924
5.21 -0.335872
5.22 -0.325711
5.23 -0.314368
5.24 -0.301749
5.25 -0.287707
5.26 -0.272321
5.27 -0.25557
5.28 -0.237446
5.29 -0.217959
5.3 -0.197132
5.31 -0.17491
5.32 -0.151408
5.33 -0.12675
5.34 -0.10102
5.35 -0.0743135
5.36 -0.0467346
5.37 -0.0183852
5.38 0.0106625
5.39 0.0402122
5.4 0.0701425
5.41 0.100332
5.42 0.130659
5.43 0.161004
5.44 0.191232
5.45 0.221211
5.46 0.25083
5.47 0.279972
5.48 0.308519
5.49 0.336354
5.5 0.363354
5.51 0.389274
5.52 0.414083
5.53 0.437653
5.54 0.459849
5.55 0.480536
5.56 0.499576
5.57 0.516726
5.58 0.531816
5.59 0.544829
5.6 0.555641
5.61 0.56414
5.62 0.570226
5.63 0.573816
5.64 0.574563
5.65 0.572677
5.66 0.568169
5.67 0.561052
5.68 0.551367
5.69 0.539183
5.7 0.524495
5.71 0.507385
5.72 0.488182
5.73 0.467065
5.74 0.444234
5.75 0.419902
5.76 0.394298
5.77 0.367579
5.78 0.340089
5.79 0.312086
5.8 0.283796
5.81 0.255437
5.82 0.22721
5.83 0.199313
5.84 0.17195
5.85 0.145225
5.86 0.119243
5.87 0.0940857
5.88 0.0698103
5.89 0.046452
5.9 0.0241046
5.91 0.00271074
5.92 -0.0177793
5.93 -0.0373955
5.94 -0.0561731
5.95 -0.0741486
5.96 -0.0913395
5.97 -0.107721
5.98 -0.123382
5.99 -0.138321
6 -0.152527
6.01 -0.165969
6.02 -0.178603
6.03 -0.190297
6.04 -0.200991
6.05 -0.210631
6.06 -0.21912
6.07 -0.226353
6.08 -0.232227
6.09 -0.236624
6.1 -0.239291
6.11 -0.24031
6.12 -0.239619
6.13 -0.23718
6.14 -0.232978
6.15 -0.227022
6.16 -0.219246
6.17 -0.209749
6.18 -0.198724
6.19 -0.186298
6.2 -0.172625
6.21 -0.157877
6.22 -0.142247
6.23 -0.125883
6.24 -0.109097
6.25 -0.0921068
6.26 -0.0751225
6.27 -0.0583481
6.28 -0.0419735
6.29 -0.0262091
6.3 -0.0112322
6.31 0.00287886
6.32 0.0160354
6.33 0.0281787
6.34 0.0392806
6.35 0.049343
6.36 0.0582966
6.37 0.0663057
6.38 0.0734704
6.39 0.0798996
6.4 0.0857181
6.41 0.091063
6.42 0.0960714
6.43 0.100906
6.44 0.105735
6.45 0.110696
6.46 0.115918
6.47 0.121516
6.48 0.12759
6.49 0.13428
6.5 0.141613
6.51 0.149615
6.52 0.158304
6.53 0.167681
6.54 0.177731
6.55 0.188441
6.56 0.199794
6.57 0.211679
6.58 0.224032
6.59 0.236787
6.6 0.249873
6.61 0.263222
6.62 0.276779
6.63 0.290463
6.64 0.304213
6.65 0.317978
6.66 0.331715
6.67 0.345386
6.68 0.358956
6.69 0.372382
6.7 0.385651
6.71 0.398737
6.72 0.411617
6.73 0.424262
6.74 0.436641
6.75 0.448691
6.76 0.460369
6.77 0.471634
6.78 0.482423
6.79 0.492663
6.8 0.502273
6.81 0.511157
6.82 0.519123
6.83 0.526147
6.84 0.532122
6.85 0.536939
6.86 0.540487
6.87 0.54266
6.88 0.54326
6.89 0.542186
6.9 0.53944
6.91 0.53495
6.92 0.528658
6.93 0.520521
6.94 0.510513
6.95 0.498406
6.96 0.48442
6.97 0.468586
6.98 0.450947
6.99 0.43156
7 0.410497
7.01 0.387765
7.02 0.363453
7.03 0.337773
7.04 0.31084
7.05 0.282775
7.06 0.253703
7.07 0.223754
7.08 0.192991
7.09 0.161627
7.1 0.1298
7.11 0.0976356
7.12 0.0652587
7.13 0.0327896
7.14 0.000351438
7.15 -0.0319212
7.16 -0.0639233
7.17 -0.0955499
7.18 -0.1267
7.19 -0.157277
7.2 -0.187187
7.21 -0.216263
7.22 -0.244461
7.23 -0.271722
7.24 -0.297968
7.25 -0.323131
7.26 -0.347146
7.27 -0.369918
7.28 -0.391313
7.29 -0.411397
7.3 -0.430134
7.31 -0.447499
7.32 -0.463475
7.33 -0.478053
7.34 -0.491124
7.35 -0.502765
7.36 -0.51305
7.37 -0.522013
7.38 -0.529696
7.39 -0.536149
7.4 -0.541411
7.41 -0.545464
7.42 -0.548494
7.43 -0.550576
7.44 -0.551786
7.45 -0.552203
7.46 -0.551902
7.47 -0.55092
7.48 -0.549352
7.49 -0.547295
7.5 -0.544807
7.51 -0.541943
7.52 -0.538747
7.53 -0.535256
7.54 -0.531471
7.55 -0.527442
7.56 -0.523178
7.57 -0.518678
7.58 -0.513937
7.59 -0.508938
7.6 -0.503643
7.61 -0.498021
7.62 -0.492059
7.63 -0.485722
7.64 -0.478976
7.65 -0.471786
7.66 -0.46412
7.67 -0.455888
7.68 -0.447116
7.69 -0.437787
7.7 -0.427891
7.71 -0.41742
7.72 -0.406378
7.73 -0.394752
7.74 -0.382555
7.75 -0.369858
7.76 -0.356703
7.77 -0.343141
7.78 -0.329231
7.79 -0.315042
7.8 -0.300633
7.81 -0.286112
7.82 -0.27157
7.83 -0.257095
7.84 -0.242778
7.85 -0.228711
7.86 -0.214999
7.87 -0.201762
7.88 -0.189053
7.89 -0.176948
7.9 -0.165516
7.91 -0.154819
7.92 -0.144909
7.93 -0.135904
7.94 -0.127788
7.95 -0.120556
7.96 -0.114216
7.97 -0.108765
7.98 -0.104192
7.99 -0.100496
8 -0.0976982
8.01 -0.0956831
8.02 -0.094408
8.03 -0.0938267
8.04 -0.0938903
8.05 -0.0945494
8.06 -0.095794
8.07 -0.0975491
8.08 -0.0997506
8.09 -0.102359
8.1 -0.105341
8.11 -0.108666
8.12 -0.112314
8.13 -0.11629
8.14 -0.120549
8.15 -0.125081
8.16 -0.129877
8.17 -0.13493
8.18 -0.140234
8.19 -0.145793
8.2 -0.151589
8.21 -0.157588
8.22 -0.163766
8.23 -0.170085
8.24 -0.176502
8.25 -0.182962
8.26 -0.189386
8.27 -0.195693
8.28 -0.201792
8.29 -0.207586
8.3 -0.212966
8.31 -0.217818
8.32 -0.221981
8.33 -0.225311
8.34 -0.227728
8.35 -0.229114
8.36 -0.229357
8.37 -0.228355
8.38 -0.226016
8.39 -0.222098
8.4 -0.21668
8.41 -0.20973
8.42 -0.201226
8.43 -0.191163
8.44 -0.179556
8.45 -0.166371
8.46 -0.151633
8.47 -0.135519
8.48 -0.118115
8.49 -0.0995183
8.5 -0.0798332
8.51 -0.0591712
8.52 -0.0375734
8.53 -0.0152351
8.54 0.0077176
8.55 0.0311805
8.56 0.0550577
8.57 0.0792638
8.58 0.103731
8.59 0.1284
8.6 0.153206
8.61 0.178116
8.62 0.203107
8.63 0.228169
8.64 0.253297
8.65 0.2785
8.66 0.303779
8.67 0.329139
8.68 0.354579
8.69 0.380096
8.7 0.405675
8.71 0.431292
8.72 0.4569
8.73 0.482438
8.74 0.50783
8.75 0.532986
8.76 0.557796
8.77 0.582136
8.78 0.605808
8.79 0.628659
8.8 0.650551
8.81 0.671313
8.82 0.690771
8.83 0.708751
8.84 0.725062
8.85 0.739354
8.86 0.751654
8.87 0.761828
8.88 0.769762
8.89 0.775356
8.9 0.778536
8.91 0.779085
8.92 0.777003
8.93 0.772418
8.94 0.76535
8.95 0.755839
8.96 0.743945
8.97 0.729743
8.98 0.71308
8.99 0.694329
9 0.673602
9.01 0.651019
9.02 0.626705
9.03 0.600781
9.04 0.573299
9.05 0.544384
9.06 0.514244
9.07 0.48299
9.08 0.450729
9.09 0.417563
9.1 0.383591
9.11 0.348842
9.12 0.313489
9.13 0.277634
9.14 0.241376
9.15 0.204816
9.16 0.168061
9.17 0.131227
9.18 0.0944559
9.19 0.0578857
9.2 0.0216585
9.21 -0.0140749
9.22 -0.0491555
9.23 -0.0834175
9.24 -0.116578
9.25 -0.148516
9.26 -0.179078
9.27 -0.208092
9.28 -0.23539
9.29 -0.260813
9.3 -0.284144
9.31 -0.305118
9.32 -0.323797
9.33 -0.340086
9.34 -0.353913
9.35 -0.365226
9.36 -0.373997
9.37 -0.380005
9.38 -0.383407
9.39 -0.384329
9.4 -0.382834
9.41 -0.379003
9.42 -0.372934
9.43 -0.364694
9.44 -0.354268
9.45 -0.341988
9.46 -0.327987
9.47 -0.312399
9.48 -0.295358
9.49 -0.276994
9.5 -0.257355
9.51 -0.236613
9.52 -0.214932
9.53 -0.192414
9.54 -0.16916
9.55 -0.145262
9.56 -0.1208
9.57 -0.0958223
9.58 -0.0704664
9.59 -0.0448119
9.6 -0.0189398
9.61 0.00706648
9.62 0.0331191
9.63 0.0591157
9.64 0.0849414
9.65 0.110492
9.66 0.135653
9.67 0.160304
9.68 0.18432
9.69 0.20757
9.7 0.229805
9.71 0.250981
9.72 0.270971
9.73 0.289651
9.74 0.306905
9.75 0.322625
9.76 0.336631
9.77 0.34881
9.78 0.359211
9.79 0.367796
9.8 0.374545
9.81 0.379458
9.82 0.382557
9.83 0.3837
9.84 0.38312
9.85 0.380918
9.86 0.377188
9.87 0.372035
9.88 0.365575
9.89 0.357888
9.9 0.349079
9.91 0.339363
9.92 0.328865
9.93 0.317703
9.94 0.305989
9.95 0.293824
9.96 0.281275
9.97 0.268453
9.98 0.25543
9.99 0.242258
10 0.228978
10.01 0.215618
10.02 0.202195
10.03 0.18872
10.04 0.175198
10.05 0.16163
10.06 0.148012
10.07 0.134341
10.08 0.120613
10.09 0.106827
10.1 0.0929919
10.11 0.0791226
10.12 0.0652382
10.13 0.0513648
10.14 0.037535
10.15 0.02379
10.16 0.0101906
10.17 -0.00322227
10.18 -0.0163961
10.19 -0.0292772
10.2 -0.041812
10.21 -0.0539492
10.22 -0.065606
10.23 -0.0767458
10.24 -0.0873551
10.25 -0.0974075
10.26 -0.106885
10.27 -0.11578
10.28 -0.124089
10.29 -0.131765
10.3 -0.138895
10.31 -0.145509
10.32 -0.151644
10.33 -0.157342
10.34 -0.162652
10.35 -0.167608
10.36 -0.17227
10.37 -0.176711
10.38 -0.180981
10.39 -0.185127
10.4 -0.189195
10.41 -0.193222
10.42 -0.197244
10.43 -0.20129
10.44 -0.20538
10.45 -0.209524
10.46 -0.213731
10.47 -0.218001
10.48 -0.222332
10.49 -0.226716
10.5 -0.231137
10.51 -0.23558
10.52 -0.24003
10.53 -0.244471
10.54 -0.248889
10.55 -0.253265
10.56 -0.257587
10.57 -0.261848
10.58 -0.266039
10.59 -0.270157
10.6 -0.274199
10.61 -0.278161
10.62 -0.282043
10.63 -0.285854
10.64 -0.289597
10.65 -0.293277
10.66 -0.296897
10.67 -0.300459
10.68 -0.303962
10.69 -0.307407
10.7 -0.310795
10.71 -0.31412
10.72 -0.317379
10.73 -0.320563
10.74 -0.32366
10.75 -0.326654
10.76 -0.329541
10.77 -0.332312
10.78 -0.334956
10.79 -0.337465
10.8 -0.339831
10.81 -0.342037
10.82 -0.344088
10.83 -0.345988
10.84 -0.347741
10.85 -0.349354
10.86 -0.350834
10.87 -0.352192
10.88 -0.353432
10.89 -0.354581
10.9 -0.355654
10.91 -0.356667
10.92 -0.357633
10.93 -0.358566
10.94 -0.359476
10.95 -0.360371
10.96 -0.361256
10.97 -0.36213
10.98 -0.362989
10.99 -0.363822
11 -0.364615
11.01 -0.36534
11.02 -0.365977
11.03 -0.366495
11.04 -0.366863
11.05 -0.367044
11.06 -0.366998
11.07 -0.366668
11.08 -0.366004
11.09 -0.364979
11.1 -0.363551
11.11 -0.361679
11.12 -0.359326
11.13 -0.356454
11.14 -0.352967
11.15 -0.348891
11.16 -0.344207
11.17 -0.338897
11.18 -0.332948
11.19 -0.326353
11.2 -0.319081
11.21 -0.311124
11.22 -0.302538
11.23 -0.293343
11.24 -0.283563
11.25 -0.273228
11.26 -0.262373
11.27 -0.250998
11.28 -0.239192
11.29 -0.227015
11.3 -0.214523
11.31 -0.201772
11.32 -0.188824
11.33 -0.175737
11.34 -0.162579
11.35 -0.149421
11.36 -0.136323
11.37 -0.123341
11.38 -0.110527
11.39 -0.0979282
11.4 -0.0856118
11.41 -0.0735979
11.42 -0.0619017
11.43 -0.0505363
11.44 -0.0395046
11.45 -0.0287994
11.46 -0.0184094
11.47 -0.00831983
11.48 0.00153921
11.49 0.011219
11.5 0.0207795
11.51 0.0302878
11.52 0.039817
11.53 0.0494585
11.54 0.0592994
11.55 0.0694151
11.56 0.079883
11.57 0.090776
11.58 0.10216
11.59 0.114102
11.6 0.126705
11.61 0.139944
11.62 0.153836
11.63 0.168383
11.64 0.183572
11.65 0.199374
11.66 0.215781
11.67 0.232711
11.68 0.250062
11.69 0.267744
11.7 0.285659
11.71 0.303701
11.72 0.321756
11.73 0.339683
11.74 0.357367
11.75 0.374691
11.76 0.391545
11.77 0.407824
11.78 0.423432
11.79 0.438237
11.8 0.452145
11.81 0.465145
11.82 0.477187
11.83 0.488235
11.84 0.498262
11.85 0.507254
11.86 0.515092
11.87 0.521881
11.88 0.527642
11.89 0.532385
11.9 0.536125
11.91 0.538876
11.92 0.540609
11.93 0.541304
11.94 0.541036
11.95 0.539803
11.96 0.537598
11.97 0.534404
11.98 0.530205
11.99 0.524872
12 0.518455
12.01 0.510944
12.02 0.502311
12.03 0.492531
12.04 0.481581
12.05 0.469409
12.06 0.45595
12.07 0.441315
12.08 0.425527
12.09 0.408625
12.1 0.390665
12.11 0.371718
12.12 0.351804
12.13 0.331095
12.14 0.30974
12.15 0.287878
12.16 0.265659
12.17 0.243239
12.18 0.220786
12.19 0.1985
12.2 0.17655
12.21 0.155098
12.22 0.134301
12.23 0.114308
12.24 0.0952508
12.25 0.0773372
12.26 0.0606459
12.27 0.04521
