# xPDFsuite Configuration #
[PDF]
wavelength = 0.1
dataformat = QA
inputfile = BiMsol6_insitu_700 C-00414.xy
backgroundfile = Quartz2mm-dist500-00000.xy
mode = xray
bgscale = 0.0042
composition = Bi2Fe4O9
outputtype = gr
qmaxinst = 24.998449118
qmin = 0.1
qmax = 21.4986662415
rmax = 80.0
rmin = 0.0
rstep = 0.01
rpoly = 0.9

[Misc]
inputdir = C:/Data/Seafile/CPH/Beamtime/Desy Oct 20/In situ data/Processed/BiMsol6/PDF
savedir = C:/Data/Seafile/CPH/Beamtime/Desy Oct 20/In situ data/PDF/BiMsol6
backgroundfilefull = C:/Data/Seafile/CPH/Beamtime/Desy Oct 20/In situ data/Processed/Standard_Empty_Cap/Quartz2mm-dist500-00000.xy

#### start data
#S 1
#L r($\AA$)  G($\AA^{-2}$)
0 0
0.01 0.00659905
0.02 0.0128263
0.03 0.0183635
0.04 0.0229251
0.05 0.0262714
0.06 0.0282194
0.07 0.028569
0.08 0.0272617
0.09 0.0244444
0.1 0.0202378
0.11 0.0148292
0.12 0.00846488
0.13 0.00143827
0.14 -0.00592073
0.15 -0.013196
0.16 -0.0200365
0.17 -0.0261128
0.18 -0.0311296
0.19 -0.0348398
0.2 -0.0369897
0.21 -0.037406
0.22 -0.0361887
0.23 -0.0334056
0.24 -0.0292049
0.25 -0.0238105
0.26 -0.0175134
0.27 -0.010645
0.28 -0.00368268
0.29 0.00294829
0.3 0.00883486
0.31 0.0135842
0.32 0.0168428
0.33 0.0182527
0.34 0.0174634
0.35 0.0145276
0.36 0.00944181
0.37 0.00230971
0.38 -0.00665583
0.39 -0.0171359
0.4 -0.0287607
0.41 -0.0408922
0.42 -0.0529031
0.43 -0.0641557
0.44 -0.0739894
0.45 -0.0817453
0.46 -0.0867263
0.47 -0.088034
0.48 -0.0854694
0.49 -0.0786656
0.5 -0.0673815
0.51 -0.0515166
0.52 -0.0311216
0.53 -0.00611755
0.54 0.0229311
0.55 0.0552774
0.56 0.0902284
0.57 0.126972
0.58 0.164601
0.59 0.202124
0.6 0.23828
0.61 0.272071
0.62 0.302496
0.63 0.328619
0.64 0.349593
0.65 0.364692
0.66 0.37291
0.67 0.373834
0.68 0.36764
0.69 0.354331
0.7 0.334102
0.71 0.307332
0.72 0.274578
0.73 0.23605
0.74 0.193297
0.75 0.147323
0.76 0.0991952
0.77 0.0500194
0.78 0.000911171
0.79 -0.0469249
0.8 -0.0922774
0.81 -0.134319
0.82 -0.172257
0.83 -0.20544
0.84 -0.233375
0.85 -0.255744
0.86 -0.271812
0.87 -0.282161
0.88 -0.287114
0.89 -0.28707
0.9 -0.282561
0.91 -0.274236
0.92 -0.26274
0.93 -0.248901
0.94 -0.233778
0.95 -0.218196
0.96 -0.202946
0.97 -0.188761
0.98 -0.176291
0.99 -0.166336
1 -0.159205
1.01 -0.155111
1.02 -0.154192
1.03 -0.156456
1.04 -0.161786
1.05 -0.170016
1.06 -0.180908
1.07 -0.193774
1.08 -0.20812
1.09 -0.223412
1.1 -0.239105
1.11 -0.254661
1.12 -0.269482
1.13 -0.283086
1.14 -0.295124
1.15 -0.305304
1.16 -0.31342
1.17 -0.319362
1.18 -0.323078
1.19 -0.324487
1.2 -0.323989
1.21 -0.321835
1.22 -0.318331
1.23 -0.313825
1.24 -0.308688
1.25 -0.303307
1.26 -0.298103
1.27 -0.293417
1.28 -0.289531
1.29 -0.286672
1.3 -0.285003
1.31 -0.284621
1.32 -0.285669
1.33 -0.287927
1.34 -0.291252
1.35 -0.295439
1.36 -0.300238
1.37 -0.305363
1.38 -0.310486
1.39 -0.315245
1.4 -0.319342
1.41 -0.322504
1.42 -0.324501
1.43 -0.325154
1.44 -0.324344
1.45 -0.321855
1.46 -0.317885
1.47 -0.312553
1.48 -0.306035
1.49 -0.298569
1.5 -0.29044
1.51 -0.281975
1.52 -0.273574
1.53 -0.265617
1.54 -0.258448
1.55 -0.252389
1.56 -0.247721
1.57 -0.244671
1.58 -0.243591
1.59 -0.244416
1.6 -0.247108
1.61 -0.251575
1.62 -0.257651
1.63 -0.265093
1.64 -0.273616
1.65 -0.282831
1.66 -0.292244
1.67 -0.301418
1.68 -0.309911
1.69 -0.317292
1.7 -0.323157
1.71 -0.326948
1.72 -0.328456
1.73 -0.327519
1.74 -0.324006
1.75 -0.317874
1.76 -0.309169
1.77 -0.297967
1.78 -0.284383
1.79 -0.268954
1.8 -0.252061
1.81 -0.234133
1.82 -0.215637
1.83 -0.197056
1.84 -0.178946
1.85 -0.161815
1.86 -0.14607
1.87 -0.132079
1.88 -0.120147
1.89 -0.110502
1.9 -0.103324
1.91 -0.0988821
1.92 -0.0968658
1.93 -0.0971295
1.94 -0.0994477
1.95 -0.103524
1.96 -0.109005
1.97 -0.115527
1.98 -0.122578
1.99 -0.129669
2 -0.136369
2.01 -0.142272
2.02 -0.147012
2.03 -0.150273
2.04 -0.151603
2.05 -0.151032
2.06 -0.148497
2.07 -0.144022
2.08 -0.137715
2.09 -0.129763
2.1 -0.120368
2.11 -0.109907
2.12 -0.0988485
2.13 -0.0876091
2.14 -0.0766236
2.15 -0.0663275
2.16 -0.057141
2.17 -0.0496567
2.18 -0.0440904
2.19 -0.0407007
2.2 -0.039688
2.21 -0.0411762
2.22 -0.045209
2.23 -0.0518565
2.24 -0.0610342
2.25 -0.0723507
2.26 -0.0855287
2.27 -0.100236
2.28 -0.116098
2.29 -0.132712
2.3 -0.149649
2.31 -0.166419
2.32 -0.182622
2.33 -0.19789
2.34 -0.211903
2.35 -0.224391
2.36 -0.235084
2.37 -0.243743
2.38 -0.250466
2.39 -0.255273
2.4 -0.258254
2.41 -0.259561
2.42 -0.2594
2.43 -0.257943
2.44 -0.255588
2.45 -0.252687
2.46 -0.249562
2.47 -0.246532
2.48 -0.243901
2.49 -0.241967
2.5 -0.24106
2.51 -0.241295
2.52 -0.242803
2.53 -0.245659
2.54 -0.249885
2.55 -0.255446
2.56 -0.262341
2.57 -0.270364
2.58 -0.279282
2.59 -0.288878
2.6 -0.298917
2.61 -0.309148
2.62 -0.319316
2.63 -0.329116
2.64 -0.338336
2.65 -0.346774
2.66 -0.354261
2.67 -0.360662
2.68 -0.365882
2.69 -0.369782
2.7 -0.372367
2.71 -0.373732
2.72 -0.37394
2.73 -0.373084
2.74 -0.371278
2.75 -0.368649
2.76 -0.365276
2.77 -0.361388
2.78 -0.357116
2.79 -0.35258
2.8 -0.347877
2.81 -0.343085
2.82 -0.338253
2.83 -0.333403
2.84 -0.328524
2.85 -0.323575
2.86 -0.318493
2.87 -0.313193
2.88 -0.307573
2.89 -0.301461
2.9 -0.29477
2.91 -0.287388
2.92 -0.279207
2.93 -0.27013
2.94 -0.260081
2.95 -0.248958
2.96 -0.236696
2.97 -0.223378
2.98 -0.209033
2.99 -0.193719
3 -0.177521
3.01 -0.160543
3.02 -0.142861
3.03 -0.12468
3.04 -0.106163
3.05 -0.0874615
3.06 -0.0687251
3.07 -0.0500949
3.08 -0.0317109
3.09 -0.0137162
3.1 0.003825
3.11 0.0208498
3.12 0.037319
3.13 0.0532178
3.14 0.0685542
3.15 0.0833166
3.16 0.09759
3.17 0.111457
3.18 0.124994
3.19 0.138281
3.2 0.151398
3.21 0.16442
3.22 0.177417
3.23 0.190448
3.24 0.203541
3.25 0.216709
3.26 0.22994
3.27 0.243201
3.28 0.256432
3.29 0.269543
3.3 0.282439
3.31 0.295007
3.32 0.307128
3.33 0.318672
3.34 0.329505
3.35 0.339408
3.36 0.348346
3.37 0.356223
3.38 0.36296
3.39 0.368501
3.4 0.372814
3.41 0.375819
3.42 0.377555
3.43 0.378147
3.44 0.377676
3.45 0.37625
3.46 0.373996
3.47 0.371058
3.48 0.367552
3.49 0.363722
3.5 0.35974
3.51 0.355776
3.52 0.351994
3.53 0.348546
3.54 0.345603
3.55 0.343312
3.56 0.341738
3.57 0.340957
3.58 0.341023
3.59 0.34197
3.6 0.343807
3.61 0.346616
3.62 0.350284
3.63 0.354754
3.64 0.359968
3.65 0.365861
3.66 0.372361
3.67 0.379412
3.68 0.386946
3.69 0.39485
3.7 0.403059
3.71 0.411512
3.72 0.420155
3.73 0.428942
3.74 0.43784
3.75 0.446806
3.76 0.455812
3.77 0.464832
3.78 0.473846
3.79 0.48283
3.8 0.491756
3.81 0.500585
3.82 0.509283
3.83 0.517805
3.84 0.526093
3.85 0.534084
3.86 0.541701
3.87 0.548813
3.88 0.555334
3.89 0.561177
3.9 0.566231
3.91 0.570384
3.92 0.57352
3.93 0.575505
3.94 0.576115
3.95 0.575364
3.96 0.573161
3.97 0.569426
3.98 0.564094
3.99 0.557116
4 0.548337
4.01 0.537787
4.02 0.52555
4.03 0.511653
4.04 0.496138
4.05 0.479067
4.06 0.460505
4.07 0.44041
4.08 0.419048
4.09 0.396534
4.1 0.372989
4.11 0.34854
4.12 0.323318
4.13 0.297425
4.14 0.271018
4.15 0.244262
4.16 0.217284
4.17 0.190206
4.18 0.163148
4.19 0.13622
4.2 0.109567
4.21 0.083269
4.22 0.0574154
4.23 0.0320889
4.24 0.00736517
4.25 -0.0166875
4.26 -0.0399693
4.27 -0.0624048
4.28 -0.084
4.29 -0.104718
4.3 -0.124531
4.31 -0.143416
4.32 -0.161362
4.33 -0.178266
4.34 -0.194217
4.35 -0.209243
4.36 -0.223366
4.37 -0.236616
4.38 -0.24903
4.39 -0.260624
4.4 -0.271426
4.41 -0.281554
4.42 -0.291069
4.43 -0.300032
4.44 -0.308506
4.45 -0.316553
4.46 -0.324206
4.47 -0.33155
4.48 -0.338644
4.49 -0.345531
4.5 -0.352246
4.51 -0.358814
4.52 -0.365249
4.53 -0.371551
4.54 -0.377727
4.55 -0.383762
4.56 -0.389636
4.57 -0.395319
4.58 -0.400777
4.59 -0.405948
4.6 -0.410797
4.61 -0.415291
4.62 -0.419393
4.63 -0.423065
4.64 -0.426278
4.65 -0.429
4.66 -0.431172
4.67 -0.432841
4.68 -0.434013
4.69 -0.434705
4.7 -0.434944
4.71 -0.434766
4.72 -0.434195
4.73 -0.433302
4.74 -0.432166
4.75 -0.430852
4.76 -0.429428
4.77 -0.427965
4.78 -0.426531
4.79 -0.425209
4.8 -0.424053
4.81 -0.423118
4.82 -0.422448
4.83 -0.422081
4.84 -0.422045
4.85 -0.422381
4.86 -0.423099
4.87 -0.424175
4.88 -0.4256
4.89 -0.427356
4.9 -0.429419
4.91 -0.431757
4.92 -0.43436
4.93 -0.437159
4.94 -0.440113
4.95 -0.443178
4.96 -0.446312
4.97 -0.449471
4.98 -0.452611
4.99 -0.455681
5 -0.458642
5.01 -0.46145
5.02 -0.464064
5.03 -0.46644
5.04 -0.468531
5.05 -0.470253
5.06 -0.471573
5.07 -0.472443
5.08 -0.472802
5.09 -0.472585
5.1 -0.471723
5.11 -0.470115
5.12 -0.467636
5.13 -0.464268
5.14 -0.459928
5.15 -0.454535
5.16 -0.448012
5.17 -0.440282
5.18 -0.431155
5.19 -0.420637
5.2 -0.408712
5.21 -0.395336
5.22 -0.380478
5.23 -0.364119
5.24 -0.346217
5.25 -0.326679
5.26 -0.305672
5.27 -0.283233
5.28 -0.259413
5.29 -0.234276
5.3 -0.207895
5.31 -0.180268
5.32 -0.151542
5.33 -0.121859
5.34 -0.0913172
5.35 -0.0600193
5.36 -0.0280671
5.37 0.00444395
5.38 0.0374426
5.39 0.0707765
5.4 0.104351
5.41 0.138072
5.42 0.17185
5.43 0.205595
5.44 0.2392
5.45 0.272561
5.46 0.30559
5.47 0.338185
5.48 0.37024
5.49 0.401641
5.5 0.432263
5.51 0.461857
5.52 0.490373
5.53 0.517661
5.54 0.543563
5.55 0.567916
5.56 0.590551
5.57 0.611186
5.58 0.629613
5.59 0.645788
5.6 0.659558
5.61 0.670782
5.62 0.679333
5.63 0.685106
5.64 0.687701
5.65 0.687343
5.66 0.684034
5.67 0.677782
5.68 0.668624
5.69 0.656628
5.7 0.641778
5.71 0.62415
5.72 0.604104
5.73 0.581826
5.74 0.55752
5.75 0.531407
5.76 0.503719
5.77 0.47459
5.78 0.444392
5.79 0.413387
5.8 0.381807
5.81 0.349867
5.82 0.317771
5.83 0.28571
5.84 0.253877
5.85 0.222403
5.86 0.191404
5.87 0.160971
5.88 0.131179
5.89 0.10208
5.9 0.0737784
5.91 0.0462606
5.92 0.0195177
5.93 -0.00644145
5.94 -0.0316091
5.95 -0.0559753
5.96 -0.0795066
5.97 -0.102114
5.98 -0.123838
5.99 -0.14463
6 -0.164428
6.01 -0.183157
6.02 -0.200729
6.03 -0.216947
6.04 -0.23173
6.05 -0.24502
6.06 -0.256706
6.07 -0.266679
6.08 -0.27484
6.09 -0.281076
6.1 -0.28512
6.11 -0.287126
6.12 -0.28707
6.13 -0.284952
6.14 -0.280801
6.15 -0.274673
6.16 -0.266542
6.17 -0.256564
6.18 -0.244985
6.19 -0.231975
6.2 -0.217724
6.21 -0.202438
6.22 -0.186331
6.23 -0.169581
6.24 -0.1525
6.25 -0.135303
6.26 -0.118193
6.27 -0.101358
6.28 -0.0849639
6.29 -0.0691922
6.3 -0.0541802
6.31 -0.0399676
6.32 -0.0266033
6.33 -0.0141056
6.34 -0.00246357
6.35 0.00836122
6.36 0.018362
6.37 0.027708
6.38 0.0365157
6.39 0.0449055
6.4 0.053006
6.41 0.0609493
6.42 0.0688711
6.43 0.0769176
6.44 0.0852026
6.45 0.0938261
6.46 0.102872
6.47 0.112406
6.48 0.122476
6.49 0.133162
6.5 0.144429
6.51 0.156249
6.52 0.168591
6.53 0.181409
6.54 0.194647
6.55 0.208248
6.56 0.222149
6.57 0.236247
6.58 0.250472
6.59 0.264758
6.6 0.279046
6.61 0.293284
6.62 0.307422
6.63 0.321429
6.64 0.335292
6.65 0.349002
6.66 0.36256
6.67 0.375971
6.68 0.389246
6.69 0.40239
6.7 0.415428
6.71 0.428367
6.72 0.44121
6.73 0.453948
6.74 0.466562
6.75 0.479004
6.76 0.491221
6.77 0.503154
6.78 0.51472
6.79 0.52582
6.8 0.536344
6.81 0.546158
6.82 0.555029
6.83 0.562891
6.84 0.569599
6.85 0.575007
6.86 0.578971
6.87 0.581355
6.88 0.581924
6.89 0.580559
6.9 0.577267
6.91 0.571976
6.92 0.564638
6.93 0.555224
6.94 0.543731
6.95 0.529947
6.96 0.514152
6.97 0.496421
6.98 0.476843
6.99 0.455523
7 0.43258
7.01 0.40808
7.02 0.382164
7.03 0.355077
7.04 0.326969
7.05 0.297989
7.06 0.268282
7.07 0.237989
7.08 0.207207
7.09 0.176111
7.1 0.144819
7.11 0.113429
7.12 0.0820305
7.13 0.0507018
7.14 0.0195198
7.15 -0.01144
7.16 -0.0421379
7.17 -0.0725279
7.18 -0.102567
7.19 -0.132216
7.2 -0.161434
7.21 -0.190132
7.22 -0.218295
7.23 -0.245887
7.24 -0.272857
7.25 -0.299151
7.26 -0.324709
7.27 -0.349446
7.28 -0.373234
7.29 -0.396079
7.3 -0.417914
7.31 -0.438673
7.32 -0.458293
7.33 -0.476716
7.34 -0.493787
7.35 -0.509513
7.36 -0.523908
7.37 -0.536951
7.38 -0.548633
7.39 -0.558959
7.4 -0.567921
7.41 -0.575445
7.42 -0.581708
7.43 -0.586766
7.44 -0.590683
7.45 -0.593534
7.46 -0.595399
7.47 -0.596306
7.48 -0.596378
7.49 -0.595746
7.5 -0.594496
7.51 -0.592712
7.52 -0.590472
7.53 -0.587843
7.54 -0.584858
7.55 -0.581606
7.56 -0.578123
7.57 -0.574434
7.58 -0.57055
7.59 -0.566471
7.6 -0.562172
7.61 -0.557628
7.62 -0.552817
7.63 -0.547699
7.64 -0.542227
7.65 -0.536351
7.66 -0.530021
7.67 -0.523123
7.68 -0.515659
7.69 -0.507591
7.7 -0.498883
7.71 -0.489511
7.72 -0.479459
7.73 -0.468691
7.74 -0.457205
7.75 -0.445076
7.76 -0.432344
7.77 -0.419061
7.78 -0.405294
7.79 -0.391122
7.8 -0.376612
7.81 -0.361902
7.82 -0.347105
7.83 -0.332335
7.84 -0.317708
7.85 -0.303341
7.86 -0.289368
7.87 -0.275936
7.88 -0.263116
7.89 -0.251005
7.9 -0.239684
7.91 -0.229227
7.92 -0.219692
7.93 -0.211212
7.94 -0.203757
7.95 -0.197309
7.96 -0.191863
7.97 -0.187399
7.98 -0.183884
7.99 -0.181294
8 -0.179619
8.01 -0.17871
8.02 -0.178495
8.03 -0.178895
8.04 -0.179832
8.05 -0.181225
8.06 -0.183022
8.07 -0.185126
8.08 -0.187458
8.09 -0.189959
8.1 -0.192582
8.11 -0.195286
8.12 -0.198042
8.13 -0.200829
8.14 -0.203634
8.15 -0.206453
8.16 -0.209292
8.17 -0.212158
8.18 -0.215062
8.19 -0.21802
8.2 -0.221043
8.21 -0.224134
8.22 -0.227292
8.23 -0.230507
8.24 -0.233761
8.25 -0.237024
8.26 -0.240242
8.27 -0.243358
8.28 -0.246298
8.29 -0.24898
8.3 -0.251307
8.31 -0.253173
8.32 -0.254425
8.33 -0.254919
8.34 -0.254566
8.35 -0.25324
8.36 -0.250819
8.37 -0.247184
8.38 -0.242226
8.39 -0.235682
8.4 -0.227606
8.41 -0.217946
8.42 -0.206654
8.43 -0.193704
8.44 -0.179088
8.45 -0.162747
8.46 -0.144678
8.47 -0.125056
8.48 -0.103956
8.49 -0.0814663
8.5 -0.0576888
8.51 -0.0327359
8.52 -0.00663551
8.53 0.0203902
8.54 0.0481963
8.55 0.0766599
8.56 0.105663
8.57 0.135094
8.58 0.164858
8.59 0.194865
8.6 0.225011
8.61 0.255231
8.62 0.285473
8.63 0.315692
8.64 0.345857
8.65 0.375934
8.66 0.405904
8.67 0.435757
8.68 0.465475
8.69 0.49504
8.7 0.524428
8.71 0.553602
8.72 0.582494
8.73 0.611065
8.74 0.639244
8.75 0.666943
8.76 0.694057
8.77 0.720469
8.78 0.745971
8.79 0.770422
8.8 0.793698
8.81 0.815628
8.82 0.83604
8.83 0.854757
8.84 0.871578
8.85 0.886122
8.86 0.898432
8.87 0.908359
8.88 0.915772
8.89 0.920557
8.9 0.922624
8.91 0.921716
8.92 0.91782
8.93 0.911068
8.94 0.901469
8.95 0.889055
8.96 0.873882
8.97 0.856025
8.98 0.835296
8.99 0.812121
9 0.786629
9.01 0.75896
9.02 0.729264
9.03 0.697693
9.04 0.664319
9.05 0.629305
9.06 0.592912
9.07 0.555287
9.08 0.516576
9.09 0.476914
9.1 0.436435
9.11 0.395205
9.12 0.353424
9.13 0.311215
9.14 0.268695
9.15 0.225978
9.16 0.183178
9.17 0.140422
9.18 0.0978562
9.19 0.055605
9.2 0.0138055
9.21 -0.0273984
9.22 -0.0678546
9.23 -0.107404
9.24 -0.145759
9.25 -0.182808
9.26 -0.218396
9.27 -0.252342
9.28 -0.284469
9.29 -0.314598
9.3 -0.342487
9.31 -0.367828
9.32 -0.390662
9.33 -0.410859
9.34 -0.428307
9.35 -0.442914
9.36 -0.454609
9.37 -0.463096
9.38 -0.468508
9.39 -0.470954
9.4 -0.47047
9.41 -0.467117
9.42 -0.460979
9.43 -0.45211
9.44 -0.440459
9.45 -0.426429
9.46 -0.41018
9.47 -0.391879
9.48 -0.371705
9.49 -0.349836
9.5 -0.326357
9.51 -0.301515
9.52 -0.27555
9.53 -0.248627
9.54 -0.220902
9.55 -0.192523
9.56 -0.16362
9.57 -0.134295
9.58 -0.10471
9.59 -0.0749654
9.6 -0.0451506
9.61 -0.0153482
9.62 0.0143662
9.63 0.0439076
9.64 0.0731997
9.65 0.102185
9.66 0.130798
9.67 0.158968
9.68 0.186623
9.69 0.213685
9.7 0.239983
9.71 0.265498
9.72 0.290135
9.73 0.313796
9.74 0.336377
9.75 0.357772
9.76 0.377804
9.77 0.396333
9.78 0.413343
9.79 0.428739
9.8 0.442435
9.81 0.454352
9.82 0.464427
9.83 0.472407
9.84 0.478427
9.85 0.482499
9.86 0.484623
9.87 0.484822
9.88 0.483133
9.89 0.479542
9.9 0.474071
9.91 0.466949
9.92 0.458284
9.93 0.44819
9.94 0.436795
9.95 0.42423
9.96 0.410549
9.97 0.395979
9.98 0.380682
9.99 0.364791
10 0.348433
10.01 0.33173
10.02 0.314787
10.03 0.297707
10.04 0.280594
10.05 0.263518
10.06 0.246537
10.07 0.229695
10.08 0.213026
10.09 0.196565
10.1 0.180314
10.11 0.164262
10.12 0.148402
10.13 0.132717
10.14 0.11719
10.15 0.1018
10.16 0.0865332
10.17 0.0713575
10.18 0.0562567
10.19 0.0412198
10.2 0.0262415
10.21 0.011323
10.22 -0.00352113
10.23 -0.0182729
10.24 -0.0329098
10.25 -0.0473992
10.26 -0.0617022
10.27 -0.0757742
10.28 -0.0895641
10.29 -0.102979
10.3 -0.115999
10.31 -0.12857
10.32 -0.140641
10.33 -0.152167
10.34 -0.163106
10.35 -0.173386
10.36 -0.182979
10.37 -0.191909
10.38 -0.200172
10.39 -0.207777
10.4 -0.214743
10.41 -0.221102
10.42 -0.226838
10.43 -0.232073
10.44 -0.236874
10.45 -0.241314
10.46 -0.245471
10.47 -0.249431
10.48 -0.253278
10.49 -0.257113
10.5 -0.261029
10.51 -0.265107
10.52 -0.269424
10.53 -0.274049
10.54 -0.279041
10.55 -0.284495
10.56 -0.290413
10.57 -0.29681
10.58 -0.303692
10.59 -0.311054
10.6 -0.318875
10.61 -0.327137
10.62 -0.335804
10.63 -0.344785
10.64 -0.354014
10.65 -0.363419
10.66 -0.372921
10.67 -0.38244
10.68 -0.391884
10.69 -0.401167
10.7 -0.410218
10.71 -0.418969
10.72 -0.427362
10.73 -0.435345
10.74 -0.442868
10.75 -0.449869
10.76 -0.456379
10.77 -0.462396
10.78 -0.467932
10.79 -0.47301
10.8 -0.477664
10.81 -0.481907
10.82 -0.485813
10.83 -0.48945
10.84 -0.492876
10.85 -0.49615
10.86 -0.499327
10.87 -0.502461
10.88 -0.505603
10.89 -0.508796
10.9 -0.512066
10.91 -0.515431
10.92 -0.518895
10.93 -0.522452
10.94 -0.526087
10.95 -0.529759
10.96 -0.533419
10.97 -0.537011
10.98 -0.540469
10.99 -0.54372
11 -0.546684
11.01 -0.549228
11.02 -0.551301
11.03 -0.55282
11.04 -0.553703
11.05 -0.553875
11.06 -0.553267
11.07 -0.551766
11.08 -0.549313
11.09 -0.545922
11.1 -0.541567
11.11 -0.536234
11.12 -0.529924
11.13 -0.522646
11.14 -0.514324
11.15 -0.505093
11.16 -0.495006
11.17 -0.484116
11.18 -0.472482
11.19 -0.460171
11.2 -0.447226
11.21 -0.433714
11.22 -0.41975
11.23 -0.405403
11.24 -0.390739
11.25 -0.375821
11.26 -0.360708
11.27 -0.345441
11.28 -0.330085
11.29 -0.314678
11.3 -0.299253
11.31 -0.283835
11.32 -0.268443
11.33 -0.253091
11.34 -0.237789
11.35 -0.222535
11.36 -0.207326
11.37 -0.192155
11.38 -0.177013
11.39 -0.161887
11.4 -0.146762
11.41 -0.131621
11.42 -0.116446
11.43 -0.10122
11.44 -0.0859248
11.45 -0.0705411
11.46 -0.0550471
11.47 -0.0394124
11.48 -0.0236276
11.49 -0.00767297
11.5 0.00847126
11.51 0.024825
11.52 0.0414082
11.53 0.058261
11.54 0.0753955
11.55 0.0928195
11.56 0.110549
11.57 0.128599
11.58 0.146981
11.59 0.165708
11.6 0.184817
11.61 0.204272
11.62 0.224067
11.63 0.244191
11.64 0.264625
11.65 0.285347
11.66 0.306339
11.67 0.327554
11.68 0.348931
11.69 0.370416
11.7 0.391951
11.71 0.413468
11.72 0.434896
11.73 0.456129
11.74 0.4771
11.75 0.497724
11.76 0.517916
11.77 0.537589
11.78 0.556658
11.79 0.574995
11.8 0.592501
11.81 0.60914
11.82 0.62484
11.83 0.639531
11.84 0.653149
11.85 0.665636
11.86 0.676808
11.87 0.68673
11.88 0.695376
11.89 0.702711
11.9 0.708709
11.91 0.713346
11.92 0.716543
11.93 0.718244
11.94 0.71854
11.95 0.717426
11.96 0.714897
11.97 0.710953
11.98 0.705595
11.99 0.698691
12 0.690356
12.01 0.680626
12.02 0.669514
12.03 0.657034
12.04 0.643204
12.05 0.628004
12.06 0.611398
12.07 0.593532
12.08 0.574446
12.09 0.554189
12.1 0.532814
12.11 0.510384
12.12 0.486894
12.13 0.46249
12.14 0.437292
12.15 0.411402
12.16 0.384928
12.17 0.357987
12.18 0.330698
12.19 0.303194
12.2 0.275642
12.21 0.248184
12.22 0.220961
12.23 0.194119
12.24 0.167799
12.25 0.142203
12.26 0.117461
12.27 0.0936739
