# xPDFsuite Configuration #
[PDF]
wavelength = 0.1
dataformat = QA
inputfile = BiMsol6_insitu_700 C-00012.xy
backgroundfile = Quartz2mm-dist500-00000.xy
mode = xray
bgscale = 0.0042
composition = Bi2Fe4O9
outputtype = gr
qmaxinst = 24.998449118
qmin = 0.1
qmax = 21.4986662415
rmax = 80.0
rmin = 0.0
rstep = 0.01
rpoly = 0.9

[Misc]
inputdir = C:/Data/Seafile/CPH/Beamtime/Desy Oct 20/In situ data/Processed/BiMsol6/PDF
savedir = C:/Data/Seafile/CPH/Beamtime/Desy Oct 20/In situ data/PDF/BiMsol6
backgroundfilefull = C:/Data/Seafile/CPH/Beamtime/Desy Oct 20/In situ data/Processed/Standard_Empty_Cap/Quartz2mm-dist500-00000.xy

#### start data
#S 1
#L r($\AA$)  G($\AA^{-2}$)
0 0
0.01 0.00681767
0.02 0.0132535
0.03 0.0189806
0.04 0.0237057
0.05 0.0271828
0.06 0.0292241
0.07 0.0296243
0.08 0.0283237
0.09 0.0254734
0.1 0.0211976
0.11 0.015689
0.12 0.00920075
0.13 0.00203438
0.14 -0.00547105
0.15 -0.0128885
0.16 -0.0198576
0.17 -0.0260404
0.18 -0.031134
0.19 -0.0348852
0.2 -0.0370338
0.21 -0.0374021
0.22 -0.0360932
0.23 -0.0331765
0.24 -0.0288038
0.25 -0.0232043
0.26 -0.0166754
0.27 -0.00955528
0.28 -0.00233188
0.29 0.00456081
0.3 0.0107018
0.31 0.0156909
0.32 0.0191689
0.33 0.0207723
0.34 0.020146
0.35 0.0173446
0.36 0.0123656
0.37 0.00531592
0.38 -0.00358727
0.39 -0.0140194
0.4 -0.0256048
0.41 -0.0376976
0.42 -0.0496644
0.43 -0.0608624
0.44 -0.0706279
0.45 -0.0783005
0.46 -0.083184
0.47 -0.084384
0.48 -0.0817105
0.49 -0.0748071
0.5 -0.063446
0.51 -0.0475427
0.52 -0.0271661
0.53 -0.0022635
0.54 0.0265795
0.55 0.0585993
0.56 0.0930843
0.57 0.129206
0.58 0.166041
0.59 0.202589
0.6 0.237563
0.61 0.269987
0.62 0.298867
0.63 0.323278
0.64 0.342393
0.65 0.355511
0.66 0.361651
0.67 0.360441
0.68 0.352102
0.69 0.336677
0.7 0.314405
0.71 0.285707
0.72 0.251181
0.73 0.211104
0.74 0.167038
0.75 0.120018
0.76 0.0711293
0.77 0.0214951
0.78 -0.0277618
0.79 -0.0754221
0.8 -0.12028
0.81 -0.161545
0.82 -0.198449
0.83 -0.230369
0.84 -0.256848
0.85 -0.277601
0.86 -0.291928
0.87 -0.300463
0.88 -0.303568
0.89 -0.301676
0.9 -0.29535
0.91 -0.285262
0.92 -0.27208
0.93 -0.256646
0.94 -0.240016
0.95 -0.22301
0.96 -0.206407
0.97 -0.190922
0.98 -0.177182
0.99 -0.165957
1 -0.157524
1.01 -0.152065
1.02 -0.14969
1.03 -0.150381
1.04 -0.154
1.05 -0.160363
1.06 -0.169212
1.07 -0.179878
1.08 -0.191876
1.09 -0.204695
1.1 -0.217819
1.11 -0.230748
1.12 -0.242931
1.13 -0.253945
1.14 -0.2635
1.15 -0.271358
1.16 -0.277373
1.17 -0.281488
1.18 -0.283708
1.19 -0.284032
1.2 -0.282856
1.21 -0.280451
1.22 -0.277134
1.23 -0.273246
1.24 -0.269141
1.25 -0.265198
1.26 -0.261776
1.27 -0.259137
1.28 -0.257495
1.29 -0.256999
1.3 -0.257727
1.31 -0.25969
1.32 -0.26292
1.33 -0.267122
1.34 -0.272075
1.35 -0.277508
1.36 -0.283114
1.37 -0.288564
1.38 -0.293471
1.39 -0.297464
1.4 -0.300284
1.41 -0.301685
1.42 -0.301481
1.43 -0.299551
1.44 -0.295848
1.45 -0.290223
1.46 -0.283
1.47 -0.274397
1.48 -0.26469
1.49 -0.254213
1.5 -0.243345
1.51 -0.232517
1.52 -0.222223
1.53 -0.212871
1.54 -0.204849
1.55 -0.198501
1.56 -0.194112
1.57 -0.191899
1.58 -0.192231
1.59 -0.194943
1.6 -0.199922
1.61 -0.207
1.62 -0.21592
1.63 -0.226343
1.64 -0.237885
1.65 -0.250037
1.66 -0.262208
1.67 -0.27387
1.68 -0.284499
1.69 -0.293594
1.7 -0.300692
1.71 -0.305144
1.72 -0.306743
1.73 -0.305337
1.74 -0.300802
1.75 -0.293116
1.76 -0.28236
1.77 -0.26865
1.78 -0.252138
1.79 -0.233464
1.8 -0.213078
1.81 -0.191479
1.82 -0.169199
1.83 -0.146785
1.84 -0.124853
1.85 -0.103968
1.86 -0.0845713
1.87 -0.0670595
1.88 -0.0517536
1.89 -0.0388878
1.9 -0.0286413
1.91 -0.0212806
1.92 -0.0164592
1.93 -0.014006
1.94 -0.0136677
1.95 -0.0151195
1.96 -0.0179798
1.97 -0.0218608
1.98 -0.0262313
1.99 -0.0305967
2 -0.0345265
2.01 -0.0376262
2.02 -0.0395531
2.03 -0.0400238
2.04 -0.0386422
2.05 -0.035488
2.06 -0.0305604
2.07 -0.0239492
2.08 -0.0158313
2.09 -0.0064645
2.1 0.00385145
2.11 0.0146634
2.12 0.0254783
2.13 0.0358331
2.14 0.0452596
2.15 0.053302
2.16 0.0595342
2.17 0.0633004
2.18 0.064486
2.19 0.0628826
2.2 0.0583491
2.21 0.0508341
2.22 0.0403783
2.23 0.0269964
2.24 0.0108842
2.25 -0.00743986
2.26 -0.0275906
2.27 -0.0491297
2.28 -0.0715799
2.29 -0.0944417
2.3 -0.11715
2.31 -0.139165
2.32 -0.160032
2.33 -0.179335
2.34 -0.196719
2.35 -0.211895
2.36 -0.22456
2.37 -0.234451
2.38 -0.241743
2.39 -0.246489
2.4 -0.248818
2.41 -0.248927
2.42 -0.247076
2.43 -0.243457
2.44 -0.238557
2.45 -0.232797
2.46 -0.226552
2.47 -0.220194
2.48 -0.21407
2.49 -0.208519
2.5 -0.203907
2.51 -0.200389
2.52 -0.19812
2.53 -0.197197
2.54 -0.197659
2.55 -0.199483
2.56 -0.202683
2.57 -0.207064
2.58 -0.212398
2.59 -0.218481
2.6 -0.225084
2.61 -0.231971
2.62 -0.238899
2.63 -0.245594
2.64 -0.251847
2.65 -0.257478
2.66 -0.262337
2.67 -0.266309
2.68 -0.26932
2.69 -0.271268
2.7 -0.272175
2.71 -0.27214
2.72 -0.271242
2.73 -0.269584
2.74 -0.267287
2.75 -0.264486
2.76 -0.261296
2.77 -0.257911
2.78 -0.25446
2.79 -0.251056
2.8 -0.247795
2.81 -0.244749
2.82 -0.241981
2.83 -0.239516
2.84 -0.237325
2.85 -0.235374
2.86 -0.233611
2.87 -0.231962
2.88 -0.230346
2.89 -0.228654
2.9 -0.226789
2.91 -0.224664
2.92 -0.222198
2.93 -0.219322
2.94 -0.215987
2.95 -0.212135
2.96 -0.207741
2.97 -0.202853
2.98 -0.197505
2.99 -0.191746
3 -0.185641
3.01 -0.179268
3.02 -0.172703
3.03 -0.166055
3.04 -0.159415
3.05 -0.152861
3.06 -0.14646
3.07 -0.140264
3.08 -0.134319
3.09 -0.128653
3.1 -0.123235
3.11 -0.118035
3.12 -0.113002
3.13 -0.108068
3.14 -0.103151
3.15 -0.0981397
3.16 -0.0929237
3.17 -0.0874001
3.18 -0.0814659
3.19 -0.0750249
3.2 -0.0679914
3.21 -0.0602791
3.22 -0.0517751
3.23 -0.0425154
3.24 -0.0324914
3.25 -0.0217155
3.26 -0.0102202
3.27 0.00194391
3.28 0.0147487
3.29 0.0280838
3.3 0.0418341
3.31 0.0559063
3.32 0.0702078
3.33 0.084651
3.34 0.0991568
3.35 0.113652
3.36 0.128083
3.37 0.142422
3.38 0.156657
3.39 0.170795
3.4 0.18486
3.41 0.198895
3.42 0.212961
3.43 0.227125
3.44 0.241455
3.45 0.256017
3.46 0.270875
3.47 0.286079
3.48 0.301714
3.49 0.317754
3.5 0.334186
3.51 0.350978
3.52 0.368066
3.53 0.385365
3.54 0.402755
3.55 0.420074
3.56 0.437151
3.57 0.453802
3.58 0.469834
3.59 0.485045
3.6 0.499233
3.61 0.512053
3.62 0.523415
3.63 0.53317
3.64 0.541176
3.65 0.547319
3.66 0.551516
3.67 0.553636
3.68 0.553594
3.69 0.551572
3.7 0.547634
3.71 0.541874
3.72 0.534416
3.73 0.525406
3.74 0.5149
3.75 0.503199
3.76 0.490529
3.77 0.477082
3.78 0.463051
3.79 0.448616
3.8 0.433945
3.81 0.419203
3.82 0.404536
3.83 0.390046
3.84 0.375815
3.85 0.361901
3.86 0.348338
3.87 0.335171
3.88 0.322376
3.89 0.309917
3.9 0.297762
3.91 0.285871
3.92 0.2742
3.93 0.262709
3.94 0.251365
3.95 0.240121
3.96 0.228956
3.97 0.217858
3.98 0.206827
3.99 0.195876
4 0.185035
4.01 0.17434
4.02 0.163825
4.03 0.153535
4.04 0.143515
4.05 0.133808
4.06 0.124457
4.07 0.115537
4.08 0.107028
4.09 0.0989391
4.1 0.0912644
4.11 0.0839862
4.12 0.0770731
4.13 0.0704971
4.14 0.0641923
4.15 0.0580751
4.16 0.0520746
4.17 0.0461179
4.18 0.0401327
4.19 0.0340517
4.2 0.0277922
4.21 0.0213204
4.22 0.0146065
4.23 0.0076363
4.24 0.00041328
4.25 -0.00704065
4.26 -0.0146918
4.27 -0.0224745
4.28 -0.0302996
4.29 -0.0380784
4.3 -0.0457135
4.31 -0.0531021
4.32 -0.0601408
4.33 -0.066673
4.34 -0.072637
4.35 -0.0779619
4.36 -0.0825859
4.37 -0.0864662
4.38 -0.0895814
4.39 -0.0919046
4.4 -0.093437
4.41 -0.094293
4.42 -0.0945476
4.43 -0.0942951
4.44 -0.0936452
4.45 -0.09272
4.46 -0.0916482
4.47 -0.0905874
4.48 -0.0896704
4.49 -0.0890179
4.5 -0.0887384
4.51 -0.0889233
4.52 -0.0896595
4.53 -0.0910349
4.54 -0.093016
4.55 -0.0955924
4.56 -0.0987279
4.57 -0.102362
4.58 -0.106411
4.59 -0.110789
4.6 -0.115348
4.61 -0.119944
4.62 -0.124443
4.63 -0.128711
4.64 -0.132616
4.65 -0.136032
4.66 -0.138793
4.67 -0.14087
4.68 -0.142206
4.69 -0.14277
4.7 -0.142555
4.71 -0.141581
4.72 -0.13985
4.73 -0.137459
4.74 -0.134538
4.75 -0.131197
4.76 -0.127562
4.77 -0.123764
4.78 -0.119939
4.79 -0.116247
4.8 -0.112812
4.81 -0.109747
4.82 -0.107148
4.83 -0.105093
4.84 -0.10364
4.85 -0.102861
4.86 -0.102768
4.87 -0.103306
4.88 -0.104437
4.89 -0.106108
4.9 -0.108247
4.91 -0.11077
4.92 -0.113608
4.93 -0.116624
4.94 -0.119722
4.95 -0.122809
4.96 -0.125803
4.97 -0.128631
4.98 -0.131221
4.99 -0.133519
5 -0.135518
5.01 -0.137212
5.02 -0.138607
5.03 -0.139728
5.04 -0.140608
5.05 -0.141277
5.06 -0.141807
5.07 -0.142257
5.08 -0.14268
5.09 -0.143127
5.1 -0.143639
5.11 -0.144257
5.12 -0.14501
5.13 -0.145896
5.14 -0.14691
5.15 -0.148033
5.16 -0.149234
5.17 -0.15047
5.18 -0.151684
5.19 -0.152814
5.2 -0.1538
5.21 -0.154582
5.22 -0.155104
5.23 -0.155317
5.24 -0.155174
5.25 -0.154619
5.26 -0.153674
5.27 -0.152346
5.28 -0.150654
5.29 -0.148634
5.3 -0.146335
5.31 -0.143808
5.32 -0.141141
5.33 -0.138424
5.34 -0.135735
5.35 -0.133157
5.36 -0.130764
5.37 -0.128628
5.38 -0.126838
5.39 -0.125403
5.4 -0.124343
5.41 -0.123661
5.42 -0.123339
5.43 -0.123342
5.44 -0.123628
5.45 -0.124112
5.46 -0.124693
5.47 -0.125277
5.48 -0.125763
5.49 -0.126047
5.5 -0.126031
5.51 -0.125569
5.52 -0.124619
5.53 -0.12312
5.54 -0.121031
5.55 -0.11833
5.56 -0.115016
5.57 -0.111085
5.58 -0.106588
5.59 -0.101634
5.6 -0.0963152
5.61 -0.0907352
5.62 -0.0850107
5.63 -0.0792642
5.64 -0.0736443
5.65 -0.0682727
5.66 -0.0632583
5.67 -0.0586966
5.68 -0.0546656
5.69 -0.0512217
5.7 -0.0484255
5.71 -0.0462994
5.72 -0.0447721
5.73 -0.0437924
5.74 -0.0432856
5.75 -0.0431565
5.76 -0.0432926
5.77 -0.0435688
5.78 -0.0438253
5.79 -0.043924
5.8 -0.043734
5.81 -0.0431339
5.82 -0.0420173
5.83 -0.0402746
5.84 -0.0378026
5.85 -0.0346229
5.86 -0.0307333
5.87 -0.0261606
5.88 -0.0209595
5.89 -0.0152111
5.9 -0.00899278
5.91 -0.0024718
5.92 0.00419616
5.93 0.0108607
5.94 0.0173691
5.95 0.0235726
5.96 0.0293194
5.97 0.0344304
5.98 0.0388538
5.99 0.0425185
6 0.045383
6.01 0.0474365
6.02 0.0487002
6.03 0.0491781
6.04 0.0489937
6.05 0.0482943
6.06 0.0472187
6.07 0.0459226
6.08 0.0445728
6.09 0.0433441
6.1 0.0424541
6.11 0.0420447
6.12 0.0422578
6.13 0.0432133
6.14 0.0450042
6.15 0.0476927
6.16 0.0513664
6.17 0.0560024
6.18 0.0614996
6.19 0.0677729
6.2 0.0747061
6.21 0.0821556
6.22 0.0899556
6.23 0.0979206
6.24 0.105819
6.25 0.113456
6.26 0.12064
6.27 0.127194
6.28 0.132957
6.29 0.13774
6.3 0.141412
6.31 0.14397
6.32 0.145385
6.33 0.145664
6.34 0.144852
6.35 0.143025
6.36 0.140211
6.37 0.136652
6.38 0.132519
6.39 0.127991
6.4 0.123252
6.41 0.118489
6.42 0.113896
6.43 0.109676
6.44 0.105958
6.45 0.102862
6.46 0.100481
6.47 0.0988739
6.48 0.0980686
6.49 0.0981301
6.5 0.0989514
6.51 0.100437
6.52 0.102483
6.53 0.104962
6.54 0.107733
6.55 0.11064
6.56 0.1135
6.57 0.116148
6.58 0.118435
6.59 0.120228
6.6 0.121413
6.61 0.121899
6.62 0.121554
6.63 0.120381
6.64 0.118408
6.65 0.115664
6.66 0.11221
6.67 0.108126
6.68 0.103509
6.69 0.0984677
6.7 0.0931852
6.71 0.0878025
6.72 0.0824604
6.73 0.0772938
6.74 0.0724273
6.75 0.0680073
6.76 0.0641223
6.77 0.0608159
6.78 0.0581262
6.79 0.0560663
6.8 0.0546244
6.81 0.053769
6.82 0.0534861
6.83 0.0536323
6.84 0.0541127
6.85 0.0548225
6.86 0.0556515
6.87 0.0564889
6.88 0.0572152
6.89 0.0577188
6.9 0.0579232
6.91 0.0577616
6.92 0.0571858
6.93 0.0561674
6.94 0.0546985
6.95 0.0527452
6.96 0.0503947
6.97 0.0477015
6.98 0.0447329
6.99 0.0415664
7 0.0382861
7.01 0.0349825
7.02 0.0317543
7.03 0.0286806
7.04 0.0258297
7.05 0.023257
7.06 0.0210024
7.07 0.0190886
7.08 0.0175544
7.09 0.0163504
7.1 0.0154357
7.11 0.0147585
7.12 0.0142541
7.13 0.0138472
7.14 0.0134529
7.15 0.0129712
7.16 0.012319
7.17 0.0114192
7.18 0.0102046
7.19 0.0086208
7.2 0.00662964
7.21 0.00417146
7.22 0.00127825
7.23 -0.00201375
7.24 -0.00565904
7.25 -0.00959338
7.26 -0.0137358
7.27 -0.0179911
7.28 -0.0222387
7.29 -0.0263561
7.3 -0.0302279
7.31 -0.0337415
7.32 -0.0367915
7.33 -0.0392835
7.34 -0.0410813
7.35 -0.0421482
7.36 -0.0424733
7.37 -0.0420456
7.38 -0.0408777
7.39 -0.0390062
7.4 -0.036481
7.41 -0.0333484
7.42 -0.0297756
7.43 -0.0258806
7.44 -0.0217921
7.45 -0.0176449
7.46 -0.0135756
7.47 -0.0097424
7.48 -0.00628337
7.49 -0.00329911
7.5 -0.000884876
7.51 0.000883168
7.52 0.0019503
7.53 0.00228042
7.54 0.00178958
7.55 0.000582068
7.56 -0.00129747
7.57 -0.00378392
7.58 -0.00679431
7.59 -0.0102309
7.6 -0.0139964
7.61 -0.0179556
7.62 -0.0219721
7.63 -0.0259292
7.64 -0.0297164
7.65 -0.0332332
7.66 -0.0363924
7.67 -0.0390686
7.68 -0.0412527
7.69 -0.0429185
7.7 -0.0440576
7.71 -0.0446813
7.72 -0.0448198
7.73 -0.0445026
7.74 -0.0437952
7.75 -0.0428045
7.76 -0.0416162
7.77 -0.0403204
7.78 -0.0390089
7.79 -0.0377711
7.8 -0.0367146
7.81 -0.0359082
7.82 -0.03541
7.83 -0.0352671
7.84 -0.0355115
7.85 -0.0361587
7.86 -0.0372219
7.87 -0.0386961
7.88 -0.0405124
7.89 -0.0426205
7.9 -0.0449588
7.91 -0.0474562
7.92 -0.0500349
7.93 -0.0526055
7.94 -0.0550751
7.95 -0.0573639
7.96 -0.0593966
7.97 -0.0611052
7.98 -0.0624313
7.99 -0.0633157
8 -0.06369
8.01 -0.0635765
8.02 -0.0629711
8.03 -0.0618833
8.04 -0.0603356
8.05 -0.0583623
8.06 -0.0559834
8.07 -0.0532772
8.08 -0.0503216
8.09 -0.0471854
8.1 -0.04394
8.11 -0.0406581
8.12 -0.0374132
8.13 -0.0342917
8.14 -0.031352
8.15 -0.0286515
8.16 -0.0262405
8.17 -0.024161
8.18 -0.0224467
8.19 -0.0211495
8.2 -0.0202786
8.21 -0.0198183
8.22 -0.0197639
8.23 -0.0201024
8.24 -0.0208132
8.25 -0.02187
8.26 -0.023269
8.27 -0.0249316
8.28 -0.0268136
8.29 -0.0288675
8.3 -0.0310435
8.31 -0.03329
8.32 -0.0355527
8.33 -0.0377712
8.34 -0.0398936
8.35 -0.0418705
8.36 -0.0436547
8.37 -0.0452023
8.38 -0.0464728
8.39 -0.0473926
8.4 -0.0479606
8.41 -0.0481551
8.42 -0.0479585
8.43 -0.0473597
8.44 -0.0463543
8.45 -0.0449277
8.46 -0.0430823
8.47 -0.0408666
8.48 -0.0383075
8.49 -0.0354384
8.5 -0.0322991
8.51 -0.0289347
8.52 -0.0253833
8.53 -0.0217191
8.54 -0.0180017
8.55 -0.0142885
8.56 -0.0106364
8.57 -0.00710041
8.58 -0.00373966
8.59 -0.000617381
8.6 0.0022418
8.61 0.00480595
8.62 0.00705133
8.63 0.00896306
8.64 0.0105355
8.65 0.0117445
8.66 0.0126254
8.67 0.0132126
8.68 0.0135381
8.69 0.0136407
8.7 0.0135646
8.71 0.0133566
8.72 0.0130684
8.73 0.0127628
8.74 0.0124896
8.75 0.0122953
8.76 0.0122216
8.77 0.0123042
8.78 0.0125869
8.79 0.0130842
8.8 0.0137967
8.81 0.0147235
8.82 0.0158543
8.83 0.0171701
8.84 0.0186452
8.85 0.0202521
8.86 0.0219338
8.87 0.0236452
8.88 0.0253395
8.89 0.0269694
8.9 0.0284891
8.91 0.029843
8.92 0.0309905
8.93 0.0319096
8.94 0.0325776
8.95 0.0329802
8.96 0.0331117
8.97 0.032975
8.98 0.032555
8.99 0.0319049
9 0.031054
9.01 0.0300375
9.02 0.0288953
9.03 0.02767
9.04 0.0264062
9.05 0.0251546
9.06 0.0239584
9.07 0.0228549
9.08 0.0218765
9.09 0.0210494
9.1 0.0203927
9.11 0.0199376
9.12 0.0196691
9.13 0.0195792
9.14 0.0196547
9.15 0.0198758
9.16 0.0202175
9.17 0.0206527
9.18 0.0211463
9.19 0.0216582
9.2 0.0221551
9.21 0.0226059
9.22 0.0229823
9.23 0.0232609
9.24 0.023411
9.25 0.0234288
9.26 0.023313
9.27 0.0230665
9.28 0.0226983
9.29 0.0222236
9.3 0.0216608
9.31 0.0210348
9.32 0.0203807
9.33 0.0197278
9.34 0.0191056
9.35 0.0185421
9.36 0.0180624
9.37 0.0176987
9.38 0.0174629
9.39 0.0173609
9.4 0.0173956
9.41 0.0175633
9.42 0.0178539
9.43 0.018253
9.44 0.0187418
9.45 0.0192828
9.46 0.0198453
9.47 0.0203966
9.48 0.0209032
9.49 0.0213323
9.5 0.0216432
9.51 0.0218085
9.52 0.0218117
9.53 0.0216369
9.54 0.0212744
9.55 0.0207215
9.56 0.0199805
9.57 0.0190473
9.58 0.0179605
9.59 0.0167447
9.6 0.0154287
9.61 0.0140449
9.62 0.0126279
9.63 0.0112158
9.64 0.00984881
9.65 0.00855918
9.66 0.00737636
9.67 0.0063255
9.68 0.00542662
9.69 0.00469401
9.7 0.00415616
9.71 0.00379406
9.72 0.0036016
9.73 0.00356741
9.74 0.00367528
9.75 0.00390505
9.76 0.00423726
9.77 0.0046441
9.78 0.00509379
9.79 0.00556173
9.8 0.00602528
9.81 0.00646484
9.82 0.00686466
9.83 0.00720748
9.84 0.007492
9.85 0.00771913
9.86 0.00789417
9.87 0.00802703
9.88 0.00813173
9.89 0.00822605
9.9 0.00833308
9.91 0.00847467
9.92 0.00867195
9.93 0.00894479
9.94 0.00931079
9.95 0.00978422
9.96 0.0103867
9.97 0.0111151
9.98 0.011965
9.99 0.0129295
10 0.0139961
10.01 0.0151472
10.02 0.0163617
10.03 0.0176118
10.04 0.018863
10.05 0.0200842
10.06 0.0212442
10.07 0.0223125
10.08 0.0232608
10.09 0.0240501
10.1 0.0246641
10.11 0.0250931
10.12 0.0253282
10.13 0.025366
10.14 0.0252093
10.15 0.0248637
10.16 0.0243319
10.17 0.0236522
10.18 0.0228483
10.19 0.0219469
10.2 0.0209759
10.21 0.0199639
10.22 0.0189397
10.23 0.0179328
10.24 0.0169658
10.25 0.0160569
10.26 0.0152197
10.27 0.014463
10.28 0.013791
10.29 0.0132098
10.3 0.0127028
10.31 0.0122583
10.32 0.0118617
10.33 0.0114958
10.34 0.0111421
10.35 0.0107805
10.36 0.0103906
10.37 0.00995752
10.38 0.00946915
10.39 0.00891701
10.4 0.00829699
10.41 0.00760962
10.42 0.00685428
10.43 0.00604938
10.44 0.00521015
10.45 0.00435483
10.46 0.00350397
10.47 0.00267937
10.48 0.00190638
10.49 0.00120981
10.5 0.000603589
10.51 0.000101269
10.52 -0.000288466
10.53 -0.000562607
10.54 -0.000724384
10.55 -0.000774799
10.56 -0.000742055
10.57 -0.000651845
10.58 -0.000533653
10.59 -0.000421279
10.6 -0.000351581
10.61 -0.00036762
10.62 -0.000517901
10.63 -0.00083115
10.64 -0.00133892
10.65 -0.00206698
10.66 -0.00303373
10.67 -0.00424896
10.68 -0.00573436
10.69 -0.0074603
10.7 -0.00939617
10.71 -0.0115074
10.72 -0.0137494
10.73 -0.016069
10.74 -0.0184041
10.75 -0.0206759
10.76 -0.0228139
10.77 -0.0247476
10.78 -0.0264089
10.79 -0.0277343
10.8 -0.0286677
10.81 -0.0291247
10.82 -0.0290867
10.83 -0.028553
10.84 -0.0275215
10.85 -0.0260057
10.86 -0.0240353
10.87 -0.0216502
10.88 -0.0188898
10.89 -0.0158712
10.9 -0.0126818
10.91 -0.00941671
10.92 -0.00617638
10.93 -0.00306328
10.94 -0.000201254
10.95 0.0023049
10.96 0.00438103
10.97 0.00595299
10.98 0.00696109
10.99 0.00736228
11 0.007129
11.01 0.00618916
11.02 0.00463482
11.03 0.00250627
11.04 -0.000137462
11.05 -0.00322023
11.06 -0.00665094
11.07 -0.0103335
11.08 -0.014137
11.09 -0.017929
11.1 -0.0215895
11.11 -0.0250017
11.12 -0.028055
11.13 -0.0306491
11.14 -0.0326284
11.15 -0.0339749
11.16 -0.0346445
11.17 -0.03461
11.18 -0.0338647
11.19 -0.0324235
11.2 -0.0302937
11.21 -0.027526
11.22 -0.0242435
11.23 -0.0205372
11.24 -0.0165097
11.25 -0.0122717
11.26 -0.00793849
11.27 -0.00364005
11.28 0.000500095
11.29 0.00437736
11.3 0.00789673
11.31 0.0109762
11.32 0.0135489
11.33 0.015544
11.34 0.0169009
11.35 0.0176578
11.36 0.0178252
11.37 0.0174313
11.38 0.0165203
11.39 0.0151507
11.4 0.0133658
11.41 0.0112793
11.42 0.00898921
11.43 0.00658498
11.44 0.00415545
11.45 0.00178595
11.46 -0.000439112
11.47 -0.00242686
11.48 -0.00413484
11.49 -0.00551891
11.5 -0.00654838
11.51 -0.00720651
11.52 -0.00749036
11.53 -0.00738412
11.54 -0.00692919
11.55 -0.00617646
11.56 -0.00517103
11.57 -0.00396466
11.58 -0.00261353
11.59 -0.00117578
11.6 0.000285638
11.61 0.00170764
11.62 0.00303956
11.63 0.00423694
11.64 0.00526285
11.65 0.00608885
11.66 0.00668035
11.67 0.00703063
11.68 0.00715248
11.69 0.0070558
11.7 0.00675797
11.71 0.0062827
11.72 0.00565852
11.73 0.00490868
11.74 0.00408417
11.75 0.00321963
11.76 0.00234832
11.77 0.00150083
11.78 0.000704018
11.79 -1.49033e-05
11.8 -0.000636586
11.81 -0.00115596
11.82 -0.00156883
11.83 -0.00187634
11.84 -0.00208447
11.85 -0.00220332
