# xPDFsuite Configuration #
[PDF]
wavelength = 0.1
dataformat = QA
inputfile = BiMsol6_insitu_700 C-00329.xy
backgroundfile = Quartz2mm-dist500-00000.xy
mode = xray
bgscale = 0.0042
composition = Bi2Fe4O9
outputtype = gr
qmaxinst = 24.998449118
qmin = 0.1
qmax = 21.4986662415
rmax = 80.0
rmin = 0.0
rstep = 0.01
rpoly = 0.9

[Misc]
inputdir = C:/Data/Seafile/CPH/Beamtime/Desy Oct 20/In situ data/Processed/BiMsol6/PDF
savedir = C:/Data/Seafile/CPH/Beamtime/Desy Oct 20/In situ data/PDF/BiMsol6
backgroundfilefull = C:/Data/Seafile/CPH/Beamtime/Desy Oct 20/In situ data/Processed/Standard_Empty_Cap/Quartz2mm-dist500-00000.xy

#### start data
#S 1
#L r($\AA$)  G($\AA^{-2}$)
0 0
0.01 0.00645098
0.02 0.012537
0.03 0.0179459
0.04 0.0223974
0.05 0.0256566
0.06 0.0275444
0.07 0.0278653
0.08 0.0265627
0.09 0.0237817
0.1 0.0196419
0.11 0.0143284
0.12 0.00808384
0.13 0.00119728
0.14 -0.00600575
0.15 -0.0131172
0.16 -0.0197927
0.17 -0.0257093
0.18 -0.0305781
0.19 -0.034158
0.2 -0.0362021
0.21 -0.0365426
0.22 -0.0352812
0.23 -0.0324876
0.24 -0.0283104
0.25 -0.0229729
0.26 -0.0167638
0.27 -0.010013
0.28 -0.00319069
0.29 0.00328473
0.3 0.00900703
0.31 0.0135908
0.32 0.0166902
0.33 0.0179556
0.34 0.0170459
0.35 0.0140191
0.36 0.00887682
0.37 0.00172714
0.38 -0.00721444
0.39 -0.0176279
0.4 -0.0291409
0.41 -0.0411205
0.42 -0.0529458
0.43 -0.0639853
0.44 -0.0735863
0.45 -0.0810991
0.46 -0.0858369
0.47 -0.0869143
0.48 -0.0841432
0.49 -0.0771673
0.5 -0.0657557
0.51 -0.0498168
0.52 -0.0294092
0.53 -0.00446478
0.54 0.0244499
0.55 0.0565899
0.56 0.0912639
0.57 0.127664
0.58 0.164888
0.59 0.201955
0.6 0.237611
0.61 0.270876
0.62 0.300764
0.63 0.326353
0.64 0.346812
0.65 0.361431
0.66 0.369221
0.67 0.369783
0.68 0.363302
0.69 0.349789
0.7 0.329445
0.71 0.302653
0.72 0.269967
0.73 0.231606
0.74 0.1891
0.75 0.143443
0.76 0.0956898
0.77 0.0469307
0.78 -0.00173488
0.79 -0.0491206
0.8 -0.0940361
0.81 -0.135673
0.82 -0.173253
0.83 -0.20614
0.84 -0.233857
0.85 -0.256091
0.86 -0.272127
0.87 -0.282538
0.88 -0.287646
0.89 -0.287841
0.9 -0.283647
0.91 -0.275695
0.92 -0.264618
0.93 -0.251217
0.94 -0.236528
0.95 -0.221349
0.96 -0.206447
0.97 -0.19253
0.98 -0.180224
0.99 -0.170295
1 -0.163039
1.01 -0.158658
1.02 -0.157282
1.03 -0.158913
1.04 -0.163434
1.05 -0.170682
1.06 -0.180421
1.07 -0.191999
1.08 -0.204942
1.09 -0.218744
1.1 -0.232892
1.11 -0.24688
1.12 -0.260149
1.13 -0.27226
1.14 -0.282898
1.15 -0.291803
1.16 -0.298804
1.17 -0.303818
1.18 -0.30682
1.19 -0.307771
1.2 -0.30706
1.21 -0.304942
1.22 -0.301723
1.23 -0.297744
1.24 -0.293361
1.25 -0.288955
1.26 -0.284912
1.27 -0.28153
1.28 -0.279059
1.29 -0.277687
1.3 -0.277537
1.31 -0.278664
1.32 -0.281163
1.33 -0.284776
1.34 -0.289325
1.35 -0.294572
1.36 -0.30024
1.37 -0.306018
1.38 -0.311548
1.39 -0.316455
1.4 -0.320451
1.41 -0.323265
1.42 -0.324674
1.43 -0.324515
1.44 -0.322687
1.45 -0.318982
1.46 -0.313648
1.47 -0.306838
1.48 -0.298764
1.49 -0.289699
1.5 -0.279967
1.51 -0.269933
1.52 -0.260044
1.53 -0.250709
1.54 -0.242307
1.55 -0.235188
1.56 -0.229658
1.57 -0.225966
1.58 -0.224508
1.59 -0.225211
1.6 -0.228039
1.61 -0.232904
1.62 -0.239634
1.63 -0.247977
1.64 -0.257646
1.65 -0.268237
1.66 -0.279213
1.67 -0.290112
1.68 -0.300458
1.69 -0.309786
1.7 -0.317654
1.71 -0.323461
1.72 -0.326951
1.73 -0.327919
1.74 -0.326191
1.75 -0.321682
1.76 -0.314396
1.77 -0.304367
1.78 -0.291652
1.79 -0.27678
1.8 -0.260107
1.81 -0.242046
1.82 -0.223051
1.83 -0.203601
1.84 -0.184226
1.85 -0.165464
1.86 -0.147757
1.87 -0.131505
1.88 -0.11705
1.89 -0.104665
1.9 -0.0945831
1.91 -0.0871296
1.92 -0.082075
1.93 -0.0793422
1.94 -0.0787761
1.95 -0.0801515
1.96 -0.0831829
1.97 -0.0876007
1.98 -0.0929562
1.99 -0.0987982
2 -0.10474
2.01 -0.110409
2.02 -0.115467
2.03 -0.119611
2.04 -0.122449
2.05 -0.12393
2.06 -0.123963
2.07 -0.122532
2.08 -0.11969
2.09 -0.115563
2.1 -0.110292
2.11 -0.104164
2.12 -0.0975439
2.13 -0.0907633
2.14 -0.0841694
2.15 -0.0781131
2.16 -0.0729347
2.17 -0.0691128
2.18 -0.0668258
2.19 -0.066284
2.2 -0.0676499
2.21 -0.0710229
2.22 -0.0764358
2.23 -0.0839409
2.24 -0.0934632
2.25 -0.104682
2.26 -0.117367
2.27 -0.131241
2.28 -0.145998
2.29 -0.161303
2.3 -0.1768
2.31 -0.192097
2.32 -0.206866
2.33 -0.220814
2.34 -0.233684
2.35 -0.245263
2.36 -0.255336
2.37 -0.263717
2.38 -0.270496
2.39 -0.275698
2.4 -0.279402
2.41 -0.281738
2.42 -0.282877
2.43 -0.28296
2.44 -0.282308
2.45 -0.281204
2.46 -0.279901
2.47 -0.27865
2.48 -0.277684
2.49 -0.277231
2.5 -0.277538
2.51 -0.278686
2.52 -0.280768
2.53 -0.283831
2.54 -0.28788
2.55 -0.292878
2.56 -0.298805
2.57 -0.305501
2.58 -0.312782
2.59 -0.320482
2.6 -0.32842
2.61 -0.336408
2.62 -0.344257
2.63 -0.35174
2.64 -0.358713
2.65 -0.36504
2.66 -0.370603
2.67 -0.375316
2.68 -0.379117
2.69 -0.381911
2.7 -0.383709
2.71 -0.384583
2.72 -0.384575
2.73 -0.383746
2.74 -0.382161
2.75 -0.379895
2.76 -0.376959
2.77 -0.373497
2.78 -0.369564
2.79 -0.365202
2.8 -0.360438
2.81 -0.355279
2.82 -0.349691
2.83 -0.343635
2.84 -0.337087
2.85 -0.329987
2.86 -0.322264
2.87 -0.313842
2.88 -0.304647
2.89 -0.294509
2.9 -0.283446
2.91 -0.271422
2.92 -0.258413
2.93 -0.244416
2.94 -0.229453
2.95 -0.213537
2.96 -0.196726
2.97 -0.179194
2.98 -0.161067
2.99 -0.142491
3 -0.123624
3.01 -0.104638
3.02 -0.085729
3.03 -0.0670847
3.04 -0.0488672
3.05 -0.0312261
3.06 -0.0142917
3.07 0.00182896
3.08 0.0170259
3.09 0.0311963
3.1 0.0444078
3.11 0.0566826
3.12 0.0680734
3.13 0.0786619
3.14 0.0885549
3.15 0.0978455
3.16 0.106729
3.17 0.115381
3.18 0.123963
3.19 0.132634
3.2 0.141544
3.21 0.150841
3.22 0.160692
3.23 0.171146
3.24 0.182265
3.25 0.194078
3.26 0.206586
3.27 0.219761
3.28 0.233582
3.29 0.247929
3.3 0.262659
3.31 0.277641
3.32 0.292725
3.33 0.307754
3.34 0.322566
3.35 0.336945
3.36 0.350769
3.37 0.363903
3.38 0.376228
3.39 0.387644
3.4 0.398077
3.41 0.407409
3.42 0.415624
3.43 0.422784
3.44 0.428921
3.45 0.434088
3.46 0.438356
3.47 0.441813
3.48 0.44449
3.49 0.446589
3.5 0.448224
3.51 0.449509
3.52 0.450552
3.53 0.451456
3.54 0.452314
3.55 0.453216
3.56 0.454224
3.57 0.455383
3.58 0.456723
3.59 0.458258
3.6 0.45999
3.61 0.461921
3.62 0.464008
3.63 0.466213
3.64 0.468495
3.65 0.470811
3.66 0.473114
3.67 0.475355
3.68 0.477482
3.69 0.479462
3.7 0.481262
3.71 0.482856
3.72 0.484222
3.73 0.485344
3.74 0.486188
3.75 0.486766
3.76 0.487081
3.77 0.487132
3.78 0.486916
3.79 0.486432
3.8 0.485666
3.81 0.48459
3.82 0.483212
3.83 0.481511
3.84 0.479462
3.85 0.477031
3.86 0.474181
3.87 0.470828
3.88 0.466943
3.89 0.462494
3.9 0.457432
3.91 0.45171
3.92 0.445284
3.93 0.438097
3.94 0.43005
3.95 0.421188
3.96 0.411493
3.97 0.400955
3.98 0.389571
3.99 0.37735
4 0.364249
4.01 0.350318
4.02 0.335629
4.03 0.32022
4.04 0.304138
4.05 0.287432
4.06 0.27015
4.07 0.252302
4.08 0.234004
4.09 0.215314
4.1 0.196288
4.11 0.17698
4.12 0.157446
4.13 0.137731
4.14 0.117898
4.15 0.0980089
4.16 0.0781157
4.17 0.0582726
4.18 0.0385344
4.19 0.0189578
4.2 -0.000366373
4.21 -0.0193948
4.22 -0.0380644
4.23 -0.0563092
4.24 -0.0740619
4.25 -0.0912549
4.26 -0.107786
4.27 -0.123569
4.28 -0.138584
4.29 -0.152776
4.3 -0.166096
4.31 -0.178504
4.32 -0.189968
4.33 -0.20037
4.34 -0.209789
4.35 -0.218248
4.36 -0.22577
4.37 -0.232393
4.38 -0.238165
4.39 -0.243121
4.4 -0.247314
4.41 -0.250889
4.42 -0.253933
4.43 -0.256539
4.44 -0.2588
4.45 -0.260806
4.46 -0.262638
4.47 -0.264395
4.48 -0.266147
4.49 -0.267951
4.5 -0.269851
4.51 -0.271875
4.52 -0.27404
4.53 -0.276352
4.54 -0.27878
4.55 -0.281293
4.56 -0.283846
4.57 -0.28639
4.58 -0.288865
4.59 -0.291193
4.6 -0.29331
4.61 -0.295161
4.62 -0.296689
4.63 -0.29785
4.64 -0.298605
4.65 -0.298924
4.66 -0.298757
4.67 -0.298155
4.68 -0.29714
4.69 -0.295745
4.7 -0.29402
4.71 -0.292024
4.72 -0.289817
4.73 -0.287492
4.74 -0.285139
4.75 -0.282843
4.76 -0.280685
4.77 -0.27874
4.78 -0.277083
4.79 -0.275817
4.8 -0.274955
4.81 -0.274533
4.82 -0.27457
4.83 -0.275074
4.84 -0.276039
4.85 -0.277468
4.86 -0.279324
4.87 -0.281539
4.88 -0.284061
4.89 -0.286833
4.9 -0.289797
4.91 -0.29289
4.92 -0.296057
4.93 -0.29923
4.94 -0.30236
4.95 -0.305404
4.96 -0.308329
4.97 -0.311109
4.98 -0.313717
4.99 -0.316138
5 -0.318383
5.01 -0.320452
5.02 -0.322352
5.03 -0.324089
5.04 -0.32567
5.05 -0.327081
5.06 -0.328334
5.07 -0.32942
5.08 -0.330322
5.09 -0.331013
5.1 -0.331457
5.11 -0.331596
5.12 -0.331349
5.13 -0.330675
5.14 -0.329504
5.15 -0.327758
5.16 -0.325359
5.17 -0.322229
5.18 -0.318212
5.19 -0.31328
5.2 -0.307394
5.21 -0.300501
5.22 -0.292564
5.23 -0.283557
5.24 -0.273441
5.25 -0.262148
5.26 -0.249802
5.27 -0.236439
5.28 -0.222107
5.29 -0.206868
5.3 -0.190791
5.31 -0.1739
5.32 -0.156316
5.33 -0.138153
5.34 -0.119493
5.35 -0.100415
5.36 -0.0809939
5.37 -0.0612938
5.38 -0.0413621
5.39 -0.0212757
5.4 -0.0010762
5.41 0.0192017
5.42 0.0395293
5.43 0.0598822
5.44 0.0802366
5.45 0.100566
5.46 0.120844
5.47 0.141036
5.48 0.161102
5.49 0.180987
5.5 0.200626
5.51 0.219891
5.52 0.238712
5.53 0.256975
5.54 0.274553
5.55 0.291304
5.56 0.307078
5.57 0.321644
5.58 0.334807
5.59 0.346478
5.6 0.356502
5.61 0.364736
5.62 0.371051
5.63 0.375337
5.64 0.377273
5.65 0.377012
5.66 0.374551
5.67 0.369903
5.68 0.363114
5.69 0.354264
5.7 0.343383
5.71 0.330587
5.72 0.316191
5.73 0.300391
5.74 0.283404
5.75 0.265454
5.76 0.246774
5.77 0.227571
5.78 0.208135
5.79 0.188686
5.8 0.169419
5.81 0.150506
5.82 0.132094
5.83 0.114326
5.84 0.0973345
5.85 0.0811159
5.86 0.0656919
5.87 0.0510564
5.88 0.0371794
5.89 0.0240103
5.9 0.0115305
5.91 -0.000383736
5.92 -0.0118358
5.93 -0.0229079
5.94 -0.0336756
5.95 -0.0442027
5.96 -0.0545335
5.97 -0.0646846
5.98 -0.0746725
5.99 -0.0844716
6 -0.0940315
6.01 -0.103277
6.02 -0.112112
6.03 -0.120371
6.04 -0.127917
6.05 -0.134629
6.06 -0.140358
6.07 -0.144956
6.08 -0.148284
6.09 -0.150196
6.1 -0.150431
6.11 -0.149062
6.12 -0.14604
6.13 -0.141351
6.14 -0.13501
6.15 -0.127071
6.16 -0.117534
6.17 -0.106558
6.18 -0.0943841
6.19 -0.0811974
6.2 -0.0672047
6.21 -0.0526284
6.22 -0.0377003
6.23 -0.0226688
6.24 -0.00779818
6.25 0.00669426
6.26 0.0206093
6.27 0.0337709
6.28 0.0460306
6.29 0.0572131
6.3 0.0672157
6.31 0.0760675
6.32 0.083767
6.33 0.0903467
6.34 0.0958717
6.35 0.100436
6.36 0.104084
6.37 0.107052
6.38 0.109506
6.39 0.111609
6.4 0.113528
6.41 0.115424
6.42 0.117462
6.43 0.119807
6.44 0.122563
6.45 0.125823
6.46 0.129657
6.47 0.134111
6.48 0.139203
6.49 0.144989
6.5 0.151389
6.51 0.158337
6.52 0.165768
6.53 0.173603
6.54 0.181756
6.55 0.190141
6.56 0.198665
6.57 0.207228
6.58 0.215755
6.59 0.224183
6.6 0.232465
6.61 0.240567
6.62 0.248453
6.63 0.256132
6.64 0.263627
6.65 0.270965
6.66 0.278182
6.67 0.285322
6.68 0.292431
6.69 0.299562
6.7 0.306759
6.71 0.314053
6.72 0.321466
6.73 0.329005
6.74 0.33666
6.75 0.344408
6.76 0.352194
6.77 0.359945
6.78 0.367577
6.79 0.374989
6.8 0.382067
6.81 0.388682
6.82 0.394629
6.83 0.399823
6.84 0.404133
6.85 0.407428
6.86 0.40959
6.87 0.41051
6.88 0.41001
6.89 0.408013
6.9 0.404543
6.91 0.399572
6.92 0.393091
6.93 0.385111
6.94 0.375665
6.95 0.364648
6.96 0.352293
6.97 0.338686
6.98 0.323919
6.99 0.308092
7 0.291306
7.01 0.273628
7.02 0.25516
7.03 0.236053
7.04 0.216396
7.05 0.196266
7.06 0.175736
7.07 0.154865
7.08 0.133679
7.09 0.112251
7.1 0.090618
7.11 0.0688096
7.12 0.0468515
7.13 0.0247686
7.14 0.00258441
7.15 -0.0196693
7.16 -0.0419487
7.17 -0.0642097
7.18 -0.0863996
7.19 -0.108456
7.2 -0.130309
7.21 -0.15184
7.22 -0.17297
7.23 -0.193606
7.24 -0.213645
7.25 -0.232982
7.26 -0.251512
7.27 -0.269102
7.28 -0.285583
7.29 -0.300952
7.3 -0.315134
7.31 -0.328072
7.32 -0.339721
7.33 -0.350057
7.34 -0.358967
7.35 -0.36653
7.36 -0.37283
7.37 -0.377923
7.38 -0.381881
7.39 -0.38479
7.4 -0.386736
7.41 -0.38777
7.42 -0.388102
7.43 -0.387848
7.44 -0.387125
7.45 -0.386043
7.46 -0.384705
7.47 -0.3832
7.48 -0.38162
7.49 -0.380034
7.5 -0.378486
7.51 -0.377005
7.52 -0.375602
7.53 -0.374273
7.54 -0.372998
7.55 -0.371732
7.56 -0.370425
7.57 -0.36902
7.58 -0.367452
7.59 -0.365654
7.6 -0.363536
7.61 -0.36102
7.62 -0.358064
7.63 -0.354615
7.64 -0.350628
7.65 -0.34607
7.66 -0.340917
7.67 -0.335095
7.68 -0.328671
7.69 -0.321669
7.7 -0.314118
7.71 -0.306058
7.72 -0.29754
7.73 -0.288604
7.74 -0.279317
7.75 -0.269774
7.76 -0.260045
7.77 -0.2502
7.78 -0.240308
7.79 -0.230435
7.8 -0.220658
7.81 -0.211031
7.82 -0.201604
7.83 -0.192421
7.84 -0.183519
7.85 -0.174932
7.86 -0.166698
7.87 -0.158857
7.88 -0.151398
7.89 -0.144333
7.9 -0.13767
7.91 -0.131418
7.92 -0.125582
7.93 -0.120204
7.94 -0.115264
7.95 -0.110753
7.96 -0.106677
7.97 -0.103038
7.98 -0.0998412
7.99 -0.0971012
8 -0.0948511
8.01 -0.0930518
8.02 -0.0917034
8.03 -0.0908044
8.04 -0.0903509
8.05 -0.0903365
8.06 -0.0907847
8.07 -0.0916642
8.08 -0.0929426
8.09 -0.0946013
8.1 -0.096619
8.11 -0.0989719
8.12 -0.101638
8.13 -0.104612
8.14 -0.107833
8.15 -0.111271
8.16 -0.114895
8.17 -0.118676
8.18 -0.122583
8.19 -0.126589
8.2 -0.130657
8.21 -0.134753
8.22 -0.138846
8.23 -0.142904
8.24 -0.146893
8.25 -0.15078
8.26 -0.154508
8.27 -0.158051
8.28 -0.161365
8.29 -0.164406
8.3 -0.167124
8.31 -0.169468
8.32 -0.171356
8.33 -0.172719
8.34 -0.173524
8.35 -0.17371
8.36 -0.173217
8.37 -0.171986
8.38 -0.16996
8.39 -0.166987
8.4 -0.163103
8.41 -0.158275
8.42 -0.152472
8.43 -0.145671
8.44 -0.137861
8.45 -0.128992
8.46 -0.119051
8.47 -0.108133
8.48 -0.0962717
8.49 -0.0835088
8.5 -0.0698964
8.51 -0.0554938
8.52 -0.0403023
8.53 -0.0244578
8.54 -0.00804721
8.55 0.00885579
8.56 0.0261786
8.57 0.0438516
8.58 0.0618169
8.59 0.0800184
8.6 0.0983822
8.61 0.116865
8.62 0.135429
8.63 0.154046
8.64 0.172694
8.65 0.191356
8.66 0.210019
8.67 0.228673
8.68 0.24731
8.69 0.265921
8.7 0.284495
8.71 0.303011
8.72 0.321435
8.73 0.339736
8.74 0.35787
8.75 0.375778
8.76 0.393392
8.77 0.410631
8.78 0.427362
8.79 0.443482
8.8 0.4589
8.81 0.473495
8.82 0.487145
8.83 0.499724
8.84 0.511092
8.85 0.520993
8.86 0.529444
8.87 0.536343
8.88 0.541602
8.89 0.545148
8.9 0.546924
8.91 0.546773
8.92 0.544699
8.93 0.540801
8.94 0.535105
8.95 0.527652
8.96 0.518501
8.97 0.507727
8.98 0.495252
8.99 0.481361
9 0.466164
9.01 0.449771
9.02 0.432298
9.03 0.413855
9.04 0.394514
9.05 0.374386
9.06 0.353618
9.07 0.332298
9.08 0.310503
9.09 0.2883
9.1 0.26575
9.11 0.242875
9.12 0.219753
9.13 0.196424
9.14 0.172924
9.15 0.149286
9.16 0.125548
9.17 0.101749
9.18 0.0779405
9.19 0.0541832
9.2 0.0305416
9.21 0.00709082
9.22 -0.0160832
9.23 -0.0388837
9.24 -0.0611465
9.25 -0.082776
9.26 -0.103657
9.27 -0.123658
9.28 -0.142647
9.29 -0.160488
9.3 -0.177006
9.31 -0.191984
9.32 -0.205419
9.33 -0.217211
9.34 -0.227271
9.35 -0.235531
9.36 -0.241938
9.37 -0.2463
9.38 -0.248707
9.39 -0.249235
9.4 -0.247919
9.41 -0.244815
9.42 -0.239994
9.43 -0.233511
9.44 -0.225367
9.45 -0.215831
9.46 -0.205024
9.47 -0.193072
9.48 -0.180101
9.49 -0.166238
9.5 -0.151559
9.51 -0.136219
9.52 -0.120359
9.53 -0.104079
9.54 -0.0874706
9.55 -0.0706142
9.56 -0.0535815
9.57 -0.0364325
9.58 -0.0192391
9.59 -0.00205026
9.6 0.0150891
9.61 0.0321366
9.62 0.0490506
9.63 0.0657749
9.64 0.0822588
9.65 0.0984628
9.66 0.114333
9.67 0.12981
9.68 0.144828
9.69 0.15932
9.7 0.173132
9.71 0.186248
9.72 0.19859
9.73 0.21008
9.74 0.22064
9.75 0.230198
9.76 0.238632
9.77 0.245859
9.78 0.251907
9.79 0.256745
9.8 0.260353
9.81 0.262729
9.82 0.263883
9.83 0.263719
9.84 0.262396
9.85 0.259985
9.86 0.256554
9.87 0.252183
9.88 0.246957
9.89 0.240943
9.9 0.234223
9.91 0.226951
9.92 0.21922
9.93 0.211117
9.94 0.202724
9.95 0.194113
9.96 0.185337
9.97 0.176464
9.98 0.167535
9.99 0.158576
10 0.149603
10.01 0.140622
10.02 0.131631
10.03 0.122616
10.04 0.113564
10.05 0.104458
10.06 0.0952792
10.07 0.0860118
10.08 0.0766429
10.09 0.0671561
10.1 0.0575569
10.11 0.0478582
10.12 0.0380773
10.13 0.0282402
10.14 0.0183814
10.15 0.00854381
10.16 -0.00121148
10.17 -0.0108326
10.18 -0.0202617
10.19 -0.0294401
10.2 -0.03831
10.21 -0.0468164
10.22 -0.0548769
10.23 -0.0624539
10.24 -0.0695347
10.25 -0.0760972
10.26 -0.0821302
10.27 -0.087634
10.28 -0.0926168
10.29 -0.0970546
10.3 -0.10104
10.31 -0.104618
10.32 -0.10784
10.33 -0.110765
10.34 -0.113454
10.35 -0.115963
10.36 -0.118365
10.37 -0.120727
10.38 -0.123103
10.39 -0.12554
10.4 -0.128076
10.41 -0.130742
10.42 -0.133574
10.43 -0.136566
10.44 -0.139714
10.45 -0.143007
10.46 -0.146424
10.47 -0.149939
10.48 -0.153521
10.49 -0.157129
10.5 -0.160721
10.51 -0.164259
10.52 -0.167709
10.53 -0.171039
10.54 -0.174224
10.55 -0.177224
10.56 -0.180044
10.57 -0.182682
10.58 -0.185144
10.59 -0.187443
10.6 -0.189599
10.61 -0.191634
10.62 -0.193579
10.63 -0.195477
10.64 -0.197364
10.65 -0.199273
10.66 -0.201237
10.67 -0.203285
10.68 -0.205451
10.69 -0.207745
10.7 -0.210173
10.71 -0.212734
10.72 -0.21542
10.73 -0.218215
10.74 -0.221096
10.75 -0.224031
10.76 -0.226979
10.77 -0.229897
10.78 -0.232745
10.79 -0.235481
10.8 -0.238065
10.81 -0.240442
10.82 -0.242586
10.83 -0.244479
10.84 -0.246108
10.85 -0.247463
10.86 -0.248547
10.87 -0.249365
10.88 -0.249921
10.89 -0.250267
10.9 -0.25044
10.91 -0.250479
10.92 -0.250426
10.93 -0.250326
10.94 -0.250225
10.95 -0.25017
10.96 -0.250194
10.97 -0.250327
10.98 -0.250588
10.99 -0.250987
11 -0.251524
11.01 -0.2522
11.02 -0.252972
11.03 -0.253807
11.04 -0.254656
11.05 -0.255467
11.06 -0.256178
11.07 -0.256707
11.08 -0.256973
11.09 -0.256915
11.1 -0.256465
11.11 -0.255557
11.12 -0.254131
11.13 -0.252137
11.14 -0.249463
11.15 -0.246142
11.16 -0.242164
11.17 -0.237527
11.18 -0.232243
11.19 -0.226337
11.2 -0.219821
11.21 -0.212739
11.22 -0.20519
11.23 -0.197243
11.24 -0.188969
11.25 -0.180444
11.26 -0.171745
11.27 -0.162946
11.28 -0.154135
11.29 -0.145378
11.3 -0.136735
11.31 -0.128257
11.32 -0.119983
11.33 -0.111953
11.34 -0.1042
11.35 -0.0967097
11.36 -0.0894785
11.37 -0.0824923
11.38 -0.0757287
11.39 -0.0691579
11.4 -0.0627544
11.41 -0.0564628
11.42 -0.0502346
11.43 -0.0440247
11.44 -0.0377883
11.45 -0.0314821
11.46 -0.0250619
11.47 -0.0184767
11.48 -0.0117063
11.49 -0.00472491
11.5 0.00248809
11.51 0.00994796
11.52 0.0176648
11.53 0.0256643
11.54 0.0339372
11.55 0.0424695
11.56 0.0512548
11.57 0.0602845
11.58 0.0695488
11.59 0.0790393
11.6 0.0887625
11.61 0.098684
11.62 0.108793
11.63 0.119077
11.64 0.129527
11.65 0.140131
11.66 0.150886
11.67 0.161776
11.68 0.172779
11.69 0.183879
11.7 0.195055
11.71 0.206284
11.72 0.21754
11.73 0.228788
11.74 0.239986
11.75 0.251095
11.76 0.262068
11.77 0.272854
11.78 0.283401
11.79 0.293631
11.8 0.303473
11.81 0.312885
11.82 0.321808
11.83 0.33018
11.84 0.337944
11.85 0.345046
11.86 0.351354
11.87 0.356889
11.88 0.361619
11.89 0.365515
11.9 0.368553
11.91 0.370714
11.92 0.371952
11.93 0.372238
11.94 0.371645
11.95 0.370183
11.96 0.367871
11.97 0.364732
11.98 0.360792
11.99 0.356008
12 0.350474
12.01 0.34424
12.02 0.337338
12.03 0.329802
12.04 0.321663
12.05 0.312936
12.06 0.303628
12.07 0.293815
12.08 0.283525
12.09 0.272788
12.1 0.261632
12.11 0.250086
12.12 0.238152
12.13 0.225887
12.14 0.21334
12.15 0.200549
12.16 0.18756
12.17 0.174419
12.18 0.161179
12.19 0.147902
12.2 0.134659
12.21 0.121517
