# xPDFsuite Configuration #
[PDF]
wavelength = 0.1
dataformat = QA
inputfile = BiMsol6_insitu_700 C-00110.xy
backgroundfile = Quartz2mm-dist500-00000.xy
mode = xray
bgscale = 0.0042
composition = Bi2Fe4O9
outputtype = gr
qmaxinst = 24.998449118
qmin = 0.1
qmax = 21.4986662415
rmax = 80.0
rmin = 0.0
rstep = 0.01
rpoly = 0.9

[Misc]
inputdir = C:/Data/Seafile/CPH/Beamtime/Desy Oct 20/In situ data/Processed/BiMsol6/PDF
savedir = C:/Data/Seafile/CPH/Beamtime/Desy Oct 20/In situ data/PDF/BiMsol6
backgroundfilefull = C:/Data/Seafile/CPH/Beamtime/Desy Oct 20/In situ data/Processed/Standard_Empty_Cap/Quartz2mm-dist500-00000.xy

#### start data
#S 1
#L r($\AA$)  G($\AA^{-2}$)
0 0
0.01 0.00635073
0.02 0.0123442
0.03 0.0176748
0.04 0.0220682
0.05 0.0252943
0.06 0.0271779
0.07 0.0275274
0.08 0.0262875
0.09 0.0236
0.1 0.019582
0.11 0.0144146
0.12 0.00833508
0.13 0.00162641
0.14 -0.00539297
0.15 -0.0123236
0.16 -0.0188284
0.17 -0.0245912
0.18 -0.0293291
0.19 -0.0328059
0.2 -0.0347794
0.21 -0.035085
0.22 -0.0338215
0.23 -0.0310563
0.24 -0.0269339
0.25 -0.0216717
0.26 -0.0155509
0.27 -0.00889245
0.28 -0.00215504
0.29 0.00425311
0.3 0.00993604
0.31 0.014518
0.32 0.0176621
0.33 0.0190275
0.34 0.0182825
0.35 0.0154825
0.36 0.0106291
0.37 0.00382698
0.38 -0.00471444
0.39 -0.0146844
0.4 -0.0257215
0.41 -0.0372115
0.42 -0.0485524
0.43 -0.0591325
0.44 -0.0683203
0.45 -0.0754878
0.46 -0.0799724
0.47 -0.0809212
0.48 -0.0781566
0.49 -0.0713396
0.5 -0.0602537
0.51 -0.0448186
0.52 -0.0251
0.53 -0.00104638
0.54 0.0267835
0.55 0.0576609
0.56 0.0909067
0.57 0.12573
0.58 0.161249
0.59 0.196507
0.6 0.230275
0.61 0.261616
0.62 0.289576
0.63 0.313266
0.64 0.33189
0.65 0.34477
0.66 0.35096
0.67 0.350092
0.68 0.34237
0.69 0.327826
0.7 0.306676
0.71 0.279316
0.72 0.246307
0.73 0.207897
0.74 0.165585
0.75 0.120354
0.76 0.0732441
0.77 0.0253289
0.78 -0.0223138
0.79 -0.0685154
0.8 -0.112114
0.81 -0.152337
0.82 -0.188437
0.83 -0.219804
0.84 -0.245985
0.85 -0.266694
0.86 -0.28124
0.87 -0.290217
0.88 -0.293957
0.89 -0.292862
0.9 -0.287463
0.91 -0.278395
0.92 -0.26629
0.93 -0.251951
0.94 -0.236395
0.95 -0.220412
0.96 -0.204754
0.97 -0.190116
0.98 -0.177109
0.99 -0.166482
1 -0.158513
1.01 -0.153391
1.02 -0.151232
1.03 -0.152029
1.04 -0.155657
1.05 -0.161945
1.06 -0.170651
1.07 -0.181128
1.08 -0.192907
1.09 -0.205489
1.1 -0.218368
1.11 -0.231052
1.12 -0.242992
1.13 -0.253766
1.14 -0.263075
1.15 -0.270677
1.16 -0.276414
1.17 -0.280219
1.18 -0.282081
1.19 -0.281982
1.2 -0.280313
1.21 -0.277338
1.22 -0.273368
1.23 -0.268746
1.24 -0.26383
1.25 -0.259006
1.26 -0.254652
1.27 -0.251056
1.28 -0.248457
1.29 -0.247034
1.3 -0.246898
1.31 -0.248094
1.32 -0.250706
1.33 -0.254458
1.34 -0.259158
1.35 -0.264558
1.36 -0.270368
1.37 -0.276268
1.38 -0.281887
1.39 -0.286843
1.4 -0.290842
1.41 -0.29361
1.42 -0.294921
1.43 -0.294608
1.44 -0.292571
1.45 -0.288594
1.46 -0.282935
1.47 -0.275748
1.48 -0.267247
1.49 -0.257709
1.5 -0.24746
1.51 -0.236869
1.52 -0.226386
1.53 -0.216425
1.54 -0.20737
1.55 -0.199573
1.56 -0.193345
1.57 -0.188938
1.58 -0.186751
1.59 -0.186716
1.6 -0.188803
1.61 -0.192926
1.62 -0.198919
1.63 -0.206536
1.64 -0.215493
1.65 -0.225396
1.66 -0.235712
1.67 -0.245983
1.68 -0.255739
1.69 -0.264521
1.7 -0.27189
1.71 -0.277253
1.72 -0.280351
1.73 -0.280979
1.74 -0.278961
1.75 -0.274206
1.76 -0.266711
1.77 -0.256501
1.78 -0.243619
1.79 -0.228576
1.8 -0.211711
1.81 -0.193413
1.82 -0.174115
1.83 -0.15427
1.84 -0.13437
1.85 -0.114928
1.86 -0.0963628
1.87 -0.079049
1.88 -0.0633043
1.89 -0.0493807
1.9 -0.0374878
1.91 -0.0279121
1.92 -0.0204442
1.93 -0.0150055
1.94 -0.011446
1.95 -0.00955275
1.96 -0.0090597
1.97 -0.00971092
1.98 -0.0111024
1.99 -0.0128374
2 -0.0145788
2.01 -0.0160113
2.02 -0.0168552
2.03 -0.0168738
2.04 -0.0157686
2.05 -0.0135457
2.06 -0.0101826
2.07 -0.00572823
2.08 -0.000300226
2.09 0.00591911
2.1 0.0127042
2.11 0.0197177
2.12 0.0265972
2.13 0.0329921
2.14 0.0385464
2.15 0.042913
2.16 0.0457677
2.17 0.0465982
2.18 0.045335
2.19 0.0418271
2.2 0.0359773
2.21 0.0277606
2.22 0.0172257
2.23 0.00440411
2.24 -0.0105262
2.25 -0.0271379
2.26 -0.0451064
2.27 -0.0640657
2.28 -0.0836202
2.29 -0.103358
2.3 -0.122802
2.31 -0.141526
2.32 -0.159166
2.33 -0.175392
2.34 -0.189927
2.35 -0.202549
2.36 -0.213028
2.37 -0.22117
2.38 -0.227149
2.39 -0.231036
2.4 -0.232963
2.41 -0.233121
2.42 -0.231748
2.43 -0.22904
2.44 -0.225419
2.45 -0.221244
2.46 -0.216842
2.47 -0.212528
2.48 -0.208597
2.49 -0.205332
2.5 -0.203042
2.51 -0.201824
2.52 -0.201789
2.53 -0.202996
2.54 -0.205448
2.55 -0.209096
2.56 -0.213915
2.57 -0.219702
2.58 -0.22623
2.59 -0.233288
2.6 -0.240654
2.61 -0.248094
2.62 -0.255375
2.63 -0.262219
2.64 -0.268454
2.65 -0.273914
2.66 -0.278466
2.67 -0.282015
2.68 -0.284503
2.69 -0.285842
2.7 -0.286076
2.71 -0.285324
2.72 -0.283681
2.73 -0.281264
2.74 -0.278213
2.75 -0.274675
2.76 -0.270785
2.77 -0.266747
2.78 -0.262702
2.79 -0.258774
2.8 -0.255067
2.81 -0.251663
2.82 -0.248635
2.83 -0.246011
2.84 -0.243758
2.85 -0.241839
2.86 -0.240194
2.87 -0.238743
2.88 -0.23739
2.89 -0.236014
2.9 -0.234492
2.91 -0.232715
2.92 -0.230577
2.93 -0.227986
2.94 -0.224863
2.95 -0.221124
2.96 -0.216709
2.97 -0.211654
2.98 -0.205972
2.99 -0.1997
3 -0.192894
3.01 -0.185626
3.02 -0.177955
3.03 -0.170019
3.04 -0.161924
3.05 -0.153772
3.06 -0.145657
3.07 -0.137664
3.08 -0.129872
3.09 -0.122354
3.1 -0.115121
3.11 -0.108184
3.12 -0.10153
3.13 -0.0951265
3.14 -0.0889206
3.15 -0.0828469
3.16 -0.0768024
3.17 -0.0706866
3.18 -0.0643973
3.19 -0.0578306
3.2 -0.0508854
3.21 -0.0434551
3.22 -0.035404
3.23 -0.0267125
3.24 -0.0173303
3.25 -0.00722569
3.26 0.00361416
3.27 0.0151827
3.28 0.0275036
3.29 0.0405045
3.3 0.0540939
3.31 0.0681992
3.32 0.0827393
3.33 0.0976279
3.34 0.112779
3.35 0.128112
3.36 0.143523
3.37 0.15894
3.38 0.174302
3.39 0.18956
3.4 0.20468
3.41 0.219627
3.42 0.234393
3.43 0.248992
3.44 0.263436
3.45 0.277744
3.46 0.291942
3.47 0.306052
3.48 0.320092
3.49 0.334085
3.5 0.348038
3.51 0.361946
3.52 0.375788
3.53 0.389532
3.54 0.403117
3.55 0.416465
3.56 0.429501
3.57 0.44213
3.58 0.454245
3.59 0.465731
3.6 0.476466
3.61 0.486226
3.62 0.494958
3.63 0.502561
3.64 0.508932
3.65 0.513982
3.66 0.517638
3.67 0.519785
3.68 0.520333
3.69 0.519387
3.7 0.516962
3.71 0.513094
3.72 0.507839
3.73 0.501272
3.74 0.493383
3.75 0.484376
3.76 0.474399
3.77 0.463578
3.78 0.452041
3.79 0.439918
3.8 0.427326
3.81 0.41438
3.82 0.401229
3.83 0.387972
3.84 0.374695
3.85 0.361473
3.86 0.348366
3.87 0.335438
3.88 0.322719
3.89 0.310225
3.9 0.297966
3.91 0.285946
3.92 0.274162
3.93 0.262611
3.94 0.251299
3.95 0.240192
3.96 0.229282
3.97 0.21856
3.98 0.20802
3.99 0.19766
4 0.187495
4.01 0.177523
4.02 0.167744
4.03 0.158165
4.04 0.148796
4.05 0.139643
4.06 0.130715
4.07 0.122039
4.08 0.113589
4.09 0.105361
4.1 0.0973447
4.11 0.0895262
4.12 0.0818868
4.13 0.0744117
4.14 0.0670708
4.15 0.0598278
4.16 0.0526548
4.17 0.0455254
4.18 0.038416
4.19 0.0313072
4.2 0.0241833
4.21 0.01704
4.22 0.00988101
4.23 0.00271885
4.24 -0.00442517
4.25 -0.011521
4.26 -0.0185241
4.27 -0.0253791
4.28 -0.0320404
4.29 -0.0384529
4.3 -0.0445602
4.31 -0.0503069
4.32 -0.0556412
4.33 -0.0604661
4.34 -0.0647813
4.35 -0.0685685
4.36 -0.0718149
4.37 -0.0745208
4.38 -0.0767008
4.39 -0.0783661
4.4 -0.0795488
4.41 -0.0803467
4.42 -0.0808301
4.43 -0.0810782
4.44 -0.0811771
4.45 -0.0812166
4.46 -0.0812989
4.47 -0.0815205
4.48 -0.0819619
4.49 -0.0826955
4.5 -0.0837821
4.51 -0.0852684
4.52 -0.0871972
4.53 -0.0896098
4.54 -0.0924576
4.55 -0.0957134
4.56 -0.0993328
4.57 -0.103256
4.58 -0.107408
4.59 -0.111707
4.6 -0.116039
4.61 -0.120298
4.62 -0.124383
4.63 -0.128193
4.64 -0.131634
4.65 -0.134613
4.66 -0.137004
4.67 -0.138799
4.68 -0.139961
4.69 -0.140469
4.7 -0.140323
4.71 -0.139539
4.72 -0.138115
4.73 -0.136127
4.74 -0.133673
4.75 -0.130838
4.76 -0.127714
4.77 -0.1244
4.78 -0.120999
4.79 -0.117628
4.8 -0.114392
4.81 -0.111385
4.82 -0.108688
4.83 -0.106374
4.84 -0.104502
4.85 -0.103147
4.86 -0.102342
4.87 -0.10207
4.88 -0.102327
4.89 -0.103096
4.9 -0.10435
4.91 -0.106049
4.92 -0.108182
4.93 -0.110648
4.94 -0.113383
4.95 -0.116327
4.96 -0.119416
4.97 -0.122592
4.98 -0.125797
4.99 -0.12897
5 -0.132067
5.01 -0.135048
5.02 -0.137881
5.03 -0.140541
5.04 -0.143006
5.05 -0.145242
5.06 -0.147254
5.07 -0.149041
5.08 -0.1506
5.09 -0.151931
5.1 -0.153033
5.11 -0.1539
5.12 -0.154521
5.13 -0.154917
5.14 -0.155087
5.15 -0.155032
5.16 -0.154753
5.17 -0.154252
5.18 -0.153515
5.19 -0.152563
5.2 -0.151411
5.21 -0.150075
5.22 -0.148573
5.23 -0.146928
5.24 -0.145167
5.25 -0.143322
5.26 -0.141441
5.27 -0.139565
5.28 -0.137736
5.29 -0.135997
5.3 -0.134392
5.31 -0.132977
5.32 -0.131783
5.33 -0.130832
5.34 -0.130144
5.35 -0.129728
5.36 -0.129584
5.37 -0.129703
5.38 -0.13008
5.39 -0.130649
5.4 -0.13136
5.41 -0.132155
5.42 -0.132968
5.43 -0.133723
5.44 -0.13433
5.45 -0.1347
5.46 -0.134765
5.47 -0.134452
5.48 -0.133699
5.49 -0.132453
5.5 -0.130673
5.51 -0.128271
5.52 -0.125303
5.53 -0.121785
5.54 -0.117748
5.55 -0.113241
5.56 -0.108328
5.57 -0.103077
5.58 -0.0975914
5.59 -0.0919942
5.6 -0.0863921
5.61 -0.0808932
5.62 -0.0756032
5.63 -0.0706213
5.64 -0.0660879
5.65 -0.0620438
5.66 -0.0585395
5.67 -0.0556099
5.68 -0.0532688
5.69 -0.0515082
5.7 -0.0503201
5.71 -0.0496572
5.72 -0.049404
5.73 -0.0494681
5.74 -0.0497436
5.75 -0.0501148
5.76 -0.0504604
5.77 -0.0506314
5.78 -0.0505071
5.79 -0.0499817
5.8 -0.048959
5.81 -0.0473593
5.82 -0.0451227
5.83 -0.0421884
5.84 -0.0385092
5.85 -0.0341599
5.86 -0.0291823
5.87 -0.0236418
5.88 -0.0176244
5.89 -0.0112346
5.9 -0.00458074
5.91 0.00217633
5.92 0.00889345
5.93 0.0154353
5.94 0.0216718
5.95 0.0274831
5.96 0.0327499
5.97 0.0373315
5.98 0.0412213
5.99 0.0443855
6 0.0468163
6.01 0.0485324
6.02 0.0495788
6.03 0.0499872
6.04 0.0498853
6.05 0.0494134
6.06 0.0487008
6.07 0.0478862
6.08 0.0471125
6.09 0.0465256
6.1 0.0463074
6.11 0.046557
6.12 0.0473789
6.13 0.0488567
6.14 0.0510507
6.15 0.0539946
6.16 0.0577419
6.17 0.062255
6.18 0.0674374
6.19 0.0732074
6.2 0.0794609
6.21 0.0860745
6.22 0.0929099
6.23 0.0998088
6.24 0.106594
6.25 0.113112
6.26 0.119215
6.27 0.124769
6.28 0.129653
6.29 0.133721
6.3 0.136878
6.31 0.139129
6.32 0.140456
6.33 0.140869
6.34 0.140401
6.35 0.139115
6.36 0.137026
6.37 0.13432
6.38 0.131129
6.39 0.127584
6.4 0.123824
6.41 0.119989
6.42 0.116221
6.43 0.112671
6.44 0.109443
6.45 0.106633
6.46 0.104315
6.47 0.102541
6.48 0.101342
6.49 0.100778
6.5 0.100786
6.51 0.101308
6.52 0.102283
6.53 0.103632
6.54 0.105262
6.55 0.107073
6.56 0.108949
6.57 0.110764
6.58 0.112414
6.59 0.113799
6.6 0.11483
6.61 0.115431
6.62 0.115496
6.63 0.115002
6.64 0.113945
6.65 0.112323
6.66 0.110149
6.67 0.107458
6.68 0.104286
6.69 0.100673
6.7 0.0967361
6.71 0.0925568
6.72 0.0882198
6.73 0.0838113
6.74 0.0794161
6.75 0.0751269
6.76 0.0710235
6.77 0.0671632
6.78 0.0635972
6.79 0.0603645
6.8 0.0574917
6.81 0.0549957
6.82 0.0529141
6.83 0.0511927
6.84 0.0498079
6.85 0.0487274
6.86 0.0479121
6.87 0.0473176
6.88 0.0469036
6.89 0.046613
6.9 0.0463884
6.91 0.0461845
6.92 0.0459598
6.93 0.0456777
6.94 0.0453076
6.95 0.04481
6.96 0.044179
6.97 0.0434049
6.98 0.0424837
6.99 0.0414161
7 0.0402073
7.01 0.0388598
7.02 0.0373842
7.03 0.0358014
7.04 0.0341236
7.05 0.0323621
7.06 0.0305265
7.07 0.0286245
7.08 0.0266549
7.09 0.0246256
7.1 0.0225365
7.11 0.0203849
7.12 0.0181661
7.13 0.0158747
7.14 0.0135015
7.15 0.0110375
7.16 0.00848563
7.17 0.00584519
7.18 0.00311856
7.19 0.000311952
7.2 -0.00256417
7.21 -0.00549799
7.22 -0.00846306
7.23 -0.0114328
7.24 -0.0143779
7.25 -0.0172655
7.26 -0.0200605
7.27 -0.0227207
7.28 -0.0251932
7.29 -0.027453
7.3 -0.029465
7.31 -0.0311971
7.32 -0.0326216
7.33 -0.0337158
7.34 -0.0344341
7.35 -0.0347823
7.36 -0.0347725
7.37 -0.0344119
7.38 -0.0337153
7.39 -0.0327051
7.4 -0.0314065
7.41 -0.0298401
7.42 -0.0280765
7.43 -0.0261631
7.44 -0.0241504
7.45 -0.0220912
7.46 -0.020039
7.47 -0.0180549
7.48 -0.0161962
7.49 -0.0145074
7.5 -0.0130321
7.51 -0.0118089
7.52 -0.0108704
7.53 -0.0102446
7.54 -0.00998692
7.55 -0.010072
7.56 -0.0105022
7.57 -0.0112726
7.58 -0.0123713
7.59 -0.0137796
7.6 -0.0154878
7.61 -0.0174601
7.62 -0.0196441
7.63 -0.0220004
7.64 -0.0244866
7.65 -0.0270588
7.66 -0.0296724
7.67 -0.0322774
7.68 -0.0348268
7.69 -0.0372799
7.7 -0.0395991
7.71 -0.0417505
7.72 -0.0437047
7.73 -0.045426
7.74 -0.0468885
7.75 -0.0480968
7.76 -0.0490458
7.77 -0.0497368
7.78 -0.0501772
7.79 -0.0503803
7.8 -0.0503455
7.81 -0.0501186
7.82 -0.0497327
7.83 -0.0492206
7.84 -0.0486178
7.85 -0.0479612
7.86 -0.0472892
7.87 -0.0466446
7.88 -0.0460626
7.89 -0.0455746
7.9 -0.0452076
7.91 -0.0449838
7.92 -0.0449192
7.93 -0.0450386
7.94 -0.0453329
7.95 -0.0457903
7.96 -0.046396
7.97 -0.0471285
7.98 -0.047959
7.99 -0.0488538
8 -0.049769
8.01 -0.0506553
8.02 -0.0514664
8.03 -0.0521556
8.04 -0.0526772
8.05 -0.0529882
8.06 -0.0530279
8.07 -0.0527704
8.08 -0.0522026
8.09 -0.0513106
8.1 -0.0500901
8.11 -0.0485475
8.12 -0.046696
8.13 -0.0445438
8.14 -0.0421628
8.15 -0.0396031
8.16 -0.0369229
8.17 -0.0341867
8.18 -0.0314636
8.19 -0.0288361
8.2 -0.0263849
8.21 -0.0241742
8.22 -0.0222676
8.23 -0.0207216
8.24 -0.0195835
8.25 -0.0188907
8.26 -0.018719
8.27 -0.0190228
8.28 -0.0197926
8.29 -0.0210044
8.3 -0.0226198
8.31 -0.0245867
8.32 -0.0268526
8.33 -0.0293307
8.34 -0.0319191
8.35 -0.0345278
8.36 -0.0370643
8.37 -0.0394366
8.38 -0.0415561
8.39 -0.0432952
8.4 -0.0446093
8.41 -0.0454419
8.42 -0.0457479
8.43 -0.0454974
8.44 -0.0446767
8.45 -0.0432641
8.46 -0.0412699
8.47 -0.0387747
8.48 -0.0358326
8.49 -0.0325103
8.5 -0.0288847
8.51 -0.0250405
8.52 -0.0210638
8.53 -0.0170663
8.54 -0.0131398
8.55 -0.00936874
8.56 -0.00582979
8.57 -0.00258961
8.58 0.000283768
8.59 0.00272707
8.6 0.00474899
8.61 0.00634374
8.62 0.00752095
8.63 0.00830491
8.64 0.00873334
8.65 0.0088343
8.66 0.00869308
8.67 0.00838622
8.68 0.00798492
8.69 0.00756109
8.7 0.00718459
8.71 0.00692458
8.72 0.00685727
8.73 0.00701629
8.74 0.00743524
8.75 0.00813483
8.76 0.00912222
8.77 0.0103909
8.78 0.0119385
8.79 0.0137174
8.8 0.0156713
8.81 0.0177461
8.82 0.0198817
8.83 0.0220141
8.84 0.0240768
8.85 0.0259872
8.86 0.0276964
8.87 0.0291547
8.88 0.0303215
8.89 0.0311673
8.9 0.031675
8.91 0.0318185
8.92 0.0316143
8.93 0.0311054
8.94 0.030328
8.95 0.0293286
8.96 0.0281618
8.97 0.026888
8.98 0.0255739
8.99 0.0242952
9 0.0231139
9.01 0.0220871
9.02 0.0212642
9.03 0.0206857
9.04 0.0203963
9.05 0.0204163
9.06 0.0207282
9.07 0.021319
9.08 0.0221633
9.09 0.0232237
9.1 0.0244528
9.11 0.0258002
9.12 0.0271862
9.13 0.0285438
9.14 0.0298071
9.15 0.030913
9.16 0.0318032
9.17 0.0324139
9.18 0.0326906
9.19 0.0326276
9.2 0.0322124
9.21 0.031446
9.22 0.0303432
9.23 0.0289325
9.24 0.0272342
9.25 0.025328
9.26 0.0232828
9.27 0.0211681
9.28 0.0190569
9.29 0.0170233
9.3 0.0151464
9.31 0.0135135
9.32 0.0121682
9.33 0.011158
9.34 0.0105182
9.35 0.0102704
9.36 0.0104223
9.37 0.0109979
9.38 0.0119494
9.39 0.0132249
9.4 0.014773
9.41 0.0165318
9.42 0.0184317
9.43 0.0203969
9.44 0.0223379
9.45 0.0241721
9.46 0.0258253
9.47 0.0272296
9.48 0.0283256
9.49 0.0290647
9.5 0.0293799
9.51 0.0292597
9.52 0.0287169
9.53 0.0277616
9.54 0.0264177
9.55 0.0247219
9.56 0.0227203
9.57 0.0204548
9.58 0.0180238
9.59 0.0154987
9.6 0.0129524
9.61 0.010457
9.62 0.00808105
9.63 0.00590265
9.64 0.00398237
9.65 0.0023524
9.66 0.00104416
9.67 7.70891e-05
9.68 -0.000541678
9.69 -0.000817154
9.7 -0.000731327
9.71 -0.000352978
9.72 0.000278963
9.73 0.00111925
9.74 0.00211778
9.75 0.00322176
9.76 0.00437764
9.77 0.00552628
9.78 0.00661798
9.79 0.00761175
9.8 0.00847392
9.81 0.00917917
9.82 0.00971128
9.83 0.010045
9.84 0.0102013
9.85 0.0101965
9.86 0.0100521
9.87 0.00979615
9.88 0.00946184
9.89 0.00908575
9.9 0.00871151
9.91 0.00837957
9.92 0.00812525
9.93 0.00797992
9.94 0.00796954
9.95 0.0081136
9.96 0.00844015
9.97 0.00894084
9.98 0.0096056
9.99 0.0104206
10 0.0113648
10.01 0.012411
10.02 0.0135275
10.03 0.0146748
10.04 0.0158082
10.05 0.0168886
10.06 0.0178781
10.07 0.0187414
10.08 0.0194477
10.09 0.0199547
10.1 0.0202505
10.11 0.0203313
10.12 0.0201946
10.13 0.019845
10.14 0.0192946
10.15 0.0185593
10.16 0.0176547
10.17 0.0166289
10.18 0.0155156
10.19 0.0143503
10.2 0.0131693
10.21 0.0120077
10.22 0.0109048
10.23 0.00989252
10.24 0.00899237
10.25 0.00822314
10.26 0.00759776
10.27 0.00712309
10.28 0.00680088
10.29 0.00663976
10.3 0.00661111
10.31 0.00669845
10.32 0.00688164
10.33 0.00713788
10.34 0.0074427
10.35 0.00777089
10.36 0.00809417
10.37 0.00838875
10.38 0.00863443
10.39 0.00881411
10.4 0.00891425
10.41 0.00892512
10.42 0.00882998
10.43 0.0086377
10.44 0.00835111
10.45 0.00797553
10.46 0.00751858
10.47 0.00698952
10.48 0.00639605
10.49 0.00574899
10.5 0.00506205
10.51 0.00434349
10.52 0.00359988
10.53 0.00283568
10.54 0.00205313
10.55 0.00125016
10.56 0.000425706
10.57 -0.000424158
10.58 -0.00130474
10.59 -0.00222184
10.6 -0.00318105
10.61 -0.00418896
10.62 -0.00525077
10.63 -0.00636261
10.64 -0.00752132
10.65 -0.00872017
10.66 -0.00994866
10.67 -0.0111924
10.68 -0.0124308
10.69 -0.0136393
10.7 -0.0147926
10.71 -0.0158634
10.72 -0.0168231
10.73 -0.0176433
10.74 -0.0182912
10.75 -0.0187265
10.76 -0.0189439
10.77 -0.0189275
10.78 -0.0186674
10.79 -0.0181599
10.8 -0.0174085
10.81 -0.0164073
10.82 -0.0151885
10.83 -0.0137887
10.84 -0.0122425
10.85 -0.0105904
10.86 -0.00887764
10.87 -0.00715379
10.88 -0.00547956
10.89 -0.00390638
10.9 -0.0024838
10.91 -0.00125811
10.92 -0.000270726
10.93 0.000443158
10.94 0.000833852
10.95 0.000887125
10.96 0.000610665
10.97 7.22446e-06
10.98 -0.000910592
10.99 -0.00212061
11 -0.0035927
11.01 -0.00530608
11.02 -0.00718442
11.03 -0.009175
11.04 -0.0112217
11.05 -0.0132669
11.06 -0.0152528
11.07 -0.017114
11.08 -0.0187905
11.09 -0.0202444
11.1 -0.0214369
11.11 -0.0223374
11.12 -0.0229235
11.13 -0.0231821
11.14 -0.023073
11.15 -0.0226379
11.16 -0.0218948
11.17 -0.0208668
11.18 -0.0195837
11.19 -0.0180806
11.2 -0.0163902
11.21 -0.014557
11.22 -0.0126359
11.23 -0.0106689
11.24 -0.008696
11.25 -0.00675395
11.26 -0.00487556
11.27 -0.00310017
11.28 -0.0014444
11.29 7.79152e-05
11.3 0.00145679
11.31 0.00268747
11.32 0.00377001
11.33 0.00470376
11.34 0.00549132
11.35 0.00615487
11.36 0.00670619
11.37 0.00715741
11.38 0.00752023
11.39 0.00780513
11.4 0.00801529
11.41 0.00816157
11.42 0.00824911
11.43 0.00827851
11.44 0.00824794
11.45 0.00815348
11.46 0.00798779
11.47 0.00773829
11.48 0.00740489
11.49 0.00698167
11.5 0.00646425
11.51 0.00585048
11.52 0.00514108
11.53 0.00433372
11.54 0.00344143
11.55 0.00248073
11.56 0.00146841
11.57 0.000424826
11.58 -0.000626535
11.59 -0.0016591
11.6 -0.00263761
11.61 -0.00353626
11.62 -0.00432753
11.63 -0.00498573
11.64 -0.00548806
11.65 -0.00581564
11.66 -0.00594138
11.67 -0.00585954
11.68 -0.00557949
11.69 -0.00510751
11.7 -0.00445657
11.71 -0.0036461
11.72 -0.00270135
11.73 -0.00164552
11.74 -0.000529503
11.75 0.000607781
11.76 0.0017259
11.77 0.00278433
11.78 0.00374391
11.79 0.00455893
11.8 0.0051919
11.81 0.00562651
