# xPDFsuite Configuration #
[PDF]
wavelength = 0.1
dataformat = QA
inputfile = BiMsol6_insitu_700 C-00694.xy
backgroundfile = Quartz2mm-dist500-00000.xy
mode = xray
bgscale = 0.0042
composition = Bi2Fe4O9
outputtype = gr
qmaxinst = 24.998449118
qmin = 0.1
qmax = 21.4986662415
rmax = 80.0
rmin = 0.0
rstep = 0.01
rpoly = 0.9

[Misc]
inputdir = C:/Data/Seafile/CPH/Beamtime/Desy Oct 20/In situ data/Processed/BiMsol6/PDF
savedir = C:/Data/Seafile/CPH/Beamtime/Desy Oct 20/In situ data/PDF/BiMsol6
backgroundfilefull = C:/Data/Seafile/CPH/Beamtime/Desy Oct 20/In situ data/Processed/Standard_Empty_Cap/Quartz2mm-dist500-00000.xy

#### start data
#S 1
#L r($\AA$)  G($\AA^{-2}$)
0 0
0.01 0.00659131
0.02 0.0128122
0.03 0.0183457
0.04 0.0229071
0.05 0.0262573
0.06 0.0282136
0.07 0.0285758
0.08 0.0272848
0.09 0.0244857
0.1 0.0202976
0.11 0.0149061
0.12 0.00855472
0.13 0.00153479
0.14 -0.00582747
0.15 -0.0131176
0.16 -0.0199862
0.17 -0.0261053
0.18 -0.0311801
0.19 -0.0349636
0.2 -0.0372014
0.21 -0.037718
0.22 -0.0366092
0.23 -0.0339383
0.24 -0.0298482
0.25 -0.0245567
0.26 -0.0183479
0.27 -0.0115432
0.28 -0.00461333
0.29 0.00202309
0.3 0.0079596
0.31 0.0128089
0.32 0.016222
0.33 0.0178451
0.34 0.0173312
0.35 0.014726
0.36 0.0100205
0.37 0.00331075
0.38 -0.00520107
0.39 -0.0152095
0.4 -0.0263627
0.41 -0.0380437
0.42 -0.0496469
0.43 -0.0605573
0.44 -0.0701378
0.45 -0.0777538
0.46 -0.0827348
0.47 -0.0842196
0.48 -0.0820153
0.49 -0.0757712
0.5 -0.0652588
0.51 -0.0503857
0.52 -0.0312055
0.53 -0.00765169
0.54 0.0197287
0.55 0.0502153
0.56 0.0831384
0.57 0.117715
0.58 0.153073
0.59 0.188259
0.6 0.222062
0.61 0.253537
0.62 0.281733
0.63 0.305762
0.64 0.324829
0.65 0.338254
0.66 0.345094
0.67 0.344978
0.68 0.338097
0.69 0.324477
0.7 0.304326
0.71 0.278031
0.72 0.246144
0.73 0.208903
0.74 0.167787
0.75 0.123767
0.76 0.0778657
0.77 0.0311417
0.78 -0.015344
0.79 -0.0604433
0.8 -0.103014
0.81 -0.142299
0.82 -0.177562
0.83 -0.208212
0.84 -0.233807
0.85 -0.254072
0.86 -0.268343
0.87 -0.277206
0.88 -0.280997
0.89 -0.280117
0.9 -0.275096
0.91 -0.266563
0.92 -0.25515
0.93 -0.241652
0.94 -0.227063
0.95 -0.212156
0.96 -0.19767
0.97 -0.18428
0.98 -0.17258
0.99 -0.163302
1 -0.156703
1.01 -0.152954
1.02 -0.152154
1.03 -0.154284
1.04 -0.159205
1.05 -0.166736
1.06 -0.176622
1.07 -0.188216
1.08 -0.201046
1.09 -0.214612
1.1 -0.228407
1.11 -0.241941
1.12 -0.254663
1.13 -0.266156
1.14 -0.276127
1.15 -0.284334
1.16 -0.290622
1.17 -0.294923
1.18 -0.297224
1.19 -0.297498
1.2 -0.296138
1.21 -0.2934
1.22 -0.289589
1.23 -0.28504
1.24 -0.280102
1.25 -0.275146
1.26 -0.270545
1.27 -0.266585
1.28 -0.263504
1.29 -0.261482
1.3 -0.26063
1.31 -0.261002
1.32 -0.262684
1.33 -0.265428
1.34 -0.269064
1.35 -0.273367
1.36 -0.278076
1.37 -0.282902
1.38 -0.287512
1.39 -0.291562
1.4 -0.294789
1.41 -0.296951
1.42 -0.29785
1.43 -0.297345
1.44 -0.295356
1.45 -0.291711
1.46 -0.286646
1.47 -0.280309
1.48 -0.272904
1.49 -0.264687
1.5 -0.255954
1.51 -0.247043
1.52 -0.238353
1.53 -0.230236
1.54 -0.223018
1.55 -0.216991
1.56 -0.212404
1.57 -0.209447
1.58 -0.208431
1.59 -0.20925
1.6 -0.211832
1.61 -0.216054
1.62 -0.221725
1.63 -0.228582
1.64 -0.236325
1.65 -0.244554
1.66 -0.252801
1.67 -0.260646
1.68 -0.267674
1.69 -0.273489
1.7 -0.277724
1.71 -0.279869
1.72 -0.279767
1.73 -0.277303
1.74 -0.272389
1.75 -0.265021
1.76 -0.255275
1.77 -0.24326
1.78 -0.229118
1.79 -0.213365
1.8 -0.196368
1.81 -0.178532
1.82 -0.160286
1.83 -0.142066
1.84 -0.124368
1.85 -0.107625
1.86 -0.0921679
1.87 -0.0782935
1.88 -0.0662334
1.89 -0.0561466
1.9 -0.0481456
1.91 -0.0424046
1.92 -0.0386174
1.93 -0.0366187
1.94 -0.0361807
1.95 -0.0370236
1.96 -0.0388282
1.97 -0.0412665
1.98 -0.0439204
1.99 -0.0464162
2 -0.0484323
2.01 -0.0496851
2.02 -0.0499416
2.03 -0.0490238
2.04 -0.0466834
2.05 -0.0430461
2.06 -0.0381764
2.07 -0.0322126
2.08 -0.0253612
2.09 -0.0178898
2.1 -0.0101216
2.11 -0.00247501
2.12 0.00464746
2.13 0.0108522
2.14 0.0157546
2.15 0.0189945
2.16 0.0202495
2.17 0.0189782
2.18 0.0151948
2.19 0.00879965
2.2 -0.000245895
2.21 -0.0118997
2.22 -0.0260394
2.23 -0.0425566
2.24 -0.061184
2.25 -0.0814128
2.26 -0.102848
2.27 -0.125058
2.28 -0.147594
2.29 -0.169999
2.3 -0.191727
2.31 -0.21236
2.32 -0.231537
2.33 -0.248938
2.34 -0.264305
2.35 -0.277449
2.36 -0.288173
2.37 -0.296329
2.38 -0.302167
2.39 -0.305815
2.4 -0.307464
2.41 -0.307359
2.42 -0.305793
2.43 -0.30302
2.44 -0.299498
2.45 -0.295611
2.46 -0.291704
2.47 -0.288101
2.48 -0.285092
2.49 -0.282954
2.5 -0.281982
2.51 -0.282224
2.52 -0.283754
2.53 -0.286586
2.54 -0.290679
2.55 -0.295937
2.56 -0.302281
2.57 -0.309461
2.58 -0.317215
2.59 -0.325304
2.6 -0.333477
2.61 -0.341486
2.62 -0.349087
2.63 -0.35598
2.64 -0.36203
2.65 -0.367091
2.66 -0.371056
2.67 -0.373861
2.68 -0.375486
2.69 -0.37588
2.7 -0.375135
2.71 -0.373417
2.72 -0.37086
2.73 -0.367621
2.74 -0.36387
2.75 -0.359786
2.76 -0.355548
2.77 -0.351358
2.78 -0.347366
2.79 -0.343701
2.8 -0.340465
2.81 -0.337734
2.82 -0.335582
2.83 -0.334021
2.84 -0.332993
2.85 -0.332444
2.86 -0.332298
2.87 -0.332459
2.88 -0.332819
2.89 -0.333255
2.9 -0.333625
2.91 -0.333811
2.92 -0.333704
2.93 -0.333208
2.94 -0.332241
2.95 -0.330713
2.96 -0.32856
2.97 -0.3258
2.98 -0.322429
2.99 -0.318459
3 -0.313914
3.01 -0.308823
3.02 -0.303177
3.03 -0.297049
3.04 -0.290477
3.05 -0.283474
3.06 -0.276042
3.07 -0.268161
3.08 -0.259778
3.09 -0.250796
3.1 -0.241172
3.11 -0.230804
3.12 -0.219574
3.13 -0.207351
3.14 -0.193999
3.15 -0.179257
3.16 -0.163042
3.17 -0.145274
3.18 -0.125852
3.19 -0.104698
3.2 -0.0817639
3.21 -0.0570014
3.22 -0.0303127
3.23 -0.00195038
3.24 0.0279623
3.25 0.0592594
3.26 0.0917337
3.27 0.12514
3.28 0.159225
3.29 0.193615
3.3 0.22795
3.31 0.261885
3.32 0.29507
3.33 0.327161
3.34 0.357807
3.35 0.386487
3.36 0.413085
3.37 0.437355
3.38 0.459094
3.39 0.47814
3.4 0.494379
3.41 0.50756
3.42 0.517691
3.43 0.524966
3.44 0.52946
3.45 0.53129
3.46 0.530603
3.47 0.527572
3.48 0.522168
3.49 0.514865
3.5 0.505886
3.51 0.495447
3.52 0.48376
3.53 0.471028
3.54 0.457403
3.55 0.443069
3.56 0.428227
3.57 0.413001
3.58 0.397496
3.59 0.381797
3.6 0.365972
3.61 0.350072
3.62 0.334146
3.63 0.318228
3.64 0.302345
3.65 0.286526
3.66 0.270802
3.67 0.255219
3.68 0.239838
3.69 0.224712
3.7 0.209913
3.71 0.195529
3.72 0.181659
3.73 0.168414
3.74 0.155995
3.75 0.144492
3.76 0.13402
3.77 0.124709
3.78 0.116688
3.79 0.110078
3.8 0.105036
3.81 0.101766
3.82 0.100208
3.83 0.100419
3.84 0.102434
3.85 0.106267
3.86 0.11191
3.87 0.119474
3.88 0.128813
3.89 0.139788
3.9 0.152303
3.91 0.16625
3.92 0.181504
3.93 0.197951
3.94 0.215516
3.95 0.233937
3.96 0.253067
3.97 0.272757
3.98 0.292864
3.99 0.313244
4 0.333762
4.01 0.354265
4.02 0.374627
4.03 0.394731
4.04 0.414466
4.05 0.433727
4.06 0.452411
4.07 0.470341
4.08 0.487493
4.09 0.503778
4.1 0.519111
4.11 0.533409
4.12 0.54659
4.13 0.5585
4.14 0.569056
4.15 0.578256
4.16 0.586035
4.17 0.592332
4.18 0.597094
4.19 0.600277
4.2 0.601659
4.21 0.601392
4.22 0.599471
4.23 0.595896
4.24 0.59068
4.25 0.583848
4.26 0.57536
4.27 0.565241
4.28 0.553657
4.29 0.540674
4.3 0.526364
4.31 0.510803
4.32 0.49407
4.33 0.47614
4.34 0.457197
4.35 0.43733
4.36 0.416611
4.37 0.395104
4.38 0.372869
4.39 0.349937
4.4 0.326335
4.41 0.302157
4.42 0.277442
4.43 0.252225
4.44 0.22654
4.45 0.200423
4.46 0.17388
4.47 0.146987
4.48 0.119804
4.49 0.0923935
4.5 0.0648231
4.51 0.0371725
4.52 0.00953462
4.53 -0.0179691
4.54 -0.0452293
4.55 -0.0721271
4.56 -0.0985375
4.57 -0.124332
4.58 -0.149382
4.59 -0.173481
4.6 -0.196531
4.61 -0.218453
4.62 -0.239151
4.63 -0.258541
4.64 -0.27656
4.65 -0.293138
4.66 -0.308128
4.67 -0.321678
4.68 -0.333814
4.69 -0.344585
4.7 -0.354057
4.71 -0.362317
4.72 -0.369399
4.73 -0.375459
4.74 -0.380676
4.75 -0.385182
4.76 -0.389108
4.77 -0.392585
4.78 -0.395733
4.79 -0.398657
4.8 -0.401486
4.81 -0.404301
4.82 -0.407167
4.83 -0.410129
4.84 -0.413212
4.85 -0.416433
4.86 -0.419777
4.87 -0.423208
4.88 -0.426681
4.89 -0.430145
4.9 -0.433536
4.91 -0.43679
4.92 -0.439809
4.93 -0.44254
4.94 -0.444926
4.95 -0.446911
4.96 -0.448451
4.97 -0.449511
4.98 -0.450044
4.99 -0.450027
5 -0.449496
5.01 -0.448465
5.02 -0.446954
5.03 -0.444992
5.04 -0.442611
5.05 -0.43981
5.06 -0.436661
5.07 -0.433202
5.08 -0.42946
5.09 -0.425456
5.1 -0.421203
5.11 -0.416696
5.12 -0.411918
5.13 -0.406872
5.14 -0.401535
5.15 -0.395878
5.16 -0.389867
5.17 -0.383466
5.18 -0.376598
5.19 -0.369254
5.2 -0.361422
5.21 -0.353085
5.22 -0.344241
5.23 -0.334898
5.24 -0.32507
5.25 -0.314777
5.26 -0.304121
5.27 -0.293181
5.28 -0.282048
5.29 -0.270826
5.3 -0.259631
5.31 -0.248606
5.32 -0.237889
5.33 -0.227601
5.34 -0.217865
5.35 -0.208795
5.36 -0.200494
5.37 -0.193063
5.38 -0.186662
5.39 -0.181244
5.4 -0.176832
5.41 -0.173424
5.42 -0.170997
5.43 -0.169503
5.44 -0.168928
5.45 -0.169156
5.46 -0.170039
5.47 -0.171458
5.48 -0.17329
5.49 -0.175406
5.5 -0.177677
5.51 -0.179968
5.52 -0.182149
5.53 -0.184119
5.54 -0.185791
5.55 -0.187091
5.56 -0.187965
5.57 -0.188353
5.58 -0.18823
5.59 -0.18763
5.6 -0.18657
5.61 -0.185078
5.62 -0.183193
5.63 -0.18096
5.64 -0.178397
5.65 -0.175584
5.66 -0.172564
5.67 -0.169366
5.68 -0.166012
5.69 -0.162509
5.7 -0.158842
5.71 -0.154979
5.72 -0.15089
5.73 -0.146523
5.74 -0.141812
5.75 -0.136681
5.76 -0.13105
5.77 -0.12477
5.78 -0.117795
5.79 -0.110061
5.8 -0.101503
5.81 -0.0920661
5.82 -0.0817165
5.83 -0.0704065
5.84 -0.0580981
5.85 -0.044904
5.86 -0.0308818
5.87 -0.0161122
5.88 -0.000697065
5.89 0.0152427
5.9 0.0315896
5.91 0.0481522
5.92 0.0647589
5.93 0.0812473
5.94 0.0974568
5.95 0.113234
5.96 0.128419
5.97 0.142821
5.98 0.156393
5.99 0.169056
6 0.180753
6.01 0.191456
6.02 0.20116
6.03 0.209816
6.04 0.217509
6.05 0.224351
6.06 0.230428
6.07 0.235838
6.08 0.240689
6.09 0.245086
6.1 0.249118
6.11 0.252929
6.12 0.256606
6.13 0.260222
6.14 0.263827
6.15 0.267453
6.16 0.271108
6.17 0.274769
6.18 0.278389
6.19 0.281898
6.2 0.28521
6.21 0.288219
6.22 0.290809
6.23 0.292773
6.24 0.294034
6.25 0.294463
6.26 0.293938
6.27 0.292351
6.28 0.289606
6.29 0.285562
6.3 0.280146
6.31 0.273418
6.32 0.265384
6.33 0.256076
6.34 0.245551
6.35 0.233892
6.36 0.221106
6.37 0.207428
6.38 0.193012
6.39 0.178007
6.4 0.162569
6.41 0.146853
6.42 0.131012
6.43 0.115208
6.44 0.0995749
6.45 0.0842215
6.46 0.0692379
6.47 0.0546924
6.48 0.0406312
6.49 0.027126
6.5 0.0141377
6.51 0.00163001
6.52 -0.0104395
6.53 -0.0221287
6.54 -0.0335067
6.55 -0.0446469
6.56 -0.0556336
6.57 -0.0665673
6.58 -0.0775247
6.59 -0.0885743
6.6 -0.0997733
6.61 -0.111165
6.62 -0.122796
6.63 -0.134663
6.64 -0.146745
6.65 -0.15901
6.66 -0.171409
6.67 -0.183876
6.68 -0.196329
6.69 -0.208656
6.7 -0.220756
6.71 -0.232521
6.72 -0.24384
6.73 -0.254603
6.74 -0.264703
6.75 -0.273977
6.76 -0.282344
6.77 -0.289759
6.78 -0.296154
6.79 -0.301477
6.8 -0.305686
6.81 -0.308741
6.82 -0.310512
6.83 -0.311118
6.84 -0.310566
6.85 -0.30887
6.86 -0.306048
6.87 -0.302122
6.88 -0.297051
6.89 -0.290867
6.9 -0.28365
6.91 -0.275417
6.92 -0.266179
6.93 -0.255943
6.94 -0.244711
6.95 -0.232364
6.96 -0.219006
6.97 -0.204626
6.98 -0.189214
6.99 -0.172756
7 -0.155241
7.01 -0.136609
7.02 -0.116843
7.03 -0.0960203
7.04 -0.0741602
7.05 -0.0512905
7.06 -0.0274512
7.07 -0.00269472
7.08 0.0229942
7.09 0.0494512
7.1 0.0765722
7.11 0.104254
7.12 0.132383
7.13 0.160838
7.14 0.189493
7.15 0.218201
7.16 0.246811
7.17 0.27519
7.18 0.303203
7.19 0.330722
7.2 0.357622
7.21 0.383708
7.22 0.408909
7.23 0.433144
7.24 0.456326
7.25 0.478373
7.26 0.499215
7.27 0.518753
7.28 0.536848
7.29 0.553567
7.3 0.568871
7.31 0.582728
7.32 0.595106
7.33 0.605979
7.34 0.615195
7.35 0.622797
7.36 0.628815
7.37 0.633226
7.38 0.636008
7.39 0.637136
7.4 0.636561
7.41 0.634118
7.42 0.629957
7.43 0.624064
7.44 0.616429
7.45 0.60705
7.46 0.59593
7.47 0.582962
7.48 0.568215
7.49 0.551806
7.5 0.533783
7.51 0.51421
7.52 0.49316
7.53 0.470716
7.54 0.446856
7.55 0.421852
7.56 0.395833
7.57 0.368941
7.58 0.341325
7.59 0.313144
7.6 0.28455
7.61 0.255741
7.62 0.226908
7.63 0.198226
7.64 0.169862
7.65 0.141983
7.66 0.114747
7.67 0.0884096
7.68 0.0630375
7.69 0.0387518
7.7 0.0156638
7.71 -0.00612955
7.72 -0.026547
7.73 -0.0454522
7.74 -0.06276
7.75 -0.0785436
7.76 -0.0927923
7.77 -0.105511
7.78 -0.11672
7.79 -0.126454
7.8 -0.134622
7.81 -0.141412
7.82 -0.146919
7.83 -0.151222
7.84 -0.154407
7.85 -0.156564
7.86 -0.157754
7.87 -0.158047
7.88 -0.157608
7.89 -0.156524
7.9 -0.154879
7.91 -0.152751
7.92 -0.150208
7.93 -0.147286
7.94 -0.144066
7.95 -0.140599
7.96 -0.136916
7.97 -0.133042
7.98 -0.128993
7.99 -0.124773
8 -0.120371
8.01 -0.115798
8.02 -0.111047
8.03 -0.106108
8.04 -0.10097
8.05 -0.0956244
8.06 -0.0900494
8.07 -0.0842526
8.08 -0.0782479
8.09 -0.0720483
8.1 -0.0656741
8.11 -0.059154
8.12 -0.0525236
8.13 -0.0458285
8.14 -0.0391331
8.15 -0.0324972
8.16 -0.0259858
8.17 -0.019667
8.18 -0.0136104
8.19 -0.00791229
8.2 -0.0026426
8.21 0.00215502
8.22 0.00642714
8.23 0.0101293
8.24 0.0132275
8.25 0.0156977
8.26 0.0174615
8.27 0.0185989
8.28 0.0191322
8.29 0.0190972
8.3 0.0185423
8.31 0.0175275
8.32 0.016105
8.33 0.014364
8.34 0.0124115
8.35 0.0103337
8.36 0.0082163
8.37 0.00614172
8.38 0.00418645
8.39 0.00244528
8.4 0.000959562
8.41 -0.000231811
8.42 -0.00110323
8.43 -0.00164489
8.44 -0.00186323
8.45 -0.00176921
8.46 -0.00140216
8.47 -0.000840114
8.48 -0.000152227
8.49 0.000582084
8.5 0.00127565
8.51 0.00183631
8.52 0.00213817
8.53 0.00209631
8.54 0.00162769
8.55 0.000652509
8.56 -0.000898822
8.57 -0.00308349
8.58 -0.00596863
8.59 -0.00961746
8.6 -0.01398
8.61 -0.0190464
8.62 -0.024791
8.63 -0.0311732
8.64 -0.0381389
8.65 -0.0456614
8.66 -0.053626
8.67 -0.0619351
8.68 -0.0705036
8.69 -0.0792462
8.7 -0.0880803
8.71 -0.0969268
8.72 -0.105704
8.73 -0.114353
8.74 -0.122829
8.75 -0.131096
8.76 -0.139133
8.77 -0.146931
8.78 -0.154474
8.79 -0.161787
8.8 -0.168903
8.81 -0.175853
8.82 -0.18267
8.83 -0.189391
8.84 -0.19605
8.85 -0.202681
8.86 -0.209312
8.87 -0.215962
8.88 -0.222637
8.89 -0.229333
8.9 -0.236036
8.91 -0.242715
8.92 -0.249326
8.93 -0.255819
8.94 -0.262137
8.95 -0.268214
8.96 -0.273981
8.97 -0.279367
8.98 -0.284242
8.99 -0.288587
9 -0.292344
9.01 -0.295465
9.02 -0.297911
9.03 -0.29966
9.04 -0.300663
9.05 -0.30092
9.06 -0.300501
9.07 -0.299444
9.08 -0.297802
9.09 -0.295636
9.1 -0.293022
9.11 -0.290009
9.12 -0.286728
9.13 -0.283269
9.14 -0.279718
9.15 -0.276156
9.16 -0.272654
9.17 -0.269286
9.18 -0.266112
9.19 -0.263159
9.2 -0.260446
9.21 -0.257978
9.22 -0.255747
9.23 -0.253731
9.24 -0.251909
9.25 -0.250215
9.26 -0.248591
9.27 -0.246979
9.28 -0.245318
9.29 -0.243547
9.3 -0.241604
9.31 -0.239422
9.32 -0.236977
9.33 -0.234242
9.34 -0.231203
9.35 -0.227859
9.36 -0.224221
9.37 -0.220296
9.38 -0.216144
9.39 -0.211823
9.4 -0.207394
9.41 -0.202922
9.42 -0.198475
9.43 -0.194127
9.44 -0.189963
9.45 -0.18603
9.46 -0.182376
9.47 -0.179037
9.48 -0.176036
9.49 -0.173378
9.5 -0.171077
9.51 -0.169088
9.52 -0.167348
9.53 -0.165792
9.54 -0.164342
9.55 -0.162906
9.56 -0.161383
9.57 -0.159631
9.58 -0.157552
9.59 -0.155035
9.6 -0.151973
9.61 -0.148266
9.62 -0.143825
9.63 -0.138518
9.64 -0.132283
9.65 -0.125122
9.66 -0.117014
9.67 -0.107951
9.68 -0.097946
9.69 -0.0870284
9.7 -0.0751487
9.71 -0.0624718
9.72 -0.0490711
9.73 -0.0350267
9.74 -0.0204238
9.75 -0.00535038
9.76 0.010121
9.77 0.0258977
9.78 0.0418778
9.79 0.0579909
9.8 0.0741759
9.81 0.0903815
9.82 0.106566
9.83 0.122692
9.84 0.138742
9.85 0.154706
9.86 0.17058
9.87 0.186364
9.88 0.202061
9.89 0.217673
9.9 0.233197
9.91 0.248635
9.92 0.263979
9.93 0.27921
9.94 0.2943
9.95 0.309214
9.96 0.323877
9.97 0.33824
9.98 0.35224
9.99 0.365803
10 0.378847
10.01 0.391288
10.02 0.403019
10.03 0.4139
10.04 0.423916
10.05 0.432999
10.06 0.441091
10.07 0.448145
10.08 0.454132
10.09 0.458949
10.1 0.462654
10.11 0.46531
10.12 0.466962
10.13 0.467669
10.14 0.467509
10.15 0.466558
10.16 0.464878
10.17 0.462655
10.18 0.460006
10.19 0.457048
10.2 0.4539
10.21 0.450672
10.22 0.447478
10.23 0.444424
10.24 0.441584
10.25 0.439023
10.26 0.436785
10.27 0.434901
10.28 0.433384
10.29 0.432264
10.3 0.431473
10.31 0.430973
10.32 0.430708
10.33 0.430616
10.34 0.430623
10.35 0.430648
10.36 0.430595
10.37 0.43038
10.38 0.429924
10.39 0.42915
10.4 0.427987
10.41 0.426372
10.42 0.424187
10.43 0.42144
10.44 0.418098
10.45 0.414136
10.46 0.40954
10.47 0.404301
10.48 0.398386
10.49 0.39179
10.5 0.384567
10.51 0.376728
10.52 0.368289
10.53 0.359263
10.54 0.349665
10.55 0.33945
10.56 0.328679
10.57 0.317367
10.58 0.30552
10.59 0.293143
10.6 0.280238
10.61 0.266789
10.62 0.252779
10.63 0.238256
10.64 0.22323
10.65 0.207717
10.66 0.191735
10.67 0.175311
10.68 0.158446
10.69 0.14121
10.7 0.123666
10.71 0.105868
10.72 0.0878788
10.73 0.069766
10.74 0.0516012
10.75 0.0334695
10.76 0.0154485
10.77 -0.00238934
10.78 -0.019975
10.79 -0.0372447
10.8 -0.0541418
10.81 -0.0705815
10.82 -0.0865403
10.83 -0.10201
10.84 -0.116979
10.85 -0.131446
10.86 -0.145424
10.87 -0.158928
10.88 -0.171961
10.89 -0.184613
10.9 -0.196936
10.91 -0.208986
10.92 -0.220823
10.93 -0.232507
10.94 -0.244093
10.95 -0.255644
10.96 -0.267212
10.97 -0.278832
10.98 -0.290534
10.99 -0.302333
11 -0.314234
11.01 -0.326234
11.02 -0.338298
11.03 -0.350387
11.04 -0.362452
11.05 -0.374432
11.06 -0.386258
11.07 -0.397835
11.08 -0.409066
11.09 -0.41988
11.1 -0.430189
11.11 -0.439909
11.12 -0.448958
11.13 -0.457259
11.14 -0.464646
11.15 -0.471138
11.16 -0.476692
11.17 -0.481272
11.18 -0.484851
11.19 -0.487412
11.2 -0.488905
11.21 -0.489313
11.22 -0.488727
11.23 -0.487173
11.24 -0.484684
11.25 -0.4813
11.26 -0.477064
11.27 -0.471948
11.28 -0.466072
11.29 -0.459497
11.3 -0.452272
11.31 -0.444441
11.32 -0.436047
11.33 -0.427113
11.34 -0.417655
11.35 -0.407747
11.36 -0.397416
11.37 -0.386685
11.38 -0.375574
11.39 -0.364103
11.4 -0.352257
11.41 -0.340073
11.42 -0.327576
11.43 -0.31478
11.44 -0.301701
11.45 -0.288354
11.46 -0.274752
11.47 -0.260904
11.48 -0.246855
11.49 -0.232632
11.5 -0.218262
11.51 -0.203777
11.52 -0.18921
11.53 -0.174594
11.54 -0.159974
11.55 -0.145388
11.56 -0.130874
11.57 -0.116473
11.58 -0.102222
11.59 -0.0881628
11.6 -0.074358
11.61 -0.0608235
11.62 -0.047594
11.63 -0.0347029
11.64 -0.0221818
11.65 -0.0100606
11.66 0.00160278
11.67 0.0127855
11.68 0.0234864
11.69 0.0336847
11.7 0.043362
11.71 0.0525025
11.72 0.0610921
11.73 0.0690564
11.74 0.0764529
11.75 0.083279
11.76 0.0895354
11.77 0.0952269
11.78 0.100362
11.79 0.104924
11.8 0.108928
11.81 0.112431
11.82 0.115456
11.83 0.118031
11.84 0.120189
11.85 0.121961
11.86 0.12335
11.87 0.124429
11.88 0.125237
11.89 0.125808
11.9 0.126175
11.91 0.126367
11.92 0.126403
11.93 0.126301
11.94 0.126083
11.95 0.125756
11.96 0.125316
11.97 0.124754
11.98 0.124051
11.99 0.123162
12 0.122061
12.01 0.120708
12.02 0.119055
12.03 0.117047
12.04 0.114626
12.05 0.111712
12.06 0.108207
12.07 0.10409
12.08 0.0993008
12.09 0.093784
12.1 0.0874894
12.11 0.0803735
12.12 0.0723258
12.13 0.0633667
12.14 0.0535115
12.15 0.0427605
12.16 0.0311262
12.17 0.0186338
12.18 0.00530413
