# xPDFsuite Configuration #
[PDF]
wavelength = 0.1
dataformat = QA
inputfile = BiMsol6_insitu_700 C-00491.xy
backgroundfile = Quartz2mm-dist500-00000.xy
mode = xray
bgscale = 0.0042
composition = Bi2Fe4O9
outputtype = gr
qmaxinst = 24.998449118
qmin = 0.1
qmax = 21.4986662415
rmax = 80.0
rmin = 0.0
rstep = 0.01
rpoly = 0.9

[Misc]
inputdir = C:/Data/Seafile/CPH/Beamtime/Desy Oct 20/In situ data/Processed/BiMsol6/PDF
savedir = C:/Data/Seafile/CPH/Beamtime/Desy Oct 20/In situ data/PDF/BiMsol6
backgroundfilefull = C:/Data/Seafile/CPH/Beamtime/Desy Oct 20/In situ data/Processed/Standard_Empty_Cap/Quartz2mm-dist500-00000.xy

#### start data
#S 1
#L r($\AA$)  G($\AA^{-2}$)
0 0
0.01 0.00615007
0.02 0.0119502
0.03 0.017101
0.04 0.0213339
0.05 0.0244237
0.06 0.0261987
0.07 0.0264717
0.08 0.0251888
0.09 0.0224894
0.1 0.0184883
0.11 0.0133634
0.12 0.00734766
0.13 0.000718442
0.14 -0.00621166
0.15 -0.0130515
0.16 -0.019471
0.17 -0.0251606
0.18 -0.0298435
0.19 -0.0332892
0.2 -0.0352611
0.21 -0.0355993
0.22 -0.0344019
0.23 -0.0317365
0.24 -0.0277463
0.25 -0.0226459
0.26 -0.0167128
0.27 -0.0102641
0.28 -0.0037503
0.29 0.00242748
0.3 0.00788013
0.31 0.0122387
0.32 0.0151726
0.33 0.0163478
0.34 0.0154387
0.35 0.0125025
0.36 0.00754262
0.37 0.000664212
0.38 -0.00792446
0.39 -0.0179151
0.4 -0.0289486
0.41 -0.0404177
0.42 -0.051727
0.43 -0.0622712
0.44 -0.0714253
0.45 -0.0785676
0.46 -0.0830414
0.47 -0.0840003
0.48 -0.0812677
0.49 -0.0745059
0.5 -0.0634973
0.51 -0.0481587
0.52 -0.0285506
0.53 -0.00461397
0.54 0.0231033
0.55 0.053884
0.56 0.0870614
0.57 0.121858
0.58 0.157406
0.59 0.192762
0.6 0.226721
0.61 0.258346
0.62 0.286693
0.63 0.31088
0.64 0.330113
0.65 0.343714
0.66 0.350738
0.67 0.350809
0.68 0.344109
0.69 0.330655
0.7 0.310644
0.71 0.284449
0.72 0.252609
0.73 0.215336
0.74 0.174104
0.75 0.129871
0.76 0.0836496
0.77 0.0364905
0.78 -0.0105493
0.79 -0.0563277
0.8 -0.0996997
0.81 -0.13989
0.82 -0.17615
0.83 -0.207868
0.84 -0.234582
0.85 -0.255992
0.86 -0.271403
0.87 -0.281368
0.88 -0.286192
0.89 -0.286248
0.9 -0.282035
0.91 -0.274158
0.92 -0.26322
0.93 -0.249987
0.94 -0.235458
0.95 -0.220403
0.96 -0.205559
0.97 -0.191613
0.98 -0.179172
0.99 -0.168977
1 -0.161328
1.01 -0.156434
1.02 -0.154431
1.03 -0.155339
1.04 -0.159062
1.05 -0.165463
1.06 -0.174338
1.07 -0.185073
1.08 -0.197226
1.09 -0.210326
1.1 -0.223889
1.11 -0.237436
1.12 -0.250445
1.13 -0.262485
1.14 -0.273242
1.15 -0.282455
1.16 -0.289943
1.17 -0.295606
1.18 -0.299394
1.19 -0.301241
1.2 -0.301481
1.21 -0.300327
1.22 -0.298037
1.23 -0.294903
1.24 -0.291234
1.25 -0.287351
1.26 -0.283598
1.27 -0.280251
1.28 -0.277533
1.29 -0.27562
1.3 -0.274627
1.31 -0.274615
1.32 -0.275672
1.33 -0.277602
1.34 -0.280266
1.35 -0.283481
1.36 -0.287024
1.37 -0.290648
1.38 -0.29407
1.39 -0.296992
1.4 -0.29919
1.41 -0.300457
1.42 -0.300625
1.43 -0.299579
1.44 -0.297256
1.45 -0.293517
1.46 -0.288579
1.47 -0.282582
1.48 -0.275717
1.49 -0.268218
1.5 -0.260358
1.51 -0.252449
1.52 -0.244851
1.53 -0.237873
1.54 -0.231801
1.55 -0.226893
1.56 -0.223361
1.57 -0.221363
1.58 -0.221166
1.59 -0.22265
1.6 -0.225726
1.61 -0.230263
1.62 -0.236063
1.63 -0.242868
1.64 -0.250378
1.65 -0.258203
1.66 -0.265908
1.67 -0.2731
1.68 -0.279391
1.69 -0.284414
1.7 -0.287836
1.71 -0.289182
1.72 -0.288329
1.73 -0.28519
1.74 -0.279706
1.75 -0.271893
1.76 -0.261847
1.77 -0.249696
1.78 -0.235602
1.79 -0.22007
1.8 -0.203465
1.81 -0.186185
1.82 -0.168647
1.83 -0.151273
1.84 -0.134547
1.85 -0.118873
1.86 -0.104554
1.87 -0.0918606
1.88 -0.0809997
1.89 -0.0721046
1.9 -0.0652622
1.91 -0.0606158
1.92 -0.057842
1.93 -0.0567568
1.94 -0.0571163
1.95 -0.0586276
1.96 -0.0609611
1.97 -0.0637709
1.98 -0.0666368
1.99 -0.0691912
2 -0.0711139
2.01 -0.0721248
2.02 -0.0719964
2.03 -0.0705578
2.04 -0.0675566
2.05 -0.0631442
2.06 -0.0573964
2.07 -0.0504634
2.08 -0.0425642
2.09 -0.0339793
2.1 -0.0250426
2.11 -0.0161874
2.12 -0.00783227
2.13 -0.000383346
2.14 0.00576262
2.15 0.0102335
2.16 0.0126957
2.17 0.0125925
2.18 0.00993126
2.19 0.00460409
2.2 -0.00343478
2.21 -0.0141491
2.22 -0.027421
2.23 -0.0431484
2.24 -0.0610669
2.25 -0.0806613
2.26 -0.101533
2.27 -0.123248
2.28 -0.145348
2.29 -0.167369
2.3 -0.188758
2.31 -0.209083
2.32 -0.227969
2.33 -0.245085
2.34 -0.260159
2.35 -0.27299
2.36 -0.28337
2.37 -0.291136
2.38 -0.296535
2.39 -0.299689
2.4 -0.300786
2.41 -0.300071
2.42 -0.297839
2.43 -0.29435
2.44 -0.290072
2.45 -0.285407
2.46 -0.280712
2.47 -0.276331
2.48 -0.272574
2.49 -0.269739
2.5 -0.268152
2.51 -0.267877
2.52 -0.269007
2.53 -0.271576
2.54 -0.275557
2.55 -0.28087
2.56 -0.287457
2.57 -0.295069
2.58 -0.303434
2.59 -0.312309
2.6 -0.321433
2.61 -0.330544
2.62 -0.339379
2.63 -0.347622
2.64 -0.355098
2.65 -0.361629
2.66 -0.367078
2.67 -0.371348
2.68 -0.374384
2.69 -0.376096
2.7 -0.376542
2.71 -0.375865
2.72 -0.374174
2.73 -0.371605
2.74 -0.368312
2.75 -0.364463
2.76 -0.360204
2.77 -0.355761
2.78 -0.351289
2.79 -0.346926
2.8 -0.342787
2.81 -0.338963
2.82 -0.335538
2.83 -0.332548
2.84 -0.329965
2.85 -0.327758
2.86 -0.325873
2.87 -0.324234
2.88 -0.32275
2.89 -0.321314
2.9 -0.319801
2.91 -0.318102
2.92 -0.316117
2.93 -0.313753
2.94 -0.31093
2.95 -0.307562
2.96 -0.30358
2.97 -0.299002
2.98 -0.293822
2.99 -0.28805
3 -0.281711
3.01 -0.274838
3.02 -0.267429
3.03 -0.259566
3.04 -0.251301
3.05 -0.242663
3.06 -0.233675
3.07 -0.224342
3.08 -0.214642
3.09 -0.204521
3.1 -0.193958
3.11 -0.182882
3.12 -0.171209
3.13 -0.15884
3.14 -0.145666
3.15 -0.131486
3.16 -0.116221
3.17 -0.0997962
3.18 -0.0821172
3.19 -0.0631093
3.2 -0.0427199
3.21 -0.0208954
3.22 0.00245755
3.23 0.0271524
3.24 0.0531014
3.25 0.0801803
3.26 0.108229
3.27 0.137053
3.28 0.16645
3.29 0.196113
3.3 0.225744
3.31 0.255053
3.32 0.283745
3.33 0.311525
3.34 0.338092
3.35 0.362998
3.36 0.386133
3.37 0.407282
3.38 0.426261
3.39 0.442925
3.4 0.457167
3.41 0.468765
3.42 0.477718
3.43 0.48419
3.44 0.488247
3.45 0.489988
3.46 0.489546
3.47 0.487076
3.48 0.482565
3.49 0.476436
3.5 0.468895
3.51 0.460149
3.52 0.450401
3.53 0.439845
3.54 0.428644
3.55 0.416985
3.56 0.405055
3.57 0.392981
3.58 0.380874
3.59 0.368824
3.6 0.356903
3.61 0.345191
3.62 0.333714
3.63 0.322498
3.64 0.311562
3.65 0.300921
3.66 0.290589
3.67 0.280594
3.68 0.270968
3.69 0.261711
3.7 0.252855
3.71 0.244439
3.72 0.236513
3.73 0.22913
3.74 0.222418
3.75 0.216411
3.76 0.211167
3.77 0.206762
3.78 0.203266
3.79 0.200751
3.8 0.199312
3.81 0.199073
3.82 0.199986
3.83 0.202077
3.84 0.205364
3.85 0.209846
3.86 0.215509
3.87 0.222415
3.88 0.230456
3.89 0.23953
3.9 0.249564
3.91 0.260473
3.92 0.272161
3.93 0.284539
3.94 0.29753
3.95 0.310958
3.96 0.324712
3.97 0.338677
3.98 0.352744
3.99 0.366805
4 0.380738
4.01 0.394434
4.02 0.407803
4.03 0.420756
4.04 0.433209
4.05 0.44508
4.06 0.456289
4.07 0.466681
4.08 0.476264
4.09 0.484973
4.1 0.49275
4.11 0.499538
4.12 0.505285
4.13 0.509874
4.14 0.513258
4.15 0.515463
4.16 0.516457
4.17 0.516213
4.18 0.514714
4.19 0.511948
4.2 0.507769
4.21 0.502325
4.22 0.495636
4.23 0.487727
4.24 0.47863
4.25 0.468386
4.26 0.45699
4.27 0.444483
4.28 0.430995
4.29 0.416587
4.3 0.401319
4.31 0.385251
4.32 0.368441
4.33 0.35088
4.34 0.332683
4.35 0.313904
4.36 0.294581
4.37 0.274748
4.38 0.25443
4.39 0.233633
4.4 0.212359
4.41 0.190658
4.42 0.168542
4.43 0.146027
4.44 0.123129
4.45 0.0998688
4.46 0.0762466
4.47 0.0523253
4.48 0.0281608
4.49 0.00381123
4.5 -0.0206544
4.51 -0.0451555
4.52 -0.0695964
4.53 -0.0938509
4.54 -0.117813
4.55 -0.141365
4.56 -0.164384
4.57 -0.186746
4.58 -0.208331
4.59 -0.22894
4.6 -0.248491
4.61 -0.266922
4.62 -0.284155
4.63 -0.300126
4.64 -0.314792
4.65 -0.328107
4.66 -0.33996
4.67 -0.350509
4.68 -0.359802
4.69 -0.367902
4.7 -0.374895
4.71 -0.380879
4.72 -0.38591
4.73 -0.390146
4.74 -0.393757
4.75 -0.396868
4.76 -0.399604
4.77 -0.402083
4.78 -0.404413
4.79 -0.406692
4.8 -0.409011
4.81 -0.41143
4.82 -0.413988
4.83 -0.416709
4.84 -0.419597
4.85 -0.422645
4.86 -0.425821
4.87 -0.429069
4.88 -0.432336
4.89 -0.435559
4.9 -0.438673
4.91 -0.441611
4.92 -0.444275
4.93 -0.446624
4.94 -0.44861
4.95 -0.450192
4.96 -0.45134
4.97 -0.452035
4.98 -0.452251
4.99 -0.451983
5 -0.451281
5.01 -0.450173
5.02 -0.44869
5.03 -0.44687
5.04 -0.444749
5.05 -0.442343
5.06 -0.439707
5.07 -0.436871
5.08 -0.43385
5.09 -0.43065
5.1 -0.427264
5.11 -0.423667
5.12 -0.419811
5.13 -0.415669
5.14 -0.41119
5.15 -0.406312
5.16 -0.40097
5.17 -0.395099
5.18 -0.388574
5.19 -0.381363
5.2 -0.373435
5.21 -0.364749
5.22 -0.355282
5.23 -0.345024
5.24 -0.333969
5.25 -0.3221
5.26 -0.309543
5.27 -0.296373
5.28 -0.282679
5.29 -0.268568
5.3 -0.254161
5.31 -0.239584
5.32 -0.225001
5.33 -0.210555
5.34 -0.196384
5.35 -0.182617
5.36 -0.169375
5.37 -0.156775
5.38 -0.144979
5.39 -0.133986
5.4 -0.123839
5.41 -0.114561
5.42 -0.106152
5.43 -0.0985914
5.44 -0.091887
5.45 -0.0859572
5.46 -0.0806846
5.47 -0.0759821
5.48 -0.0717558
5.49 -0.0679086
5.5 -0.0643446
5.51 -0.0609836
5.52 -0.0577141
5.53 -0.0544668
5.54 -0.0511863
5.55 -0.0478325
5.56 -0.0443821
5.57 -0.040823
5.58 -0.0371677
5.59 -0.0334502
5.6 -0.0297105
5.61 -0.0259977
5.62 -0.0223674
5.63 -0.0188783
5.64 -0.015616
5.65 -0.0126189
5.66 -0.00992926
5.67 -0.00758016
5.68 -0.00559099
5.69 -0.00396586
5.7 -0.00270656
5.71 -0.00178622
5.72 -0.00112909
5.73 -0.000669778
5.74 -0.000329919
5.75 -2.07262e-05
5.76 0.000353893
5.77 0.00091978
5.78 0.00177473
5.79 0.00300931
5.8 0.00470878
5.81 0.00694614
5.82 0.00977901
5.83 0.0132688
5.84 0.0174687
5.85 0.0223176
5.86 0.0277873
5.87 0.033829
5.88 0.0403748
5.89 0.0473402
5.9 0.0546448
5.91 0.0621472
5.92 0.0697219
5.93 0.0772521
5.94 0.0846243
5.95 0.091733
5.96 0.0984743
5.97 0.10473
5.98 0.11048
5.99 0.11569
6 0.120349
6.01 0.124467
6.02 0.128076
6.03 0.131201
6.04 0.133941
6.05 0.136405
6.06 0.138693
6.07 0.140912
6.08 0.143171
6.09 0.145578
6.1 0.148262
6.11 0.151288
6.12 0.154719
6.13 0.158597
6.14 0.162942
6.15 0.167748
6.16 0.173007
6.17 0.178645
6.18 0.18455
6.19 0.190612
6.2 0.196703
6.21 0.202679
6.22 0.208385
6.23 0.213594
6.24 0.21818
6.25 0.221991
6.26 0.224884
6.27 0.226734
6.28 0.227434
6.29 0.226834
6.3 0.224859
6.31 0.221569
6.32 0.216974
6.33 0.211114
6.34 0.204053
6.35 0.195884
6.36 0.186631
6.37 0.176539
6.38 0.165771
6.39 0.154486
6.4 0.142848
6.41 0.131022
6.42 0.119169
6.43 0.107458
6.44 0.0960169
6.45 0.084955
6.46 0.0743592
6.47 0.0642939
6.48 0.0547994
6.49 0.0459476
6.5 0.037685
6.51 0.0299653
6.52 0.0227372
6.53 0.0159345
6.54 0.00947927
6.55 0.003291
6.56 -0.00272233
6.57 -0.00867037
6.58 -0.0146363
6.59 -0.0206947
6.6 -0.0269085
6.61 -0.0333268
6.62 -0.0400037
6.63 -0.046942
6.64 -0.0541269
6.65 -0.0615343
6.66 -0.0691236
6.67 -0.0768396
6.68 -0.0846136
6.69 -0.0923547
6.7 -0.0999709
6.71 -0.107371
6.72 -0.114463
6.73 -0.121157
6.74 -0.127368
6.75 -0.132972
6.76 -0.137907
6.77 -0.142146
6.78 -0.145644
6.79 -0.148371
6.8 -0.150309
6.81 -0.151446
6.82 -0.151706
6.83 -0.151194
6.84 -0.149933
6.85 -0.14795
6.86 -0.145278
6.87 -0.14195
6.88 -0.137961
6.89 -0.133351
6.9 -0.128177
6.91 -0.122461
6.92 -0.116216
6.93 -0.109449
6.94 -0.102163
6.95 -0.0942912
6.96 -0.0858821
6.97 -0.0769232
6.98 -0.0673986
6.99 -0.0572922
7 -0.0465891
7.01 -0.0352464
7.02 -0.0232464
7.03 -0.0106306
7.04 0.00259255
7.05 0.0164059
7.06 0.0307829
7.07 0.0456875
7.08 0.0611179
7.09 0.0769686
7.1 0.0931674
7.11 0.109642
7.12 0.126313
7.13 0.143098
7.14 0.159908
7.15 0.176644
7.16 0.193218
7.17 0.209548
7.18 0.225555
7.19 0.241166
7.2 0.256312
7.21 0.270881
7.22 0.284849
7.23 0.298185
7.24 0.310852
7.25 0.322817
7.26 0.334056
7.27 0.344524
7.28 0.354155
7.29 0.362998
7.3 0.371039
7.31 0.378261
7.32 0.384645
7.33 0.390171
7.34 0.394741
7.35 0.398363
7.36 0.401036
7.37 0.402726
7.38 0.403393
7.39 0.402997
7.4 0.401478
7.41 0.398694
7.42 0.394717
7.43 0.389513
7.44 0.383051
7.45 0.375309
7.46 0.366271
7.47 0.355842
7.48 0.34406
7.49 0.331007
7.5 0.316716
7.51 0.301233
7.52 0.284618
7.53 0.266938
7.54 0.248184
7.55 0.228573
7.56 0.208213
7.57 0.187223
7.58 0.165727
7.59 0.143856
7.6 0.121741
7.61 0.0995407
7.62 0.0774054
7.63 0.055472
7.64 0.0338736
7.65 0.0127391
7.66 -0.00780912
7.67 -0.027565
7.68 -0.0464879
7.69 -0.0644865
7.7 -0.0814764
7.71 -0.0973839
7.72 -0.112147
7.73 -0.125655
7.74 -0.137839
7.75 -0.148759
7.76 -0.158403
7.77 -0.166771
7.78 -0.173873
7.79 -0.179733
7.8 -0.184265
7.81 -0.18762
7.82 -0.189872
7.83 -0.191085
7.84 -0.191328
7.85 -0.190678
7.86 -0.189191
7.87 -0.186935
7.88 -0.184063
7.89 -0.180666
7.9 -0.176837
7.91 -0.172664
7.92 -0.168234
7.93 -0.163622
7.94 -0.158924
7.95 -0.154211
7.96 -0.149543
7.97 -0.144972
7.98 -0.140539
7.99 -0.136278
8 -0.132225
8.01 -0.128372
8.02 -0.124717
8.03 -0.121249
8.04 -0.117951
8.05 -0.114797
8.06 -0.111764
8.07 -0.108809
8.08 -0.105893
8.09 -0.10298
8.1 -0.100039
8.11 -0.0970398
8.12 -0.0939578
8.13 -0.0907662
8.14 -0.0874665
8.15 -0.0840598
8.16 -0.0805559
8.17 -0.0769732
8.18 -0.0733382
8.19 -0.0696861
8.2 -0.0660638
8.21 -0.0625176
8.22 -0.0590953
8.23 -0.0558454
8.24 -0.0528149
8.25 -0.0500482
8.26 -0.0476196
8.27 -0.0455263
8.28 -0.0437866
8.29 -0.0424077
8.3 -0.0413854
8.31 -0.0407028
8.32 -0.040346
8.33 -0.0402665
8.34 -0.0403906
8.35 -0.0406534
8.36 -0.0409822
8.37 -0.0412989
8.38 -0.0415219
8.39 -0.0415412
8.4 -0.0412873
8.41 -0.0406884
8.42 -0.039679
8.43 -0.0382046
8.44 -0.0362232
8.45 -0.033682
8.46 -0.0305554
8.47 -0.0268912
8.48 -0.0227151
8.49 -0.0180693
8.5 -0.0130112
8.51 -0.00761239
8.52 -0.00194008
8.53 0.00388034
8.54 0.00974283
8.55 0.0155428
8.56 0.0211755
8.57 0.0265391
8.58 0.0315218
8.59 0.0360037
8.6 0.0399434
8.61 0.043282
8.62 0.0459757
8.63 0.0479968
8.64 0.0493342
8.65 0.0499365
8.66 0.0498693
8.67 0.049193
8.68 0.04796
8.69 0.0462331
8.7 0.0440831
8.71 0.0415798
8.72 0.0387927
8.73 0.0358304
8.74 0.0327659
8.75 0.0296658
8.76 0.0265884
8.77 0.0235809
8.78 0.020689
8.79 0.0179325
8.8 0.0153126
8.81 0.0128219
8.82 0.0104408
8.83 0.00813814
8.84 0.00587311
8.85 0.00358924
8.86 0.00122793
8.87 -0.0012691
8.88 -0.00396048
8.89 -0.00690286
8.9 -0.0101487
8.91 -0.0137697
8.92 -0.0178037
8.93 -0.0222586
8.94 -0.0271496
8.95 -0.0324815
8.96 -0.0382475
8.97 -0.0444305
8.98 -0.0510434
8.99 -0.0579995
9 -0.0652529
9.01 -0.0727519
9.02 -0.0804415
9.03 -0.0882646
9.04 -0.0961649
9.05 -0.104079
9.06 -0.111953
9.07 -0.11974
9.08 -0.127402
9.09 -0.134904
9.1 -0.142222
9.11 -0.149315
9.12 -0.156191
9.13 -0.162849
9.14 -0.16929
9.15 -0.17552
9.16 -0.181547
9.17 -0.187374
9.18 -0.193006
9.19 -0.198464
9.2 -0.203752
9.21 -0.208871
9.22 -0.213816
9.23 -0.218578
9.24 -0.22312
9.25 -0.227432
9.26 -0.231491
9.27 -0.235265
9.28 -0.238719
9.29 -0.241815
9.3 -0.244503
9.31 -0.246717
9.32 -0.248457
9.33 -0.249693
9.34 -0.2504
9.35 -0.250558
9.36 -0.250156
9.37 -0.249143
9.38 -0.247555
9.39 -0.245422
9.4 -0.242768
9.41 -0.23962
9.42 -0.236012
9.43 -0.231973
9.44 -0.227523
9.45 -0.222742
9.46 -0.217672
9.47 -0.21235
9.48 -0.206812
9.49 -0.201085
9.5 -0.19518
9.51 -0.189114
9.52 -0.182898
9.53 -0.176523
9.54 -0.169975
9.55 -0.163228
9.56 -0.15625
9.57 -0.148968
9.58 -0.141365
9.59 -0.133393
9.6 -0.125005
9.61 -0.116153
9.62 -0.106793
9.63 -0.0968508
9.64 -0.0862943
9.65 -0.0751329
9.66 -0.0633557
9.67 -0.0509626
9.68 -0.0379656
9.69 -0.0243882
9.7 -0.0102085
9.71 0.00445843
9.72 0.019552
9.73 0.0350038
9.74 0.0507385
9.75 0.066675
9.76 0.0827304
9.77 0.0988063
9.78 0.114811
9.79 0.130663
9.8 0.146285
9.81 0.161607
9.82 0.176565
9.83 0.191057
9.84 0.205074
9.85 0.21859
9.86 0.23158
9.87 0.244032
9.88 0.255941
9.89 0.267288
9.9 0.278065
9.91 0.288328
9.92 0.298096
9.93 0.307387
9.94 0.31622
9.95 0.324613
9.96 0.332541
9.97 0.340046
9.98 0.34714
9.99 0.353822
10 0.360085
10.01 0.365915
10.02 0.371278
10.03 0.37612
10.04 0.380452
10.05 0.384243
10.06 0.387461
10.07 0.390074
10.08 0.392053
10.09 0.393315
10.1 0.39387
10.11 0.393726
10.12 0.39288
10.13 0.391335
10.14 0.389105
10.15 0.386201
10.16 0.382612
10.17 0.378449
10.18 0.373766
10.19 0.368628
10.2 0.363105
10.21 0.357273
10.22 0.351204
10.23 0.344999
10.24 0.338753
10.25 0.332548
10.26 0.326465
10.27 0.320578
10.28 0.314957
10.29 0.309701
10.3 0.304826
10.31 0.300368
10.32 0.296351
10.33 0.292786
10.34 0.289671
10.35 0.287017
10.36 0.28479
10.37 0.282922
10.38 0.28136
10.39 0.280042
10.4 0.278895
10.41 0.277841
10.42 0.276786
10.43 0.275631
10.44 0.274284
10.45 0.272655
10.46 0.270653
10.47 0.268191
10.48 0.265158
10.49 0.261456
10.5 0.257058
10.51 0.251907
10.52 0.245958
10.53 0.239176
10.54 0.231538
10.55 0.222944
10.56 0.213471
10.57 0.203148
10.58 0.192003
10.59 0.180073
10.6 0.167406
10.61 0.154035
10.62 0.140009
10.63 0.125455
10.64 0.110449
10.65 0.0950733
10.66 0.0794098
10.67 0.0635416
10.68 0.0475464
10.69 0.0315199
10.7 0.0155386
10.71 -0.000330029
10.72 -0.016025
10.73 -0.031493
10.74 -0.0466809
10.75 -0.0615297
10.76 -0.0760404
10.77 -0.0901977
10.78 -0.103996
10.79 -0.117436
10.8 -0.13053
10.81 -0.143269
10.82 -0.155694
10.83 -0.167846
10.84 -0.179757
10.85 -0.191461
10.86 -0.202993
10.87 -0.214385
10.88 -0.225663
10.89 -0.236868
10.9 -0.248025
10.91 -0.259152
10.92 -0.270262
10.93 -0.28136
10.94 -0.292447
10.95 -0.303514
10.96 -0.314548
10.97 -0.325527
10.98 -0.336428
10.99 -0.347218
11 -0.357864
11.01 -0.368303
11.02 -0.378512
11.03 -0.388449
11.04 -0.398073
11.05 -0.407342
11.06 -0.416215
11.07 -0.424628
11.08 -0.432537
11.09 -0.439935
11.1 -0.446792
11.11 -0.45308
11.12 -0.458775
11.13 -0.463854
11.14 -0.468226
11.15 -0.471939
11.16 -0.47498
11.17 -0.477338
11.18 -0.478999
11.19 -0.479951
11.2 -0.480151
11.21 -0.479569
11.22 -0.478246
11.23 -0.476175
11.24 -0.473348
11.25 -0.469758
11.26 -0.465402
11.27 -0.4602
11.28 -0.454216
11.29 -0.447468
11.3 -0.439964
11.31 -0.431714
11.32 -0.422736
11.33 -0.413025
11.34 -0.40258
11.35 -0.391488
11.36 -0.379785
11.37 -0.367511
11.38 -0.354707
11.39 -0.34142
11.4 -0.327662
11.41 -0.313514
11.42 -0.299037
11.43 -0.28428
11.44 -0.269287
11.45 -0.254103
11.46 -0.238765
11.47 -0.223306
11.48 -0.207768
11.49 -0.192179
11.5 -0.17656
11.51 -0.160926
11.52 -0.145291
11.53 -0.129665
11.54 -0.114055
11.55 -0.0984643
11.56 -0.0828968
11.57 -0.067357
11.58 -0.0518508
11.59 -0.0363878
11.6 -0.0209872
11.61 -0.00566282
11.62 0.00956204
11.63 0.0246583
11.64 0.0395914
11.65 0.0543211
11.66 0.0687823
11.67 0.0829213
11.68 0.0966976
11.69 0.110056
11.7 0.12294
11.71 0.135295
11.72 0.147069
11.73 0.158139
11.74 0.168532
11.75 0.178217
11.76 0.187171
11.77 0.195382
11.78 0.202847
11.79 0.209536
11.8 0.215467
11.81 0.220718
11.82 0.225331
11.83 0.229355
11.84 0.232845
11.85 0.235862
11.86 0.238428
11.87 0.240654
11.88 0.2426
11.89 0.244321
11.9 0.24586
11.91 0.247255
11.92 0.248524
11.93 0.249677
11.94 0.250716
11.95 0.251622
11.96 0.252359
11.97 0.252881
11.98 0.253126
11.99 0.252981
12 0.252381
12.01 0.251243
12.02 0.249474
12.03 0.246979
12.04 0.243665
12.05 0.239412
12.06 0.234077
12.07 0.227672
12.08 0.220143
12.09 0.21145
12.1 0.20157
12.11 0.1905
12.12 0.178153
12.13 0.164634
12.14 0.150033
