# xPDFsuite Configuration #
[PDF]
wavelength = 0.1
dataformat = QA
inputfile = BiMsol6_insitu_700 C-00391.xy
backgroundfile = Quartz2mm-dist500-00000.xy
mode = xray
bgscale = 0.0042
composition = Bi2Fe4O9
outputtype = gr
qmaxinst = 24.998449118
qmin = 0.1
qmax = 21.4986662415
rmax = 80.0
rmin = 0.0
rstep = 0.01
rpoly = 0.9

[Misc]
inputdir = C:/Data/Seafile/CPH/Beamtime/Desy Oct 20/In situ data/Processed/BiMsol6/PDF
savedir = C:/Data/Seafile/CPH/Beamtime/Desy Oct 20/In situ data/PDF/BiMsol6
backgroundfilefull = C:/Data/Seafile/CPH/Beamtime/Desy Oct 20/In situ data/Processed/Standard_Empty_Cap/Quartz2mm-dist500-00000.xy

#### start data
#S 1
#L r($\AA$)  G($\AA^{-2}$)
0 0
0.01 0.00659094
0.02 0.0128122
0.03 0.0183472
0.04 0.022912
0.05 0.0262677
0.06 0.0282321
0.07 0.0286055
0.08 0.0273288
0.09 0.024547
0.1 0.0203792
0.11 0.0150106
0.12 0.00868472
0.13 0.00169255
0.14 -0.0056398
0.15 -0.0128984
0.16 -0.0197343
0.17 -0.0258197
0.18 -0.0308604
0.19 -0.0346096
0.2 -0.0368137
0.21 -0.0372978
0.22 -0.0361586
0.23 -0.0334605
0.24 -0.0293477
0.25 -0.0240395
0.26 -0.0178219
0.27 -0.0110196
0.28 -0.00410535
0.29 0.00249981
0.3 0.00838671
0.31 0.0131654
0.32 0.0164843
0.33 0.0179867
0.34 0.0173223
0.35 0.0145384
0.36 0.0096266
0.37 0.00268455
0.38 -0.00608245
0.39 -0.0163642
0.4 -0.0278024
0.41 -0.03977
0.42 -0.0516502
0.43 -0.0628154
0.44 -0.0726145
0.45 -0.0803971
0.46 -0.0854746
0.47 -0.0869593
0.48 -0.0846476
0.49 -0.0781717
0.5 -0.0672872
0.51 -0.0518869
0.52 -0.0320125
0.53 -0.00757475
0.54 0.0208801
0.55 0.0526245
0.56 0.0869846
0.57 0.123169
0.58 0.16029
0.59 0.197378
0.6 0.233205
0.61 0.266781
0.62 0.297121
0.63 0.323301
0.64 0.344484
0.65 0.359948
0.66 0.368698
0.67 0.370314
0.68 0.364954
0.69 0.352607
0.7 0.333449
0.71 0.307836
0.72 0.276299
0.73 0.239019
0.74 0.197509
0.75 0.152741
0.76 0.105748
0.77 0.0576062
0.78 0.00940231
0.79 -0.0376947
0.8 -0.0825017
0.81 -0.124198
0.82 -0.162001
0.83 -0.195266
0.84 -0.223501
0.85 -0.24638
0.86 -0.263175
0.87 -0.274431
0.88 -0.280442
0.89 -0.281577
0.9 -0.278337
0.91 -0.271333
0.92 -0.261174
0.93 -0.24864
0.94 -0.234753
0.95 -0.220302
0.96 -0.206045
0.97 -0.192684
0.98 -0.180845
0.99 -0.171287
1 -0.16432
1.01 -0.160156
1.02 -0.158935
1.03 -0.160672
1.04 -0.165265
1.05 -0.172564
1.06 -0.182349
1.07 -0.193982
1.08 -0.207002
1.09 -0.220914
1.1 -0.23521
1.11 -0.249393
1.12 -0.262908
1.13 -0.275314
1.14 -0.286292
1.15 -0.295576
1.16 -0.302985
1.17 -0.308427
1.18 -0.311865
1.19 -0.313246
1.2 -0.312945
1.21 -0.311205
1.22 -0.308319
1.23 -0.304618
1.24 -0.300449
1.25 -0.296182
1.26 -0.2922
1.27 -0.288804
1.28 -0.286246
1.29 -0.28472
1.3 -0.284357
1.31 -0.285222
1.32 -0.287422
1.33 -0.290719
1.34 -0.29495
1.35 -0.299897
1.36 -0.305297
1.37 -0.310857
1.38 -0.316239
1.39 -0.321084
1.4 -0.32511
1.41 -0.328055
1.42 -0.329702
1.43 -0.329888
1.44 -0.328512
1.45 -0.32537
1.46 -0.320691
1.47 -0.314615
1.48 -0.307337
1.49 -0.299113
1.5 -0.290247
1.51 -0.281084
1.52 -0.272045
1.53 -0.263516
1.54 -0.255856
1.55 -0.249395
1.56 -0.244421
1.57 -0.241167
1.58 -0.240003
1.59 -0.240859
1.6 -0.243694
1.61 -0.248422
1.62 -0.254872
1.63 -0.262802
1.64 -0.271929
1.65 -0.281865
1.66 -0.292101
1.67 -0.302195
1.68 -0.311698
1.69 -0.320168
1.7 -0.327191
1.71 -0.332199
1.72 -0.334962
1.73 -0.335301
1.74 -0.333065
1.75 -0.32819
1.76 -0.320699
1.77 -0.310645
1.78 -0.298107
1.79 -0.283607
1.8 -0.267499
1.81 -0.250194
1.82 -0.232137
1.83 -0.213793
1.84 -0.195687
1.85 -0.178324
1.86 -0.162116
1.87 -0.147432
1.88 -0.134584
1.89 -0.123811
1.9 -0.115311
1.91 -0.109364
1.92 -0.10571
1.93 -0.104238
1.94 -0.104762
1.95 -0.10703
1.96 -0.110729
1.97 -0.115552
1.98 -0.121036
1.99 -0.126732
2 -0.132247
2.01 -0.137211
2.02 -0.141287
2.03 -0.144186
2.04 -0.145505
2.05 -0.145247
2.06 -0.143345
2.07 -0.139812
2.08 -0.134737
2.09 -0.128278
2.1 -0.120612
2.11 -0.112069
2.12 -0.103053
2.13 -0.0939298
2.14 -0.0850799
2.15 -0.0768833
2.16 -0.0697065
2.17 -0.0640695
2.18 -0.0601516
2.19 -0.0581723
2.2 -0.0582992
2.21 -0.0606317
2.22 -0.0651975
2.23 -0.072046
2.24 -0.0810895
2.25 -0.0919748
2.26 -0.104448
2.27 -0.11821
2.28 -0.132924
2.29 -0.148232
2.3 -0.16375
2.31 -0.179053
2.32 -0.193794
2.33 -0.207657
2.34 -0.22037
2.35 -0.231707
2.36 -0.241442
2.37 -0.24938
2.38 -0.255621
2.39 -0.260199
2.4 -0.263204
2.41 -0.26478
2.42 -0.265117
2.43 -0.264377
2.44 -0.262911
2.45 -0.261024
2.46 -0.258996
2.47 -0.2571
2.48 -0.255593
2.49 -0.254724
2.5 -0.254769
2.51 -0.255809
2.52 -0.257945
2.53 -0.261226
2.54 -0.265656
2.55 -0.271191
2.56 -0.277813
2.57 -0.285337
2.58 -0.293556
2.59 -0.302281
2.6 -0.311307
2.61 -0.320423
2.62 -0.329413
2.63 -0.33802
2.64 -0.34608
2.65 -0.353431
2.66 -0.359943
2.67 -0.365511
2.68 -0.370065
2.69 -0.373498
2.7 -0.37582
2.71 -0.377112
2.72 -0.377428
2.73 -0.376836
2.74 -0.375421
2.75 -0.373274
2.76 -0.370425
2.77 -0.367045
2.78 -0.363211
2.79 -0.358985
2.8 -0.354412
2.81 -0.349515
2.82 -0.34428
2.83 -0.338677
2.84 -0.332681
2.85 -0.32623
2.86 -0.319248
2.87 -0.311648
2.88 -0.303339
2.89 -0.294135
2.9 -0.284021
2.91 -0.272935
2.92 -0.260823
2.93 -0.247651
2.94 -0.233411
2.95 -0.218076
2.96 -0.201669
2.97 -0.184347
2.98 -0.166215
2.99 -0.1474
3 -0.128052
3.01 -0.108332
3.02 -0.0884139
3.03 -0.0685106
3.04 -0.0488028
3.05 -0.0294589
3.06 -0.0106339
3.07 0.00753578
3.08 0.0249087
3.09 0.0413436
3.1 0.0568568
3.11 0.0714277
3.12 0.0850659
3.13 0.0978096
3.14 0.109724
3.15 0.120844
3.16 0.131332
3.17 0.141339
3.18 0.150997
3.19 0.160443
3.2 0.169808
3.21 0.179222
3.22 0.188819
3.23 0.19868
3.24 0.20887
3.25 0.219431
3.26 0.230377
3.27 0.241697
3.28 0.253373
3.29 0.265321
3.3 0.277437
3.31 0.289614
3.32 0.301731
3.33 0.31366
3.34 0.32526
3.35 0.336338
3.36 0.346806
3.37 0.356549
3.38 0.365465
3.39 0.373474
3.4 0.380513
3.41 0.386478
3.42 0.391365
3.43 0.395241
3.44 0.398145
3.45 0.400134
3.46 0.401285
3.47 0.401691
3.48 0.401396
3.49 0.400602
3.5 0.399432
3.51 0.39801
3.52 0.396456
3.53 0.39489
3.54 0.393429
3.55 0.392192
3.56 0.391254
3.57 0.390691
3.58 0.390559
3.59 0.390907
3.6 0.391768
3.61 0.393222
3.62 0.39523
3.63 0.397787
3.64 0.400886
3.65 0.404514
3.66 0.408654
3.67 0.413307
3.68 0.418464
3.69 0.424065
3.7 0.430085
3.71 0.436499
3.72 0.44328
3.73 0.450402
3.74 0.457857
3.75 0.465586
3.76 0.473539
3.77 0.48167
3.78 0.489924
3.79 0.498239
3.8 0.50654
3.81 0.514731
3.82 0.522723
3.83 0.530415
3.84 0.537701
3.85 0.544468
3.86 0.550597
3.87 0.555897
3.88 0.560267
3.89 0.563616
3.9 0.56583
3.91 0.566804
3.92 0.56644
3.93 0.564626
3.94 0.561162
3.95 0.556138
3.96 0.549515
3.97 0.541274
3.98 0.531409
3.99 0.519934
4 0.506766
4.01 0.491997
4.02 0.475756
4.03 0.458115
4.04 0.439152
4.05 0.418953
4.06 0.397603
4.07 0.375102
4.08 0.351672
4.09 0.327412
4.1 0.30242
4.11 0.276793
4.12 0.250626
4.13 0.223991
4.14 0.196996
4.15 0.169754
4.16 0.142353
4.17 0.114884
4.18 0.0874333
4.19 0.0600924
4.2 0.0329859
4.21 0.00619444
4.22 -0.0201872
4.23 -0.0460618
4.24 -0.0713314
4.25 -0.0958981
4.26 -0.119621
4.27 -0.142377
4.28 -0.164132
4.29 -0.184808
4.3 -0.204333
4.31 -0.222647
4.32 -0.239703
4.33 -0.255336
4.34 -0.269643
4.35 -0.282651
4.36 -0.294383
4.37 -0.304881
4.38 -0.314204
4.39 -0.322388
4.4 -0.329496
4.41 -0.335717
4.42 -0.341164
4.43 -0.345954
4.44 -0.350209
4.45 -0.354045
4.46 -0.35756
4.47 -0.360889
4.48 -0.364131
4.49 -0.367361
4.5 -0.370639
4.51 -0.374007
4.52 -0.377488
4.53 -0.381091
4.54 -0.384785
4.55 -0.388532
4.56 -0.392278
4.57 -0.395959
4.58 -0.399502
4.59 -0.402801
4.6 -0.405774
4.61 -0.408352
4.62 -0.410462
4.63 -0.412041
4.64 -0.413042
4.65 -0.41342
4.66 -0.413106
4.67 -0.412172
4.68 -0.410644
4.69 -0.40857
4.7 -0.406013
4.71 -0.403054
4.72 -0.399773
4.73 -0.396296
4.74 -0.39275
4.75 -0.38925
4.76 -0.385908
4.77 -0.382833
4.78 -0.380124
4.79 -0.377927
4.8 -0.376264
4.81 -0.375186
4.82 -0.374724
4.83 -0.374888
4.84 -0.37567
4.85 -0.377075
4.86 -0.379052
4.87 -0.381502
4.88 -0.384352
4.89 -0.38752
4.9 -0.390917
4.91 -0.394457
4.92 -0.398046
4.93 -0.401591
4.94 -0.405018
4.95 -0.408264
4.96 -0.411279
4.97 -0.414025
4.98 -0.416461
4.99 -0.418569
5 -0.420371
5.01 -0.421876
5.02 -0.423101
5.03 -0.424068
5.04 -0.424797
5.05 -0.425285
5.06 -0.425565
5.07 -0.425639
5.08 -0.425498
5.09 -0.425117
5.1 -0.424453
5.11 -0.423435
5.12 -0.421959
5.13 -0.419957
5.14 -0.417324
5.15 -0.413938
5.16 -0.409674
5.17 -0.404398
5.18 -0.397862
5.19 -0.389989
5.2 -0.38069
5.21 -0.369856
5.22 -0.357392
5.23 -0.343224
5.24 -0.327255
5.25 -0.309336
5.26 -0.289633
5.27 -0.268177
5.28 -0.245023
5.29 -0.22025
5.3 -0.19396
5.31 -0.166178
5.32 -0.137114
5.33 -0.106976
5.34 -0.0759229
5.35 -0.0441195
5.36 -0.0117286
5.37 0.0210944
5.38 0.0542046
5.39 0.0874218
5.4 0.12062
5.41 0.153685
5.42 0.186517
5.43 0.21903
5.44 0.251118
5.45 0.282715
5.46 0.313783
5.47 0.344271
5.48 0.374126
5.49 0.403291
5.5 0.431702
5.51 0.459186
5.52 0.48574
5.53 0.511264
5.54 0.535638
5.55 0.558729
5.56 0.580387
5.57 0.600351
5.58 0.618408
5.59 0.634475
5.6 0.648365
5.61 0.659897
5.62 0.668895
5.63 0.675196
5.64 0.678338
5.65 0.678476
5.66 0.675555
5.67 0.669525
5.68 0.660378
5.69 0.648142
5.7 0.632761
5.71 0.614285
5.72 0.593094
5.73 0.569386
5.74 0.543394
5.75 0.515374
5.76 0.48561
5.77 0.454286
5.78 0.421857
5.79 0.388659
5.8 0.354993
5.81 0.321147
5.82 0.287389
5.83 0.253982
5.84 0.221194
5.85 0.189167
5.86 0.15804
5.87 0.127916
5.88 0.0988634
5.89 0.0709195
5.9 0.0441852
5.91 0.0185746
5.92 -0.00599033
5.93 -0.0295663
5.94 -0.052217
5.95 -0.0740078
5.96 -0.0949826
5.97 -0.115142
5.98 -0.134591
5.99 -0.15334
6 -0.171377
6.01 -0.188666
6.02 -0.205145
6.03 -0.220653
6.04 -0.235096
6.05 -0.248382
6.06 -0.260367
6.07 -0.270903
6.08 -0.279836
6.09 -0.286999
6.1 -0.29206
6.11 -0.295092
6.12 -0.296006
6.13 -0.294742
6.14 -0.291272
6.15 -0.285607
6.16 -0.277661
6.17 -0.267564
6.18 -0.255567
6.19 -0.241839
6.2 -0.226583
6.21 -0.21003
6.22 -0.192431
6.23 -0.173992
6.24 -0.155106
6.25 -0.136045
6.26 -0.117075
6.27 -0.0984442
6.28 -0.0803793
6.29 -0.063128
6.3 -0.0468858
6.31 -0.0317188
6.32 -0.0177047
6.33 -0.00488004
6.34 0.00675904
6.35 0.0172551
6.36 0.0265858
6.37 0.0349794
6.38 0.0425917
6.39 0.0495864
6.4 0.0561408
6.41 0.062439
6.42 0.0686712
6.43 0.0750446
6.44 0.0817263
6.45 0.0888622
6.46 0.096577
6.47 0.10497
6.48 0.114114
6.49 0.124132
6.5 0.134981
6.51 0.146626
6.52 0.15903
6.53 0.172132
6.54 0.185857
6.55 0.20013
6.56 0.214866
6.57 0.229922
6.58 0.2452
6.59 0.26061
6.6 0.27607
6.61 0.291513
6.62 0.306873
6.63 0.322111
6.64 0.337211
6.65 0.352166
6.66 0.366982
6.67 0.381674
6.68 0.396263
6.69 0.410774
6.7 0.425239
6.71 0.439678
6.72 0.454098
6.73 0.468498
6.74 0.482856
6.75 0.497124
6.76 0.511234
6.77 0.525105
6.78 0.53863
6.79 0.551683
6.8 0.56412
6.81 0.575774
6.82 0.586356
6.83 0.595773
6.84 0.603845
6.85 0.61039
6.86 0.615238
6.87 0.618228
6.88 0.619087
6.89 0.617689
6.9 0.614053
6.91 0.608116
6.92 0.599842
6.93 0.589223
6.94 0.576284
6.95 0.560822
6.96 0.54318
6.97 0.523471
6.98 0.501821
6.99 0.478371
7 0.453273
7.01 0.426622
7.02 0.398584
7.03 0.369417
7.04 0.339278
7.05 0.308313
7.06 0.27666
7.07 0.244441
7.08 0.21173
7.09 0.178669
7.1 0.145344
7.11 0.111821
7.12 0.0781545
7.13 0.0443926
7.14 0.0105767
7.15 -0.0232487
7.16 -0.0570396
7.17 -0.0907519
7.18 -0.124335
7.19 -0.157729
7.2 -0.190866
7.21 -0.223624
7.22 -0.255921
7.23 -0.287658
7.24 -0.31872
7.25 -0.348979
7.26 -0.378306
7.27 -0.406532
7.28 -0.43343
7.29 -0.458969
7.3 -0.483027
7.31 -0.505493
7.32 -0.526274
7.33 -0.545291
7.34 -0.562337
7.35 -0.57746
7.36 -0.590721
7.37 -0.602139
7.38 -0.61176
7.39 -0.61965
7.4 -0.625869
7.41 -0.630414
7.42 -0.63357
7.43 -0.635475
7.44 -0.636271
7.45 -0.636104
7.46 -0.635118
7.47 -0.633413
7.48 -0.631151
7.49 -0.628477
7.5 -0.625488
7.51 -0.622262
7.52 -0.618858
7.53 -0.615313
7.54 -0.611634
7.55 -0.607826
7.56 -0.603865
7.57 -0.59971
7.58 -0.595307
7.59 -0.59059
7.6 -0.585461
7.61 -0.579833
7.62 -0.573655
7.63 -0.566854
7.64 -0.559369
7.65 -0.551144
7.66 -0.542139
7.67 -0.532234
7.68 -0.521504
7.69 -0.509963
7.7 -0.497632
7.71 -0.484552
7.72 -0.470775
7.73 -0.456342
7.74 -0.44133
7.75 -0.425871
7.76 -0.410059
7.77 -0.393991
7.78 -0.377766
7.79 -0.361483
7.8 -0.345251
7.81 -0.329164
7.82 -0.313307
7.83 -0.297755
7.84 -0.282576
7.85 -0.267829
7.86 -0.253588
7.87 -0.239923
7.88 -0.226831
7.89 -0.214343
7.9 -0.202481
7.91 -0.191269
7.92 -0.180723
7.93 -0.170922
7.94 -0.16184
7.95 -0.153474
7.96 -0.145838
7.97 -0.138945
7.98 -0.132812
7.99 -0.127473
8 -0.122996
8.01 -0.119321
8.02 -0.116457
8.03 -0.114411
8.04 -0.113184
8.05 -0.112772
8.06 -0.113229
8.07 -0.1145
8.08 -0.116531
8.09 -0.119287
8.1 -0.122727
8.11 -0.126804
8.12 -0.131469
8.13 -0.136699
8.14 -0.142368
8.15 -0.148405
8.16 -0.154735
8.17 -0.161282
8.18 -0.167971
8.19 -0.174726
8.2 -0.181463
8.21 -0.188109
8.22 -0.194599
8.23 -0.200871
8.24 -0.206866
8.25 -0.21253
8.26 -0.217764
8.27 -0.222562
8.28 -0.226878
8.29 -0.230669
8.3 -0.233892
8.31 -0.236501
8.32 -0.238412
8.33 -0.239565
8.34 -0.239947
8.35 -0.239502
8.36 -0.23817
8.37 -0.235888
8.38 -0.232587
8.39 -0.228075
8.4 -0.222384
8.41 -0.215454
8.42 -0.207219
8.43 -0.197617
8.44 -0.186595
8.45 -0.174035
8.46 -0.159858
8.47 -0.14415
8.48 -0.126902
8.49 -0.108122
8.5 -0.0878326
8.51 -0.0660735
8.52 -0.0427674
8.53 -0.0181076
8.54 0.00779101
8.55 0.0348275
8.56 0.0628903
8.57 0.0918589
8.58 0.121629
8.59 0.152083
8.6 0.183027
8.61 0.214331
8.62 0.245871
8.63 0.277526
8.64 0.309186
8.65 0.340732
8.66 0.372069
8.67 0.403121
8.68 0.433819
8.69 0.464106
8.7 0.493931
8.71 0.523237
8.72 0.551942
8.73 0.580058
8.74 0.607548
8.75 0.634374
8.76 0.660489
8.77 0.685842
8.78 0.710302
8.79 0.733815
8.8 0.756326
8.81 0.777735
8.82 0.79793
8.83 0.816787
8.84 0.83415
8.85 0.849708
8.86 0.863469
8.87 0.875279
8.88 0.884987
8.89 0.892444
8.9 0.897511
8.91 0.899886
8.92 0.899474
8.93 0.896316
8.94 0.890342
8.95 0.881505
8.96 0.869784
8.97 0.855181
8.98 0.837405
8.99 0.816856
9 0.793624
9.01 0.767823
9.02 0.739587
9.03 0.709071
9.04 0.676341
9.05 0.641592
9.06 0.605152
9.07 0.567219
9.08 0.527996
9.09 0.487685
9.1 0.446483
9.11 0.404529
9.12 0.362093
9.13 0.319354
9.14 0.276477
9.15 0.233616
9.16 0.190915
9.17 0.148529
9.18 0.106615
9.19 0.0652716
9.2 0.0246132
9.21 -0.0152466
9.22 -0.0541956
9.23 -0.0921211
9.24 -0.128788
9.25 -0.16415
9.26 -0.198109
9.27 -0.230541
9.28 -0.261315
9.29 -0.290302
9.3 -0.317303
9.31 -0.342059
9.32 -0.364606
9.33 -0.384824
9.34 -0.402596
9.35 -0.417818
9.36 -0.430401
9.37 -0.440034
9.38 -0.446799
9.39 -0.450752
9.4 -0.451885
9.41 -0.450211
9.42 -0.445767
9.43 -0.438558
9.44 -0.428483
9.45 -0.415909
9.46 -0.400966
9.47 -0.383798
9.48 -0.364566
9.49 -0.343439
9.5 -0.320484
9.51 -0.295964
9.52 -0.270137
9.53 -0.243189
9.54 -0.215299
9.55 -0.186642
9.56 -0.157379
9.57 -0.12764
9.58 -0.0976292
9.59 -0.0674768
9.6 -0.0373032
9.61 -0.00721841
9.62 0.0226771
9.63 0.0522673
9.64 0.081456
9.65 0.110179
9.66 0.138357
9.67 0.165914
9.68 0.192771
9.69 0.218847
9.7 0.24395
9.71 0.268081
9.72 0.29115
9.73 0.31306
9.74 0.333714
9.75 0.353012
9.76 0.370774
9.77 0.386867
9.78 0.401297
9.79 0.413978
9.8 0.424838
9.81 0.433815
9.82 0.44086
9.83 0.445737
9.84 0.448615
9.85 0.44953
9.86 0.448514
9.87 0.445617
9.88 0.44091
9.89 0.434418
9.9 0.426205
9.91 0.416525
9.92 0.405515
9.93 0.393317
9.94 0.380082
9.95 0.36596
9.96 0.351048
9.97 0.335557
9.98 0.319641
9.99 0.303425
10 0.287021
10.01 0.270526
10.02 0.254026
10.03 0.237594
10.04 0.221275
10.05 0.205099
10.06 0.18908
10.07 0.17322
10.08 0.15751
10.09 0.141943
10.1 0.126485
10.11 0.111107
10.12 0.0957809
10.13 0.0804846
10.14 0.0651999
10.15 0.0499155
10.16 0.0346297
10.17 0.0193527
10.18 0.00410524
10.19 -0.0110817
10.2 -0.026167
10.21 -0.0411008
10.22 -0.0558058
10.23 -0.0702142
10.24 -0.0842683
10.25 -0.0978997
10.26 -0.111042
10.27 -0.123632
10.28 -0.13561
10.29 -0.146855
10.3 -0.157404
10.31 -0.167233
10.32 -0.176335
10.33 -0.184715
10.34 -0.192394
10.35 -0.199368
10.36 -0.205692
10.37 -0.211465
10.38 -0.216755
10.39 -0.221638
10.4 -0.226195
10.41 -0.230508
10.42 -0.23465
10.43 -0.238726
10.44 -0.242809
10.45 -0.246964
10.46 -0.251249
10.47 -0.255709
10.48 -0.260389
10.49 -0.265319
10.5 -0.27049
10.51 -0.275898
10.52 -0.281529
10.53 -0.287357
10.54 -0.29335
10.55 -0.299477
10.56 -0.305679
10.57 -0.311905
10.58 -0.31811
10.59 -0.324249
10.6 -0.330278
10.61 -0.336153
10.62 -0.341831
10.63 -0.3473
10.64 -0.352544
10.65 -0.357553
10.66 -0.362325
10.67 -0.366863
10.68 -0.371158
10.69 -0.375241
10.7 -0.379136
10.71 -0.382863
10.72 -0.386444
10.73 -0.389897
10.74 -0.393241
10.75 -0.396486
10.76 -0.399653
10.77 -0.40275
10.78 -0.405779
10.79 -0.40874
10.8 -0.411627
10.81 -0.414425
10.82 -0.417123
10.83 -0.419711
10.84 -0.422175
10.85 -0.424502
10.86 -0.426678
10.87 -0.428691
10.88 -0.430521
10.89 -0.432181
10.9 -0.433673
10.91 -0.435006
10.92 -0.436188
10.93 -0.437235
10.94 -0.438157
10.95 -0.438979
10.96 -0.439725
10.97 -0.440414
10.98 -0.441062
10.99 -0.441681
11 -0.442276
11.01 -0.442843
11.02 -0.443374
11.03 -0.443848
11.04 -0.444236
11.05 -0.444497
11.06 -0.444582
11.07 -0.444416
11.08 -0.443921
11.09 -0.443036
11.1 -0.441684
11.11 -0.439784
11.12 -0.437257
11.13 -0.434024
11.14 -0.429921
11.15 -0.42496
11.16 -0.419093
11.17 -0.412283
11.18 -0.404506
11.19 -0.395753
11.2 -0.38599
11.21 -0.375225
11.22 -0.363574
11.23 -0.3511
11.24 -0.337882
11.25 -0.324012
11.26 -0.309591
11.27 -0.294698
11.28 -0.279498
11.29 -0.264116
11.3 -0.248668
11.31 -0.233265
11.32 -0.218009
11.33 -0.203002
11.34 -0.188347
11.35 -0.174079
11.36 -0.160238
11.37 -0.146844
11.38 -0.133899
11.39 -0.121385
11.4 -0.109298
11.41 -0.0975514
11.42 -0.0860642
11.43 -0.0747533
11.44 -0.0635269
11.45 -0.052287
11.46 -0.0409274
11.47 -0.0293199
11.48 -0.0173813
11.49 -0.00502341
11.5 0.00783195
11.51 0.0212507
11.52 0.0352846
11.53 0.0500217
11.54 0.0654572
11.55 0.0815633
11.56 0.0983218
11.57 0.115699
11.58 0.133647
11.59 0.152112
11.6 0.171052
11.61 0.190335
11.62 0.209876
11.63 0.229585
11.64 0.249377
11.65 0.269164
11.66 0.288857
11.67 0.308371
11.68 0.327649
11.69 0.346634
11.7 0.365283
11.71 0.38356
11.72 0.401437
11.73 0.418849
11.74 0.435833
11.75 0.452386
11.76 0.468507
11.77 0.484198
11.78 0.499458
11.79 0.514262
11.8 0.528597
11.81 0.542473
11.82 0.555867
11.83 0.568744
11.84 0.58106
11.85 0.592762
11.86 0.603701
11.87 0.613861
11.88 0.623163
11.89 0.631514
11.9 0.638815
11.91 0.644967
11.92 0.649809
11.93 0.653188
11.94 0.655104
11.95 0.655473
11.96 0.65422
11.97 0.651283
11.98 0.646613
11.99 0.640009
12 0.631592
12.01 0.621407
12.02 0.609483
12.03 0.595864
12.04 0.580617
12.05 0.563773
12.06 0.545372
12.07 0.525657
12.08 0.504754
12.09 0.482797
12.1 0.459932
12.11 0.436304
12.12 0.412025
12.13 0.3873
12.14 0.362294
12.15 0.337153
12.16 0.312018
12.17 0.28702
12.18 0.262294
12.19 0.238
12.2 0.214215
12.21 0.191037
12.22 0.168554
12.23 0.146844
12.24 0.125979
12.25 0.106092
12.26 0.087218
12.27 0.0693635
