# xPDFsuite Configuration #
[PDF]
wavelength = 0.1
dataformat = QA
inputfile = BiMsol6_insitu_700 C-00377.xy
backgroundfile = Quartz2mm-dist500-00000.xy
mode = xray
bgscale = 0.0042
composition = Bi2Fe4O9
outputtype = gr
qmaxinst = 24.998449118
qmin = 0.1
qmax = 21.4986662415
rmax = 80.0
rmin = 0.0
rstep = 0.01
rpoly = 0.9

[Misc]
inputdir = C:/Data/Seafile/CPH/Beamtime/Desy Oct 20/In situ data/Processed/BiMsol6/PDF
savedir = C:/Data/Seafile/CPH/Beamtime/Desy Oct 20/In situ data/PDF/BiMsol6
backgroundfilefull = C:/Data/Seafile/CPH/Beamtime/Desy Oct 20/In situ data/Processed/Standard_Empty_Cap/Quartz2mm-dist500-00000.xy

#### start data
#S 1
#L r($\AA$)  G($\AA^{-2}$)
0 0
0.01 0.00687406
0.02 0.0133641
0.03 0.0191415
0.04 0.0239109
0.05 0.0274244
0.06 0.0294921
0.07 0.0299063
0.08 0.0286047
0.09 0.0257377
0.1 0.0214281
0.11 0.0158675
0.12 0.00930808
0.13 0.00205138
0.14 -0.00556511
0.15 -0.0131113
0.16 -0.0202248
0.17 -0.026565
0.18 -0.0318256
0.19 -0.0357495
0.2 -0.0380721
0.21 -0.0386098
0.22 -0.0374606
0.23 -0.034689
0.24 -0.0304421
0.25 -0.0249447
0.26 -0.0184912
0.27 -0.0114142
0.28 -0.00420303
0.29 0.00270702
0.3 0.0088926
0.31 0.0139497
0.32 0.0175134
0.33 0.0192133
0.34 0.0186847
0.35 0.0159718
0.36 0.0110618
0.37 0.00405115
0.38 -0.0048532
0.39 -0.0153361
0.4 -0.0270354
0.41 -0.0393087
0.42 -0.0515242
0.43 -0.0630392
0.44 -0.0731869
0.45 -0.0813004
0.46 -0.086674
0.47 -0.0883997
0.48 -0.0862644
0.49 -0.0798901
0.5 -0.0690246
0.51 -0.0535565
0.52 -0.0335267
0.53 -0.00884295
0.54 0.0199382
0.55 0.0520749
0.56 0.0868796
0.57 0.123545
0.58 0.161165
0.59 0.198751
0.6 0.23505
0.61 0.269054
0.62 0.29976
0.63 0.326227
0.64 0.347605
0.65 0.363162
0.66 0.371888
0.67 0.373362
0.68 0.36775
0.69 0.355046
0.7 0.335437
0.71 0.309294
0.72 0.277162
0.73 0.239241
0.74 0.197069
0.75 0.151642
0.76 0.104014
0.77 0.0552831
0.78 0.00655422
0.79 -0.0409814
0.8 -0.0861235
0.81 -0.128047
0.82 -0.165965
0.83 -0.19923
0.84 -0.227353
0.85 -0.250015
0.86 -0.26649
0.87 -0.277346
0.88 -0.282896
0.89 -0.283529
0.9 -0.279765
0.91 -0.272234
0.92 -0.261567
0.93 -0.248568
0.94 -0.234271
0.95 -0.219479
0.96 -0.20496
0.97 -0.191421
0.98 -0.179493
0.99 -0.16994
1 -0.163059
1.01 -0.159052
1.02 -0.158046
1.03 -0.160043
1.04 -0.164923
1.05 -0.172521
1.06 -0.182595
1.07 -0.194493
1.08 -0.207736
1.09 -0.221819
1.1 -0.236224
1.11 -0.250447
1.12 -0.263926
1.13 -0.276222
1.14 -0.287026
1.15 -0.29608
1.16 -0.303216
1.17 -0.308354
1.18 -0.311475
1.19 -0.312544
1.2 -0.311954
1.21 -0.309966
1.22 -0.306887
1.23 -0.303061
1.24 -0.298845
1.25 -0.29462
1.26 -0.29077
1.27 -0.287588
1.28 -0.28532
1.29 -0.284147
1.3 -0.284185
1.31 -0.285482
1.32 -0.28812
1.33 -0.291836
1.34 -0.296444
1.35 -0.3017
1.36 -0.307322
1.37 -0.312996
1.38 -0.318359
1.39 -0.323039
1.4 -0.326754
1.41 -0.329244
1.42 -0.330294
1.43 -0.329753
1.44 -0.327537
1.45 -0.323455
1.46 -0.317776
1.47 -0.31067
1.48 -0.302369
1.49 -0.293161
1.5 -0.283388
1.51 -0.273434
1.52 -0.263762
1.53 -0.254777
1.54 -0.246862
1.55 -0.240363
1.56 -0.235579
1.57 -0.232748
1.58 -0.232257
1.59 -0.234002
1.6 -0.23792
1.61 -0.243895
1.62 -0.251725
1.63 -0.261128
1.64 -0.27178
1.65 -0.283241
1.66 -0.294953
1.67 -0.306428
1.68 -0.317174
1.69 -0.326709
1.7 -0.334585
1.71 -0.340182
1.72 -0.343261
1.73 -0.343638
1.74 -0.341159
1.75 -0.335765
1.76 -0.327494
1.77 -0.316412
1.78 -0.302621
1.79 -0.286699
1.8 -0.269045
1.81 -0.250111
1.82 -0.230392
1.83 -0.210402
1.84 -0.19072
1.85 -0.171901
1.86 -0.154392
1.87 -0.1386
1.88 -0.124863
1.89 -0.113443
1.9 -0.104555
1.91 -0.0985064
1.92 -0.0950074
1.93 -0.093935
1.94 -0.0950834
1.95 -0.0981733
1.96 -0.102863
1.97 -0.108814
1.98 -0.115518
1.99 -0.122478
2 -0.129262
2.01 -0.13546
2.02 -0.1407
2.03 -0.144659
2.04 -0.146891
2.05 -0.14739
2.06 -0.146076
2.07 -0.142955
2.08 -0.138115
2.09 -0.13172
2.1 -0.123952
2.11 -0.11516
2.12 -0.105783
2.13 -0.0962144
2.14 -0.0868625
2.15 -0.0781392
2.16 -0.0704416
2.17 -0.0643272
2.18 -0.0600016
2.19 -0.0577082
2.2 -0.0576344
2.21 -0.0598947
2.22 -0.0645269
2.23 -0.0715913
2.24 -0.0810021
2.25 -0.0923878
2.26 -0.105482
2.27 -0.119968
2.28 -0.135489
2.29 -0.151663
2.3 -0.168079
2.31 -0.184283
2.32 -0.199897
2.33 -0.214583
2.34 -0.228041
2.35 -0.240028
2.36 -0.250293
2.37 -0.258622
2.38 -0.265116
2.39 -0.269805
2.4 -0.27278
2.41 -0.274192
2.42 -0.27424
2.43 -0.273093
2.44 -0.271125
2.45 -0.268667
2.46 -0.266019
2.47 -0.263478
2.48 -0.261323
2.49 -0.259826
2.5 -0.259289
2.51 -0.25981
2.52 -0.261503
2.53 -0.264431
2.54 -0.268606
2.55 -0.27399
2.56 -0.280573
2.57 -0.288162
2.58 -0.296541
2.59 -0.305509
2.6 -0.31485
2.61 -0.324336
2.62 -0.333736
2.63 -0.342774
2.64 -0.351262
2.65 -0.359022
2.66 -0.365904
2.67 -0.371787
2.68 -0.376586
2.69 -0.380175
2.7 -0.382551
2.71 -0.383796
2.72 -0.383957
2.73 -0.383102
2.74 -0.381315
2.75 -0.378693
2.76 -0.375262
2.77 -0.371215
2.78 -0.36664
2.79 -0.361613
2.8 -0.356193
2.81 -0.350421
2.82 -0.344296
2.83 -0.33781
2.84 -0.330955
2.85 -0.323683
2.86 -0.315933
2.87 -0.307632
2.88 -0.298701
2.89 -0.288974
2.9 -0.278436
2.91 -0.267031
2.92 -0.254706
2.93 -0.241429
2.94 -0.22719
2.95 -0.211963
2.96 -0.195766
2.97 -0.178741
2.98 -0.160982
2.99 -0.142604
3 -0.123743
3.01 -0.104547
3.02 -0.0851728
3.03 -0.0658163
3.04 -0.046642
3.05 -0.0278033
3.06 -0.00944137
3.07 0.00831986
3.08 0.0253522
3.09 0.041528
3.1 0.0568636
3.11 0.0713414
3.12 0.0849711
3.13 0.0977883
3.14 0.109852
3.15 0.121195
3.16 0.131963
3.17 0.14229
3.18 0.152293
3.19 0.162092
3.2 0.171801
3.21 0.181529
3.22 0.191389
3.23 0.201448
3.24 0.211759
3.25 0.222351
3.26 0.233232
3.27 0.244385
3.28 0.255787
3.29 0.267361
3.3 0.279019
3.31 0.290669
3.32 0.302208
3.33 0.313532
3.34 0.324527
3.35 0.335036
3.36 0.345002
3.37 0.354341
3.38 0.362985
3.39 0.370882
3.4 0.377997
3.41 0.384266
3.42 0.389703
3.43 0.394375
3.44 0.398325
3.45 0.40161
3.46 0.404294
3.47 0.406453
3.48 0.408125
3.49 0.409452
3.5 0.410513
3.51 0.411387
3.52 0.412141
3.53 0.41284
3.54 0.413537
3.55 0.41428
3.56 0.415102
3.57 0.416021
3.58 0.417053
3.59 0.418203
3.6 0.419475
3.61 0.420882
3.62 0.42241
3.63 0.424062
3.64 0.425841
3.65 0.427759
3.66 0.429832
3.67 0.432091
3.68 0.434577
3.69 0.437312
3.7 0.440335
3.71 0.443689
3.72 0.447414
3.73 0.451547
3.74 0.456165
3.75 0.461261
3.76 0.466832
3.77 0.472871
3.78 0.479353
3.79 0.486235
3.8 0.49346
3.81 0.500944
3.82 0.508548
3.83 0.516145
3.84 0.523586
3.85 0.530713
3.86 0.537355
3.87 0.543263
3.88 0.548264
3.89 0.552204
3.9 0.554912
3.91 0.556231
3.92 0.556017
3.93 0.554117
3.94 0.550279
3.95 0.544605
3.96 0.537056
3.97 0.527622
3.98 0.516324
3.99 0.503208
4 0.488229
4.01 0.471545
4.02 0.453355
4.03 0.433797
4.04 0.413016
4.05 0.391168
4.06 0.368404
4.07 0.34482
4.08 0.320661
4.09 0.296064
4.1 0.271158
4.11 0.246053
4.12 0.220848
4.13 0.195627
4.14 0.170464
4.15 0.145407
4.16 0.120492
4.17 0.0957448
4.18 0.0711838
4.19 0.0468228
4.2 0.0226997
4.21 -0.00119263
4.22 -0.0248353
4.23 -0.0482012
4.24 -0.0712543
4.25 -0.0939485
4.26 -0.116203
4.27 -0.137928
4.28 -0.159074
4.29 -0.179552
4.3 -0.199268
4.31 -0.218126
4.32 -0.236029
4.33 -0.252768
4.34 -0.268342
4.35 -0.282692
4.36 -0.295763
4.37 -0.307514
4.38 -0.317923
4.39 -0.326941
4.4 -0.334544
4.41 -0.340887
4.42 -0.346044
4.43 -0.350106
4.44 -0.353184
4.45 -0.355403
4.46 -0.356845
4.47 -0.357719
4.48 -0.358189
4.49 -0.358398
4.5 -0.358484
4.51 -0.358571
4.52 -0.358777
4.53 -0.359219
4.54 -0.35995
4.55 -0.361016
4.56 -0.36244
4.57 -0.364219
4.58 -0.366331
4.59 -0.36875
4.6 -0.371392
4.61 -0.374165
4.62 -0.37698
4.63 -0.379741
4.64 -0.382348
4.65 -0.384701
4.66 -0.386669
4.67 -0.388202
4.68 -0.389239
4.69 -0.389732
4.7 -0.389655
4.71 -0.388999
4.72 -0.387742
4.73 -0.385936
4.74 -0.383665
4.75 -0.381001
4.76 -0.378034
4.77 -0.374861
4.78 -0.371588
4.79 -0.36834
4.8 -0.365236
4.81 -0.362381
4.82 -0.359874
4.83 -0.357801
4.84 -0.356236
4.85 -0.355273
4.86 -0.354958
4.87 -0.355274
4.88 -0.356221
4.89 -0.357783
4.9 -0.359926
4.91 -0.3626
4.92 -0.365789
4.93 -0.369361
4.94 -0.373233
4.95 -0.377317
4.96 -0.381525
4.97 -0.385768
4.98 -0.389955
4.99 -0.39399
5 -0.397803
5.01 -0.401328
5.02 -0.404506
5.03 -0.407287
5.04 -0.409627
5.05 -0.411437
5.06 -0.412724
5.07 -0.41347
5.08 -0.41365
5.09 -0.413241
5.1 -0.412221
5.11 -0.410539
5.12 -0.408132
5.13 -0.405018
5.14 -0.401158
5.15 -0.396508
5.16 -0.391019
5.17 -0.384638
5.18 -0.377221
5.19 -0.368758
5.2 -0.359218
5.21 -0.348544
5.22 -0.336682
5.23 -0.323584
5.24 -0.309175
5.25 -0.293329
5.26 -0.276145
5.27 -0.257613
5.28 -0.237737
5.29 -0.21653
5.3 -0.194021
5.31 -0.170157
5.32 -0.145047
5.33 -0.118806
5.34 -0.0915112
5.35 -0.0632474
5.36 -0.0341073
5.37 -0.00418087
5.38 0.0264751
5.39 0.0576732
5.4 0.0893013
5.41 0.121246
5.42 0.15339
5.43 0.185617
5.44 0.217796
5.45 0.249789
5.46 0.281474
5.47 0.312725
5.48 0.34341
5.49 0.373394
5.5 0.402537
5.51 0.430566
5.52 0.45743
5.53 0.482976
5.54 0.507047
5.55 0.529482
5.56 0.550123
5.57 0.568694
5.58 0.585003
5.59 0.599028
5.6 0.610633
5.61 0.619698
5.62 0.626118
5.63 0.629808
5.64 0.6304
5.65 0.628135
5.66 0.623037
5.67 0.615133
5.68 0.604482
5.69 0.591169
5.7 0.575206
5.71 0.556696
5.72 0.535997
5.73 0.51331
5.74 0.488852
5.75 0.462855
5.76 0.435559
5.77 0.407133
5.78 0.377931
5.79 0.348211
5.8 0.318201
5.81 0.288115
5.82 0.258146
5.83 0.228481
5.84 0.199311
5.85 0.170725
5.86 0.142816
5.87 0.115651
5.88 0.0892743
5.89 0.0637112
5.9 0.0390374
5.91 0.0151973
5.92 -0.0078542
5.93 -0.0301414
5.94 -0.0516887
5.95 -0.0725168
5.96 -0.092623
5.97 -0.111956
5.98 -0.130566
5.99 -0.148421
6 -0.165469
6.01 -0.181644
6.02 -0.196862
6.03 -0.210935
6.04 -0.22377
6.05 -0.235291
6.06 -0.245372
6.07 -0.25389
6.08 -0.260725
6.09 -0.265751
6.1 -0.268687
6.11 -0.269659
6.12 -0.268627
6.13 -0.26558
6.14 -0.260536
6.15 -0.253547
6.16 -0.244584
6.17 -0.233806
6.18 -0.221465
6.19 -0.207741
6.2 -0.192838
6.21 -0.176975
6.22 -0.160387
6.23 -0.143287
6.24 -0.125994
6.25 -0.108741
6.26 -0.0917496
6.27 -0.075221
6.28 -0.0593337
6.29 -0.0442862
6.3 -0.0302212
6.31 -0.0171615
6.32 -0.00514724
6.33 0.00581682
6.34 0.0157602
6.35 0.0247445
6.36 0.0327811
6.37 0.0400841
6.38 0.0468044
6.39 0.053097
6.4 0.0591253
6.41 0.0650553
6.42 0.0710602
6.43 0.0773236
6.44 0.0839769
6.45 0.0911407
6.46 0.0989144
6.47 0.107374
6.48 0.116571
6.49 0.126604
6.5 0.137414
6.51 0.148956
6.52 0.161181
6.53 0.174023
6.54 0.1874
6.55 0.201231
6.56 0.215425
6.57 0.229844
6.58 0.244392
6.59 0.258978
6.6 0.273519
6.61 0.287946
6.62 0.302183
6.63 0.316196
6.64 0.329967
6.65 0.343487
6.66 0.35676
6.67 0.369802
6.68 0.382633
6.69 0.395272
6.7 0.40777
6.71 0.420156
6.72 0.432454
6.73 0.444678
6.74 0.456832
6.75 0.468897
6.76 0.48084
6.77 0.492614
6.78 0.504151
6.79 0.515363
6.8 0.526146
6.81 0.536372
6.82 0.545821
6.83 0.554406
6.84 0.561973
6.85 0.568362
6.86 0.573415
6.87 0.576976
6.88 0.578792
6.89 0.578716
6.9 0.576725
6.91 0.572722
6.92 0.56663
6.93 0.558393
6.94 0.547979
6.95 0.535134
6.96 0.520121
6.97 0.502993
6.98 0.483814
6.99 0.462669
7 0.439663
7.01 0.414829
7.02 0.388294
7.03 0.360313
7.04 0.331033
7.05 0.300605
7.06 0.26918
7.07 0.236909
7.08 0.203884
7.09 0.170325
7.1 0.136378
7.11 0.102174
7.12 0.0678365
7.13 0.0334838
7.14 -0.000764943
7.15 -0.0347826
7.16 -0.0684793
7.17 -0.101761
7.18 -0.134538
7.19 -0.166722
7.2 -0.19823
7.21 -0.228902
7.22 -0.2587
7.23 -0.287565
7.24 -0.315424
7.25 -0.342204
7.26 -0.367837
7.27 -0.392224
7.28 -0.41522
7.29 -0.436885
7.3 -0.457174
7.31 -0.476054
7.32 -0.493498
7.33 -0.509492
7.34 -0.523913
7.35 -0.536835
7.36 -0.548331
7.37 -0.558431
7.38 -0.567178
7.39 -0.57462
7.4 -0.580797
7.41 -0.585687
7.42 -0.589486
7.43 -0.592273
7.44 -0.594125
7.45 -0.595124
7.46 -0.595349
7.47 -0.594833
7.48 -0.593674
7.49 -0.59197
7.5 -0.58978
7.51 -0.587154
7.52 -0.584135
7.53 -0.580757
7.54 -0.577011
7.55 -0.572951
7.56 -0.568584
7.57 -0.563908
7.58 -0.558915
7.59 -0.553591
7.6 -0.547896
7.61 -0.541801
7.62 -0.535301
7.63 -0.528367
7.64 -0.520971
7.65 -0.513085
7.66 -0.504681
7.67 -0.495675
7.68 -0.486101
7.69 -0.475948
7.7 -0.465206
7.71 -0.453871
7.72 -0.441946
7.73 -0.429413
7.74 -0.416281
7.75 -0.402615
7.76 -0.388449
7.77 -0.373826
7.78 -0.358796
7.79 -0.343417
7.8 -0.327733
7.81 -0.311852
7.82 -0.295859
7.83 -0.279843
7.84 -0.263899
7.85 -0.248123
7.86 -0.232633
7.87 -0.217561
7.88 -0.20299
7.89 -0.189022
7.9 -0.175755
7.91 -0.163283
7.92 -0.151696
7.93 -0.141163
7.94 -0.1317
7.95 -0.123334
7.96 -0.116105
7.97 -0.110039
7.98 -0.105145
7.99 -0.10145
8 -0.0990016
8.01 -0.0976543
8.02 -0.0973535
8.03 -0.0980318
8.04 -0.0996105
8.05 -0.102001
8.06 -0.105157
8.07 -0.108933
8.08 -0.1132
8.09 -0.117854
8.1 -0.122798
8.11 -0.127937
8.12 -0.133185
8.13 -0.138463
8.14 -0.143697
8.15 -0.148841
8.16 -0.153857
8.17 -0.158722
8.18 -0.163424
8.19 -0.167953
8.2 -0.172325
8.21 -0.176564
8.22 -0.180694
8.23 -0.184739
8.24 -0.188722
8.25 -0.192661
8.26 -0.196565
8.27 -0.200438
8.28 -0.204266
8.29 -0.208024
8.3 -0.211667
8.31 -0.215136
8.32 -0.218337
8.33 -0.221159
8.34 -0.22351
8.35 -0.225268
8.36 -0.2263
8.37 -0.22647
8.38 -0.225635
8.39 -0.223514
8.4 -0.220075
8.41 -0.215202
8.42 -0.208782
8.43 -0.200721
8.44 -0.190941
8.45 -0.179306
8.46 -0.165739
8.47 -0.15037
8.48 -0.133226
8.49 -0.11436
8.5 -0.0938509
8.51 -0.0717974
8.52 -0.0481928
8.53 -0.0233039
8.54 0.00269109
8.55 0.0296324
8.56 0.0573567
8.57 0.0857005
8.58 0.114515
8.59 0.143644
8.6 0.172916
8.61 0.202208
8.62 0.231416
8.63 0.26045
8.64 0.289241
8.65 0.317707
8.66 0.345828
8.67 0.373595
8.68 0.401004
8.69 0.428056
8.7 0.454759
8.71 0.481116
8.72 0.507111
8.73 0.532775
8.74 0.558095
8.75 0.583048
8.76 0.607593
8.77 0.631672
8.78 0.65516
8.79 0.677963
8.8 0.699983
8.81 0.721085
8.82 0.741114
8.83 0.759907
8.84 0.77727
8.85 0.792852
8.86 0.806626
8.87 0.818415
8.88 0.828052
8.89 0.835382
8.9 0.840266
8.91 0.842413
8.92 0.841751
8.93 0.83835
8.94 0.832175
8.95 0.823218
8.96 0.811498
8.97 0.797059
8.98 0.77968
8.99 0.759776
9 0.737467
9.01 0.712891
9.02 0.686198
9.03 0.65755
9.04 0.627027
9.05 0.59481
9.06 0.561181
9.07 0.526307
9.08 0.490347
9.09 0.453458
9.1 0.415787
9.11 0.377416
9.12 0.33855
9.13 0.299319
9.14 0.259836
9.15 0.220214
9.16 0.180561
9.17 0.140994
9.18 0.101646
9.19 0.0626239
9.2 0.0240475
9.21 -0.0139564
9.22 -0.0512538
9.23 -0.0877028
9.24 -0.123043
9.25 -0.157174
9.26 -0.189955
9.27 -0.221219
9.28 -0.250799
9.29 -0.278531
9.3 -0.304185
9.31 -0.327475
9.32 -0.348437
9.33 -0.366949
9.34 -0.382907
9.35 -0.396227
9.36 -0.406848
9.37 -0.414497
9.38 -0.419308
9.39 -0.421389
9.4 -0.420781
9.41 -0.417551
9.42 -0.411786
9.43 -0.403545
9.44 -0.392795
9.45 -0.379907
9.46 -0.365031
9.47 -0.348323
9.48 -0.329941
9.49 -0.310043
9.5 -0.288696
9.51 -0.266112
9.52 -0.24249
9.53 -0.217962
9.54 -0.192651
9.55 -0.166669
9.56 -0.140116
9.57 -0.113052
9.58 -0.0856239
9.59 -0.0579126
9.6 -0.0299984
9.61 -0.00196053
9.62 0.0261202
9.63 0.0541509
9.64 0.0820272
9.65 0.109653
9.66 0.136922
9.67 0.163719
9.68 0.189919
9.69 0.215392
9.7 0.239884
9.71 0.263338
9.72 0.285612
9.73 0.306563
9.74 0.326054
9.75 0.343953
9.76 0.360048
9.77 0.374196
9.78 0.386425
9.79 0.396675
9.8 0.404904
9.81 0.411097
9.82 0.415259
9.83 0.417222
9.84 0.417235
9.85 0.415407
9.86 0.411844
9.87 0.406666
9.88 0.400009
9.89 0.391973
9.9 0.382688
9.91 0.372411
9.92 0.361293
9.93 0.349482
9.94 0.337113
9.95 0.32431
9.96 0.311162
9.97 0.29779
9.98 0.284271
9.99 0.270656
10 0.256977
10.01 0.243251
10.02 0.229477
10.03 0.215638
10.04 0.201715
10.05 0.187678
10.06 0.173496
10.07 0.159138
10.08 0.144577
10.09 0.129773
10.1 0.114727
10.11 0.0994509
10.12 0.0839623
10.13 0.0682925
10.14 0.0524869
10.15 0.0366046
10.16 0.0207267
10.17 0.00494359
10.18 -0.0106535
10.19 -0.0259688
10.2 -0.0409054
10.21 -0.0553683
10.22 -0.0692212
10.23 -0.082387
10.24 -0.0948252
10.25 -0.106484
10.26 -0.117326
10.27 -0.127333
10.28 -0.136499
10.29 -0.144763
10.3 -0.152257
10.31 -0.159037
10.32 -0.165174
10.33 -0.17075
10.34 -0.175858
10.35 -0.180578
10.36 -0.185025
10.37 -0.189317
10.38 -0.193548
10.39 -0.197801
10.4 -0.20215
10.41 -0.206656
10.42 -0.211392
10.43 -0.216367
10.44 -0.221591
10.45 -0.227058
10.46 -0.23275
10.47 -0.238634
10.48 -0.24467
10.49 -0.250801
10.5 -0.256955
10.51 -0.263072
10.52 -0.269088
10.53 -0.274946
10.54 -0.280592
10.55 -0.285951
10.56 -0.291008
10.57 -0.295746
10.58 -0.300154
10.59 -0.304237
10.6 -0.308009
10.61 -0.311486
10.62 -0.3147
10.63 -0.317716
10.64 -0.320586
10.65 -0.323361
10.66 -0.326094
10.67 -0.328834
10.68 -0.331637
10.69 -0.33454
10.7 -0.33757
10.71 -0.340744
10.72 -0.34407
10.73 -0.347543
10.74 -0.351151
10.75 -0.354871
10.76 -0.358654
10.77 -0.362457
10.78 -0.366233
10.79 -0.36993
10.8 -0.373498
10.81 -0.376872
10.82 -0.38001
10.83 -0.382883
10.84 -0.385467
10.85 -0.387745
10.86 -0.389714
10.87 -0.391374
10.88 -0.392725
10.89 -0.393826
10.9 -0.394718
10.91 -0.395449
10.92 -0.396069
10.93 -0.396632
10.94 -0.397195
10.95 -0.397813
10.96 -0.398528
10.97 -0.399372
10.98 -0.400365
10.99 -0.401514
11 -0.402812
11.01 -0.404243
11.02 -0.405748
11.03 -0.407267
11.04 -0.408726
11.05 -0.410041
11.06 -0.411115
11.07 -0.41182
11.08 -0.412031
11.09 -0.411662
11.1 -0.41061
11.11 -0.408778
11.12 -0.406082
11.13 -0.402449
11.14 -0.397709
11.15 -0.391928
11.16 -0.385101
11.17 -0.377237
11.18 -0.368366
11.19 -0.358539
11.2 -0.347787
11.21 -0.336193
11.22 -0.323924
11.23 -0.311093
11.24 -0.297823
11.25 -0.28424
11.26 -0.270469
11.27 -0.256638
11.28 -0.242877
11.29 -0.229287
11.3 -0.215954
11.31 -0.202948
11.32 -0.190322
11.33 -0.178123
11.34 -0.166385
11.35 -0.155063
11.36 -0.144129
11.37 -0.133539
11.38 -0.123237
11.39 -0.113154
11.4 -0.103216
11.41 -0.0933229
11.42 -0.0833847
11.43 -0.0733178
11.44 -0.0630428
11.45 -0.0524867
11.46 -0.0415759
11.47 -0.0302242
11.48 -0.0184266
11.49 -0.0061576
11.5 0.00659548
11.51 0.0198331
11.52 0.0335443
11.53 0.0477406
11.54 0.0623701
11.55 0.077377
11.56 0.0927194
11.57 0.108353
11.58 0.124234
11.59 0.140321
11.6 0.156585
11.61 0.172972
11.62 0.189455
11.63 0.20601
11.64 0.222622
11.65 0.239279
11.66 0.255978
11.67 0.272716
11.68 0.289489
11.69 0.306299
11.7 0.323144
11.71 0.340017
11.72 0.356907
11.73 0.373796
11.74 0.39065
11.75 0.407434
11.76 0.424098
11.77 0.440584
11.78 0.456821
11.79 0.472709
11.8 0.48814
11.81 0.503041
11.82 0.517308
11.83 0.530836
11.84 0.543519
11.85 0.555253
11.86 0.565811
11.87 0.575195
11.88 0.583329
11.89 0.590139
11.9 0.595562
11.91 0.599549
11.92 0.601996
11.93 0.602837
11.94 0.602175
11.95 0.600018
11.96 0.596387
11.97 0.591313
11.98 0.584837
11.99 0.576883
12 0.567615
12.01 0.557123
12.02 0.545469
12.03 0.532716
12.04 0.518927
12.05 0.504136
12.06 0.488362
12.07 0.471745
12.08 0.454338
12.09 0.436194
12.1 0.417365
12.11 0.397903
12.12 0.377813
12.13 0.357191
12.14 0.336112
12.15 0.314642
12.16 0.29285
12.17 0.270816
12.18 0.248623
12.19 0.226374
12.2 0.204189
12.21 0.182178
12.22 0.160463
12.23 0.139167
12.24 0.118419
12.25 0.0984109
12.26 0.0792669
