# xPDFsuite Configuration #
[PDF]
wavelength = 0.1
dataformat = QA
inputfile = BiMsol6_insitu_700 C-00324.xy
backgroundfile = Quartz2mm-dist500-00000.xy
mode = xray
bgscale = 0.0042
composition = Bi2Fe4O9
outputtype = gr
qmaxinst = 24.998449118
qmin = 0.1
qmax = 21.4986662415
rmax = 80.0
rmin = 0.0
rstep = 0.01
rpoly = 0.9

[Misc]
inputdir = C:/Data/Seafile/CPH/Beamtime/Desy Oct 20/In situ data/Processed/BiMsol6/PDF
savedir = C:/Data/Seafile/CPH/Beamtime/Desy Oct 20/In situ data/PDF/BiMsol6
backgroundfilefull = C:/Data/Seafile/CPH/Beamtime/Desy Oct 20/In situ data/Processed/Standard_Empty_Cap/Quartz2mm-dist500-00000.xy

#### start data
#S 1
#L r($\AA$)  G($\AA^{-2}$)
0 0
0.01 0.00702249
0.02 0.0136552
0.03 0.0195645
0.04 0.0244505
0.05 0.028061
0.06 0.0302027
0.07 0.0306637
0.08 0.0293796
0.09 0.0265014
0.1 0.0221524
0.11 0.0165257
0.12 0.00987547
0.13 0.00250645
0.14 -0.00524133
0.15 -0.0129309
0.16 -0.0201945
0.17 -0.0266859
0.18 -0.0320932
0.19 -0.0361537
0.2 -0.0385963
0.21 -0.0392313
0.22 -0.0381539
0.23 -0.0354251
0.24 -0.0311899
0.25 -0.0256717
0.26 -0.0191648
0.27 -0.012
0.28 -0.00467161
0.29 0.00238075
0.3 0.00872915
0.31 0.0139642
0.32 0.0177149
0.33 0.019604
0.34 0.0192591
0.35 0.0167173
0.36 0.0119597
0.37 0.00507671
0.38 -0.00372955
0.39 -0.0141479
0.4 -0.025822
0.41 -0.038109
0.42 -0.0503753
0.43 -0.0619763
0.44 -0.0722417
0.45 -0.0804999
0.46 -0.0860396
0.47 -0.0879457
0.48 -0.0859957
0.49 -0.0798033
0.5 -0.0691081
0.51 -0.0537914
0.52 -0.0338866
0.53 -0.00929329
0.54 0.0194361
0.55 0.0515602
0.56 0.086392
0.57 0.123122
0.58 0.16084
0.59 0.198552
0.6 0.234996
0.61 0.269151
0.62 0.300002
0.63 0.326593
0.64 0.348061
0.65 0.363659
0.66 0.372359
0.67 0.373725
0.68 0.367916
0.69 0.354918
0.7 0.33491
0.71 0.308262
0.72 0.27552
0.73 0.236878
0.74 0.193895
0.75 0.147582
0.76 0.0990106
0.77 0.0492989
0.78 -0.000423323
0.79 -0.0489365
0.8 -0.0950071
0.81 -0.137782
0.82 -0.176445
0.83 -0.210322
0.84 -0.238897
0.85 -0.261827
0.86 -0.278348
0.87 -0.289027
0.88 -0.294175
0.89 -0.294177
0.9 -0.289559
0.91 -0.28096
0.92 -0.269022
0.93 -0.254567
0.94 -0.238677
0.95 -0.222187
0.96 -0.205902
0.97 -0.190572
0.98 -0.176868
0.99 -0.165607
1 -0.157128
1.01 -0.15167
1.02 -0.149395
1.03 -0.150335
1.04 -0.154395
1.05 -0.161433
1.06 -0.171237
1.07 -0.18313
1.08 -0.196628
1.09 -0.211208
1.1 -0.226332
1.11 -0.241465
1.12 -0.25602
1.13 -0.269505
1.14 -0.281559
1.15 -0.29188
1.16 -0.300251
1.17 -0.306547
1.18 -0.310702
1.19 -0.312624
1.2 -0.312687
1.21 -0.311124
1.22 -0.308225
1.23 -0.304321
1.24 -0.29977
1.25 -0.29494
1.26 -0.290242
1.27 -0.286006
1.28 -0.282508
1.29 -0.27997
1.3 -0.278551
1.31 -0.278344
1.32 -0.279489
1.33 -0.281775
1.34 -0.285061
1.35 -0.289151
1.36 -0.293799
1.37 -0.298726
1.38 -0.30361
1.39 -0.308099
1.4 -0.311903
1.41 -0.314757
1.42 -0.316438
1.43 -0.316773
1.44 -0.315649
1.45 -0.312854
1.46 -0.308592
1.47 -0.302984
1.48 -0.296208
1.49 -0.288503
1.5 -0.280157
1.51 -0.271496
1.52 -0.262927
1.53 -0.254824
1.54 -0.247537
1.55 -0.241386
1.56 -0.236655
1.57 -0.233574
1.58 -0.232502
1.59 -0.233373
1.6 -0.236153
1.61 -0.240755
1.62 -0.247015
1.63 -0.254692
1.64 -0.263508
1.65 -0.273077
1.66 -0.2829
1.67 -0.292539
1.68 -0.30155
1.69 -0.309495
1.7 -0.315962
1.71 -0.320385
1.72 -0.322539
1.73 -0.322246
1.74 -0.319358
1.75 -0.313812
1.76 -0.305633
1.77 -0.294874
1.78 -0.281619
1.79 -0.26639
1.8 -0.249548
1.81 -0.231505
1.82 -0.21271
1.83 -0.193636
1.84 -0.174812
1.85 -0.156753
1.86 -0.139875
1.87 -0.124557
1.88 -0.111117
1.89 -0.0998062
1.9 -0.0908288
1.91 -0.0844825
1.92 -0.080509
1.93 -0.0788062
1.94 -0.0791955
1.95 -0.0814303
1.96 -0.0852063
1.97 -0.0902282
1.98 -0.0960359
1.99 -0.102177
2 -0.10826
2.01 -0.113915
2.02 -0.118806
2.03 -0.122637
2.04 -0.125016
2.05 -0.125926
2.06 -0.125293
2.07 -0.123122
2.08 -0.119491
2.09 -0.114549
2.1 -0.108465
2.11 -0.101554
2.12 -0.0942057
2.13 -0.0867722
2.14 -0.0796216
2.15 -0.0731218
2.16 -0.0676271
2.17 -0.0636425
2.18 -0.0613384
2.19 -0.0609256
2.2 -0.0625639
2.21 -0.066346
2.22 -0.0722945
2.23 -0.0804522
2.24 -0.0907274
2.25 -0.102772
2.26 -0.116333
2.27 -0.131114
2.28 -0.146782
2.29 -0.162984
2.3 -0.179334
2.31 -0.195422
2.32 -0.210903
2.33 -0.225471
2.34 -0.238854
2.35 -0.250833
2.36 -0.261183
2.37 -0.269709
2.38 -0.276513
2.39 -0.281626
2.4 -0.285134
2.41 -0.287176
2.42 -0.287934
2.43 -0.287558
2.44 -0.286389
2.45 -0.284723
2.46 -0.282831
2.47 -0.280976
2.48 -0.279403
2.49 -0.278352
2.5 -0.27808
2.51 -0.278678
2.52 -0.280243
2.53 -0.282827
2.54 -0.286437
2.55 -0.291038
2.56 -0.296614
2.57 -0.303003
2.58 -0.310018
2.59 -0.317491
2.6 -0.32524
2.61 -0.333077
2.62 -0.340812
2.63 -0.34822
2.64 -0.355157
2.65 -0.361484
2.66 -0.367089
2.67 -0.371885
2.68 -0.375813
2.69 -0.378785
2.7 -0.380811
2.71 -0.381963
2.72 -0.382284
2.73 -0.38183
2.74 -0.380668
2.75 -0.378867
2.76 -0.376435
2.77 -0.373503
2.78 -0.370119
2.79 -0.366313
2.8 -0.362099
2.81 -0.357473
2.82 -0.352386
2.83 -0.346782
2.84 -0.34063
2.85 -0.333855
2.86 -0.32638
2.87 -0.31812
2.88 -0.308995
2.89 -0.298824
2.9 -0.287633
2.91 -0.275393
2.92 -0.262085
2.93 -0.247717
2.94 -0.232321
2.95 -0.215921
2.96 -0.198595
2.97 -0.180532
2.98 -0.161876
2.99 -0.142787
3 -0.123439
3.01 -0.104014
3.02 -0.0847247
3.03 -0.0657614
3.04 -0.047288
3.05 -0.0294532
3.06 -0.0123834
3.07 0.00382209
3.08 0.0190628
3.09 0.0332499
3.1 0.0464699
3.11 0.0587617
3.12 0.0701956
3.13 0.0808699
3.14 0.0909069
3.15 0.10042
3.16 0.109613
3.17 0.118663
3.18 0.127735
3.19 0.136983
3.2 0.14655
3.21 0.156572
3.22 0.167199
3.23 0.178452
3.24 0.190365
3.25 0.202941
3.26 0.216149
3.27 0.229929
3.28 0.244221
3.29 0.258875
3.3 0.273732
3.31 0.288638
3.32 0.30343
3.33 0.317945
3.34 0.332015
3.35 0.345411
3.36 0.358051
3.37 0.369821
3.38 0.380631
3.39 0.390416
3.4 0.399142
3.41 0.406734
3.42 0.413228
3.43 0.418735
3.44 0.423331
3.45 0.42711
3.46 0.430182
3.47 0.432668
3.48 0.434654
3.49 0.436332
3.5 0.437821
3.51 0.439234
3.52 0.440669
3.53 0.442206
3.54 0.443921
3.55 0.445863
3.56 0.44804
3.57 0.450448
3.58 0.453069
3.59 0.455866
3.6 0.458789
3.61 0.461779
3.62 0.464756
3.63 0.467649
3.64 0.470389
3.65 0.472913
3.66 0.475164
3.67 0.477081
3.68 0.478614
3.69 0.479768
3.7 0.480538
3.71 0.480932
3.72 0.480968
3.73 0.480673
3.74 0.480061
3.75 0.479198
3.76 0.478132
3.77 0.476904
3.78 0.47555
3.79 0.474096
3.8 0.47256
3.81 0.470942
3.82 0.469238
3.83 0.467423
3.84 0.465458
3.85 0.463291
3.86 0.46086
3.87 0.458057
3.88 0.454805
3.89 0.451031
3.9 0.44665
3.91 0.441578
3.92 0.435737
3.93 0.429042
3.94 0.421359
3.95 0.41273
3.96 0.403132
3.97 0.392557
3.98 0.381013
3.99 0.368525
4 0.355072
4.01 0.340743
4.02 0.325646
4.03 0.309858
4.04 0.293462
4.05 0.276543
4.06 0.259184
4.07 0.241443
4.08 0.223441
4.09 0.205247
4.1 0.186922
4.11 0.168514
4.12 0.150065
4.13 0.131607
4.14 0.113161
4.15 0.0947431
4.16 0.0763594
4.17 0.0580155
4.18 0.0397165
4.19 0.0214695
4.2 0.00329614
4.21 -0.0147881
4.22 -0.0327527
4.23 -0.0505562
4.24 -0.0681458
4.25 -0.0854572
4.26 -0.102393
4.27 -0.118846
4.28 -0.134747
4.29 -0.149995
4.3 -0.164489
4.31 -0.178129
4.32 -0.190821
4.33 -0.202365
4.34 -0.212774
4.35 -0.222011
4.36 -0.230042
4.37 -0.236856
4.38 -0.242464
4.39 -0.24686
4.4 -0.25007
4.41 -0.252274
4.42 -0.25358
4.43 -0.254116
4.44 -0.254021
4.45 -0.253447
4.46 -0.252535
4.47 -0.251482
4.48 -0.250446
4.49 -0.249568
4.5 -0.248973
4.51 -0.248769
4.52 -0.249055
4.53 -0.249928
4.54 -0.251372
4.55 -0.253385
4.56 -0.255939
4.57 -0.258981
4.58 -0.262435
4.59 -0.266221
4.6 -0.270198
4.61 -0.27423
4.62 -0.278187
4.63 -0.281939
4.64 -0.285365
4.65 -0.288341
4.66 -0.290712
4.67 -0.292452
4.68 -0.29351
4.69 -0.293858
4.7 -0.293496
4.71 -0.292449
4.72 -0.29073
4.73 -0.288438
4.74 -0.285704
4.75 -0.282642
4.76 -0.279379
4.77 -0.276049
4.78 -0.27279
4.79 -0.269772
4.8 -0.267107
4.81 -0.264905
4.82 -0.263259
4.83 -0.262241
4.84 -0.261904
4.85 -0.262314
4.86 -0.263472
4.87 -0.265309
4.88 -0.267775
4.89 -0.270801
4.9 -0.274302
4.91 -0.278179
4.92 -0.282342
4.93 -0.28664
4.94 -0.290957
4.95 -0.295189
4.96 -0.299235
4.97 -0.303009
4.98 -0.30642
4.99 -0.309397
5 -0.311932
5.01 -0.314008
5.02 -0.315628
5.03 -0.316807
5.04 -0.317576
5.05 -0.317943
5.06 -0.317992
5.07 -0.317781
5.08 -0.317359
5.09 -0.316771
5.1 -0.316053
5.11 -0.315227
5.12 -0.314298
5.13 -0.313265
5.14 -0.312101
5.15 -0.31076
5.16 -0.309181
5.17 -0.307286
5.18 -0.304939
5.19 -0.302051
5.2 -0.298523
5.21 -0.294243
5.22 -0.289102
5.23 -0.282994
5.24 -0.275796
5.25 -0.267342
5.26 -0.25767
5.27 -0.246742
5.28 -0.23454
5.29 -0.221068
5.3 -0.206354
5.31 -0.190364
5.32 -0.173226
5.33 -0.155083
5.34 -0.136049
5.35 -0.116247
5.36 -0.0958112
5.37 -0.0748755
5.38 -0.0535659
5.39 -0.032068
5.4 -0.0105127
5.41 0.0109782
5.42 0.0322943
5.43 0.0533378
5.44 0.0739961
5.45 0.0941964
5.46 0.113904
5.47 0.133077
5.48 0.151682
5.49 0.169695
5.5 0.187093
5.51 0.203783
5.52 0.219815
5.53 0.235161
5.54 0.249788
5.55 0.263651
5.56 0.276696
5.57 0.288804
5.58 0.299877
5.59 0.309881
5.6 0.318716
5.61 0.326278
5.62 0.332457
5.63 0.337147
5.64 0.340063
5.65 0.341261
5.66 0.340679
5.67 0.33826
5.68 0.333968
5.69 0.327791
5.7 0.319665
5.71 0.309595
5.72 0.297801
5.73 0.284396
5.74 0.269522
5.75 0.253345
5.76 0.236055
5.77 0.217791
5.78 0.198872
5.79 0.179542
5.8 0.160033
5.81 0.140567
5.82 0.121359
5.83 0.102626
5.84 0.0845962
5.85 0.0673729
5.86 0.0510697
5.87 0.0357699
5.88 0.0215249
5.89 0.00835501
5.9 -0.00366114
5.91 -0.0146285
5.92 -0.0246471
5.93 -0.0338022
5.94 -0.0421922
5.95 -0.0499233
5.96 -0.0570939
5.97 -0.0637885
5.98 -0.070149
5.99 -0.0762516
6 -0.0821526
6.01 -0.0878856
6.02 -0.0934591
6.03 -0.0988386
6.04 -0.103976
6.05 -0.108802
6.06 -0.11322
6.07 -0.117116
6.08 -0.120358
6.09 -0.122801
6.1 -0.124197
6.11 -0.124498
6.12 -0.123582
6.13 -0.121342
6.14 -0.117692
6.15 -0.112577
6.16 -0.105876
6.17 -0.0976175
6.18 -0.0879353
6.19 -0.0769174
6.2 -0.0646867
6.21 -0.0513981
6.22 -0.0372347
6.23 -0.0223523
6.24 -0.0070778
6.25 0.00834917
6.26 0.0236857
6.27 0.0386925
6.28 0.0531411
6.29 0.0667687
6.3 0.079352
6.31 0.0907923
6.32 0.100974
6.33 0.109818
6.34 0.117287
6.35 0.123381
6.36 0.128008
6.37 0.131387
6.38 0.133656
6.39 0.134965
6.4 0.135488
6.41 0.135418
6.42 0.134952
6.43 0.134323
6.44 0.133765
6.45 0.133472
6.46 0.133627
6.47 0.134388
6.48 0.135892
6.49 0.138333
6.5 0.14173
6.51 0.146099
6.52 0.151445
6.53 0.157742
6.54 0.164937
6.55 0.172972
6.56 0.181773
6.57 0.191149
6.58 0.200971
6.59 0.211101
6.6 0.221403
6.61 0.231744
6.62 0.241983
6.63 0.251999
6.64 0.261703
6.65 0.271018
6.66 0.279889
6.67 0.288278
6.68 0.296156
6.69 0.303484
6.7 0.310329
6.71 0.31672
6.72 0.322695
6.73 0.328297
6.74 0.333571
6.75 0.338543
6.76 0.343261
6.77 0.347764
6.78 0.352067
6.79 0.35617
6.8 0.360059
6.81 0.363703
6.82 0.367018
6.83 0.369969
6.84 0.372477
6.85 0.374456
6.86 0.375809
6.87 0.376436
6.88 0.376174
6.89 0.374913
6.9 0.372603
6.91 0.369159
6.92 0.364505
6.93 0.35858
6.94 0.351338
6.95 0.342596
6.96 0.332498
6.97 0.321061
6.98 0.308318
6.99 0.294317
7 0.279124
7.01 0.262766
7.02 0.245331
7.03 0.226997
7.04 0.207869
7.05 0.18806
7.06 0.167683
7.07 0.146847
7.08 0.125637
7.09 0.104195
7.1 0.0826207
7.11 0.0610007
7.12 0.0394139
7.13 0.0179308
7.14 -0.00337686
7.15 -0.0244379
7.16 -0.0452185
7.17 -0.0656761
7.18 -0.0857719
7.19 -0.10547
7.2 -0.124735
7.21 -0.143487
7.22 -0.161719
7.23 -0.179405
7.24 -0.196509
7.25 -0.212992
7.26 -0.228812
7.27 -0.243908
7.28 -0.258187
7.29 -0.271673
7.3 -0.284329
7.31 -0.29612
7.32 -0.307018
7.33 -0.316999
7.34 -0.325973
7.35 -0.333973
7.36 -0.341037
7.37 -0.347178
7.38 -0.352419
7.39 -0.356791
7.4 -0.36032
7.41 -0.362997
7.42 -0.36496
7.43 -0.366269
7.44 -0.366989
7.45 -0.367184
7.46 -0.36692
7.47 -0.366237
7.48 -0.365211
7.49 -0.363913
7.5 -0.362389
7.51 -0.360677
7.52 -0.358808
7.53 -0.356801
7.54 -0.354657
7.55 -0.352392
7.56 -0.349999
7.57 -0.347466
7.58 -0.344774
7.59 -0.341901
7.6 -0.338806
7.61 -0.335458
7.62 -0.331843
7.63 -0.327935
7.64 -0.323714
7.65 -0.319161
7.66 -0.314265
7.67 -0.30898
7.68 -0.303345
7.69 -0.29737
7.7 -0.291068
7.71 -0.284461
7.72 -0.277573
7.73 -0.270424
7.74 -0.263048
7.75 -0.255499
7.76 -0.247814
7.77 -0.24003
7.78 -0.232185
7.79 -0.224316
7.8 -0.21646
7.81 -0.208651
7.82 -0.200916
7.83 -0.193282
7.84 -0.185769
7.85 -0.178399
7.86 -0.171196
7.87 -0.164186
7.88 -0.157373
7.89 -0.15077
7.9 -0.144394
7.91 -0.138262
7.92 -0.132391
7.93 -0.126828
7.94 -0.12158
7.95 -0.116662
7.96 -0.112098
7.97 -0.107914
7.98 -0.104133
7.99 -0.100794
8 -0.0979503
8.01 -0.0955834
8.02 -0.0937095
8.03 -0.0923405
8.04 -0.0914834
8.05 -0.0911389
8.06 -0.0913408
8.07 -0.0920537
8.08 -0.0932375
8.09 -0.0948649
8.1 -0.0969024
8.11 -0.0993109
8.12 -0.102051
8.13 -0.105092
8.14 -0.108352
8.15 -0.111778
8.16 -0.115319
8.17 -0.118922
8.18 -0.122541
8.19 -0.126123
8.2 -0.129624
8.21 -0.133009
8.22 -0.136247
8.23 -0.139312
8.24 -0.142185
8.25 -0.144846
8.26 -0.147255
8.27 -0.149428
8.28 -0.151354
8.29 -0.153023
8.3 -0.154426
8.31 -0.155548
8.32 -0.156355
8.33 -0.15682
8.34 -0.156934
8.35 -0.156663
8.36 -0.155968
8.37 -0.154805
8.38 -0.153123
8.39 -0.1508
8.4 -0.147831
8.41 -0.144162
8.42 -0.139734
8.43 -0.134492
8.44 -0.128384
8.45 -0.121321
8.46 -0.113236
8.47 -0.104168
8.48 -0.0941043
8.49 -0.0830418
8.5 -0.0709917
8.51 -0.057978
8.52 -0.0439522
8.53 -0.0290461
8.54 -0.0133424
8.55 0.00308341
8.56 0.0201472
8.57 0.0377581
8.58 0.0558326
8.59 0.0742764
8.6 0.092956
8.61 0.111777
8.62 0.130649
8.63 0.149488
8.64 0.168219
8.65 0.186756
8.66 0.205047
8.67 0.223053
8.68 0.240741
8.69 0.258085
8.7 0.275068
8.71 0.291672
8.72 0.307862
8.73 0.323671
8.74 0.339096
8.75 0.354132
8.76 0.368769
8.77 0.38299
8.78 0.396737
8.79 0.409986
8.8 0.422709
8.81 0.43485
8.82 0.446341
8.83 0.457107
8.84 0.467052
8.85 0.475986
8.86 0.483899
8.87 0.49069
8.88 0.49626
8.89 0.500511
8.9 0.503354
8.91 0.504606
8.92 0.504208
8.93 0.502184
8.94 0.498501
8.95 0.493138
8.96 0.486096
8.97 0.477393
8.98 0.466884
8.99 0.454824
9 0.441287
9.01 0.426366
9.02 0.410164
9.03 0.392793
9.04 0.374325
9.05 0.354895
9.06 0.334695
9.07 0.31385
9.08 0.292479
9.09 0.270696
9.1 0.248607
9.11 0.226296
9.12 0.203877
9.13 0.181425
9.14 0.159002
9.15 0.136665
9.16 0.114458
9.17 0.0924325
9.18 0.0706346
9.19 0.0490848
9.2 0.0278175
9.21 0.00686942
9.22 -0.0137178
9.23 -0.0338965
9.24 -0.0535602
9.25 -0.0726702
9.26 -0.0911606
9.27 -0.108946
9.28 -0.125933
9.29 -0.142021
9.3 -0.157069
9.31 -0.17089
9.32 -0.183464
9.33 -0.194681
9.34 -0.204439
9.35 -0.212646
9.36 -0.219219
9.37 -0.223941
9.38 -0.226846
9.39 -0.227964
9.4 -0.227285
9.41 -0.224826
9.42 -0.220622
9.43 -0.214698
9.44 -0.20702
9.45 -0.197853
9.46 -0.187312
9.47 -0.175529
9.48 -0.162644
9.49 -0.148803
9.5 -0.134113
9.51 -0.118767
9.52 -0.102949
9.53 -0.0867981
9.54 -0.0704449
9.55 -0.0540086
9.56 -0.037596
9.57 -0.0213185
9.58 -0.00524331
9.59 0.0105729
9.6 0.0260876
9.61 0.041271
9.62 0.0561044
9.63 0.0705555
9.64 0.0846243
9.65 0.098332
9.66 0.111681
9.67 0.124671
9.68 0.137298
9.69 0.149551
9.7 0.161365
9.71 0.172752
9.72 0.183671
9.73 0.194075
9.74 0.203903
9.75 0.213088
9.76 0.221517
9.77 0.229089
9.78 0.235771
9.79 0.241486
9.8 0.246161
9.81 0.249729
9.82 0.252136
9.83 0.253208
9.84 0.25303
9.85 0.25161
9.86 0.248959
9.87 0.245108
9.88 0.240108
9.89 0.233985
9.9 0.226801
9.91 0.218742
9.92 0.209923
9.93 0.200468
9.94 0.190507
9.95 0.180172
9.96 0.169584
9.97 0.1589
9.98 0.148242
9.99 0.137717
10 0.127414
10.01 0.117409
10.02 0.107772
10.03 0.0985691
10.04 0.0897848
10.05 0.0814179
10.06 0.0734508
10.07 0.0658513
10.08 0.0585745
10.09 0.0515825
10.1 0.0447919
10.11 0.0381273
10.12 0.0315227
10.13 0.0249148
10.14 0.0182466
10.15 0.0114665
10.16 0.00452127
10.17 -0.0025996
10.18 -0.00990454
10.19 -0.0173879
10.2 -0.0250299
10.21 -0.0327979
10.22 -0.0406483
10.23 -0.0485145
10.24 -0.0563275
10.25 -0.064017
10.26 -0.0715099
10.27 -0.0787337
10.28 -0.0856162
10.29 -0.0920454
10.3 -0.0980073
10.31 -0.10346
10.32 -0.108374
10.33 -0.112733
10.34 -0.116535
10.35 -0.119762
10.36 -0.122447
10.37 -0.124666
10.38 -0.126471
10.39 -0.127926
10.4 -0.129102
10.41 -0.130074
10.42 -0.130915
10.43 -0.131723
10.44 -0.132572
10.45 -0.133532
10.46 -0.134661
10.47 -0.136013
10.48 -0.13764
10.49 -0.139582
10.5 -0.141832
10.51 -0.144392
10.52 -0.147251
10.53 -0.15039
10.54 -0.153776
10.55 -0.157389
10.56 -0.161161
10.57 -0.165038
10.58 -0.16897
10.59 -0.172905
10.6 -0.176795
10.61 -0.180588
10.62 -0.184236
10.63 -0.187715
10.64 -0.190999
10.65 -0.194072
10.66 -0.196927
10.67 -0.199561
10.68 -0.201962
10.69 -0.204159
10.7 -0.206177
10.71 -0.208036
10.72 -0.209761
10.73 -0.211378
10.74 -0.21291
10.75 -0.214379
10.76 -0.215811
10.77 -0.217223
10.78 -0.218625
10.79 -0.220024
10.8 -0.221423
10.81 -0.222818
10.82 -0.224201
10.83 -0.225562
10.84 -0.226888
10.85 -0.228165
10.86 -0.229378
10.87 -0.230513
10.88 -0.231549
10.89 -0.232485
10.9 -0.233317
10.91 -0.234044
10.92 -0.23467
10.93 -0.235202
10.94 -0.235647
10.95 -0.236024
10.96 -0.236354
10.97 -0.236656
10.98 -0.236949
10.99 -0.237249
11 -0.237571
11.01 -0.23793
11.02 -0.238325
11.03 -0.238753
11.04 -0.239202
11.05 -0.239654
11.06 -0.24008
11.07 -0.240438
11.08 -0.240676
11.09 -0.240746
11.1 -0.240589
11.11 -0.240143
11.12 -0.239344
11.13 -0.238127
11.14 -0.236372
11.15 -0.234063
11.16 -0.231155
11.17 -0.227606
11.18 -0.223386
11.19 -0.218476
11.2 -0.212841
11.21 -0.206477
11.22 -0.19946
11.23 -0.191833
11.24 -0.183654
11.25 -0.174991
11.26 -0.165924
11.27 -0.156521
11.28 -0.146915
11.29 -0.137214
11.3 -0.127517
11.31 -0.117926
11.32 -0.108534
11.33 -0.0994416
11.34 -0.0907507
11.35 -0.0824969
11.36 -0.0747252
11.37 -0.0674647
11.38 -0.0607269
11.39 -0.0545062
11.4 -0.0488197
11.41 -0.0435906
11.42 -0.0387458
11.43 -0.0342132
11.44 -0.0299098
11.45 -0.0257442
11.46 -0.0216176
11.47 -0.0174127
11.48 -0.0130282
11.49 -0.00836925
11.5 -0.00334737
11.51 0.00211645
11.52 0.00808973
11.53 0.0146733
11.54 0.0218881
11.55 0.0297305
11.56 0.0382033
11.57 0.0472934
11.58 0.056972
11.59 0.0672028
11.6 0.0779659
11.61 0.0891363
11.62 0.100636
11.63 0.112382
11.64 0.124287
11.65 0.136264
11.66 0.14822
11.67 0.16006
11.68 0.171712
11.69 0.183109
11.7 0.194192
11.71 0.204915
11.72 0.215239
11.73 0.225088
11.74 0.234498
11.75 0.243463
11.76 0.25199
11.77 0.260091
11.78 0.267784
11.79 0.275069
11.8 0.281973
11.81 0.288542
11.82 0.294796
11.83 0.300753
11.84 0.306423
11.85 0.311813
11.86 0.316886
11.87 0.321658
11.88 0.326109
11.89 0.330209
11.9 0.33392
11.91 0.337198
11.92 0.339969
11.93 0.342152
11.94 0.343726
11.95 0.344631
11.96 0.34481
11.97 0.344208
11.98 0.342774
11.99 0.340378
12 0.337047
12.01 0.332777
12.02 0.327554
12.03 0.321378
12.04 0.314259
12.05 0.306191
12.06 0.297169
12.07 0.287319
12.08 0.276701
12.09 0.265385
12.1 0.253446
12.11 0.24097
12.12 0.228015
12.13 0.214712
12.14 0.201169
12.15 0.187482
12.16 0.173746
12.17 0.160052
12.18 0.146494
12.19 0.133179
12.2 0.120167
