# xPDFsuite Configuration #
[PDF]
wavelength = 0.1
dataformat = QA
inputfile = BiMsol6_insitu_700 C-00138.xy
backgroundfile = Quartz2mm-dist500-00000.xy
mode = xray
bgscale = 0.0042
composition = Bi2Fe4O9
outputtype = gr
qmaxinst = 24.998449118
qmin = 0.1
qmax = 21.4986662415
rmax = 80.0
rmin = 0.0
rstep = 0.01
rpoly = 0.9

[Misc]
inputdir = C:/Data/Seafile/CPH/Beamtime/Desy Oct 20/In situ data/Processed/BiMsol6/PDF
savedir = C:/Data/Seafile/CPH/Beamtime/Desy Oct 20/In situ data/PDF/BiMsol6
backgroundfilefull = C:/Data/Seafile/CPH/Beamtime/Desy Oct 20/In situ data/Processed/Standard_Empty_Cap/Quartz2mm-dist500-00000.xy

#### start data
#S 1
#L r($\AA$)  G($\AA^{-2}$)
0 0
0.01 0.00654908
0.02 0.0127318
0.03 0.0182344
0.04 0.0227756
0.05 0.0261189
0.06 0.028084
0.07 0.0284733
0.08 0.027229
0.09 0.0244954
0.1 0.020391
0.11 0.0151002
0.12 0.00886483
0.13 0.00197386
0.14 -0.00524855
0.15 -0.0123924
0.16 -0.019112
0.17 -0.0250829
0.18 -0.0300137
0.19 -0.0336609
0.2 -0.0357737
0.21 -0.0361802
0.22 -0.0349775
0.23 -0.0322304
0.24 -0.0280829
0.25 -0.022753
0.26 -0.0165246
0.27 -0.00971986
0.28 -0.00280639
0.29 0.00379977
0.3 0.00969477
0.31 0.0144944
0.32 0.0178528
0.33 0.01942
0.34 0.0188534
0.35 0.0162022
0.36 0.0114615
0.37 0.0047307
0.38 -0.00378455
0.39 -0.0137757
0.4 -0.0248857
0.41 -0.0364963
0.42 -0.0480006
0.43 -0.0587821
0.44 -0.0682029
0.45 -0.0756278
0.46 -0.0803859
0.47 -0.0816147
0.48 -0.0791257
0.49 -0.0725709
0.5 -0.0617247
0.51 -0.0464987
0.52 -0.0269512
0.53 -0.00302115
0.54 0.0247367
0.55 0.0555942
0.56 0.0888733
0.57 0.123782
0.58 0.159438
0.59 0.194879
0.6 0.228875
0.61 0.260475
0.62 0.288719
0.63 0.312708
0.64 0.331638
0.65 0.34482
0.66 0.351296
0.67 0.35069
0.68 0.343195
0.69 0.328838
0.7 0.307827
0.71 0.280554
0.72 0.247577
0.73 0.209133
0.74 0.16673
0.75 0.121353
0.76 0.0740458
0.77 0.0258871
0.78 -0.0220381
0.79 -0.0685538
0.8 -0.112487
0.81 -0.153053
0.82 -0.189492
0.83 -0.221182
0.84 -0.24766
0.85 -0.268627
0.86 -0.283375
0.87 -0.292492
0.88 -0.296301
0.89 -0.2952
0.9 -0.289711
0.91 -0.280468
0.92 -0.268099
0.93 -0.253405
0.94 -0.237414
0.95 -0.220923
0.96 -0.204696
0.97 -0.189435
0.98 -0.175768
0.99 -0.164457
1 -0.155803
1.01 -0.150014
1.02 -0.147225
1.03 -0.147448
1.04 -0.150576
1.05 -0.156463
1.06 -0.164889
1.07 -0.175215
1.08 -0.186984
1.09 -0.199704
1.1 -0.212877
1.11 -0.226009
1.12 -0.238563
1.13 -0.2501
1.14 -0.260305
1.15 -0.268917
1.16 -0.27576
1.17 -0.28074
1.18 -0.283822
1.19 -0.284954
1.2 -0.284492
1.21 -0.282666
1.22 -0.279755
1.23 -0.276071
1.24 -0.271941
1.25 -0.267711
1.26 -0.263739
1.27 -0.260301
1.28 -0.257628
1.29 -0.255892
1.3 -0.255206
1.31 -0.255621
1.32 -0.257215
1.33 -0.259761
1.34 -0.263096
1.35 -0.267007
1.36 -0.271243
1.37 -0.275527
1.38 -0.279537
1.39 -0.282945
1.4 -0.285502
1.41 -0.286981
1.42 -0.287195
1.43 -0.286015
1.44 -0.283373
1.45 -0.279112
1.46 -0.273475
1.47 -0.26662
1.48 -0.258758
1.49 -0.250154
1.5 -0.241113
1.51 -0.231982
1.52 -0.223171
1.53 -0.215031
1.54 -0.207893
1.55 -0.202054
1.56 -0.197766
1.57 -0.195221
1.58 -0.194742
1.59 -0.196211
1.6 -0.19955
1.61 -0.204634
1.62 -0.211261
1.63 -0.219159
1.64 -0.228018
1.65 -0.237423
1.66 -0.24688
1.67 -0.255953
1.68 -0.264204
1.69 -0.271213
1.7 -0.27659
1.71 -0.279791
1.72 -0.280636
1.73 -0.278991
1.74 -0.274744
1.75 -0.267873
1.76 -0.258437
1.77 -0.246527
1.78 -0.23226
1.79 -0.216168
1.8 -0.19862
1.81 -0.180025
1.82 -0.160823
1.83 -0.141466
1.84 -0.122459
1.85 -0.104268
1.86 -0.0872588
1.87 -0.0717589
1.88 -0.0580315
1.89 -0.0462689
1.9 -0.036617
1.91 -0.0292905
1.92 -0.0240089
1.93 -0.0206327
1.94 -0.0189557
1.95 -0.0187153
1.96 -0.0196042
1.97 -0.021312
1.98 -0.0234167
1.99 -0.0255287
2 -0.0273132
2.01 -0.0284682
2.02 -0.0287367
2.03 -0.0279137
2.04 -0.0257212
2.05 -0.0222422
2.06 -0.0175063
2.07 -0.0116166
2.08 -0.00474536
2.09 0.00287151
2.1 0.0109499
2.11 0.0191001
2.12 0.0269284
2.13 0.034054
2.14 0.0400995
2.15 0.0447051
2.16 0.0475431
2.17 0.048081
2.18 0.0462918
2.19 0.0420506
2.2 0.0352906
2.21 0.0260225
2.22 0.0143348
2.23 0.000300243
2.24 -0.0158548
2.25 -0.0336578
2.26 -0.0527455
2.27 -0.0727174
2.28 -0.0931486
2.29 -0.113604
2.3 -0.133571
2.31 -0.152629
2.32 -0.170417
2.33 -0.186614
2.34 -0.200954
2.35 -0.213234
2.36 -0.223247
2.37 -0.230825
2.38 -0.236183
2.39 -0.239424
2.4 -0.240711
2.41 -0.240262
2.42 -0.238344
2.43 -0.235184
2.44 -0.231216
2.45 -0.226809
2.46 -0.222294
2.47 -0.217985
2.48 -0.214169
2.49 -0.211119
2.5 -0.20913
2.51 -0.208268
2.52 -0.208621
2.53 -0.21022
2.54 -0.213041
2.55 -0.217012
2.56 -0.222077
2.57 -0.228013
2.58 -0.234579
2.59 -0.241557
2.6 -0.248718
2.61 -0.25583
2.62 -0.262664
2.63 -0.268947
2.64 -0.274538
2.65 -0.279293
2.66 -0.283105
2.67 -0.285907
2.68 -0.28767
2.69 -0.288341
2.7 -0.287994
2.71 -0.286769
2.72 -0.284783
2.73 -0.28217
2.74 -0.279078
2.75 -0.275661
2.76 -0.272069
2.77 -0.268477
2.78 -0.265011
2.79 -0.261774
2.8 -0.258845
2.81 -0.256276
2.82 -0.254106
2.83 -0.252325
2.84 -0.250863
2.85 -0.249652
2.86 -0.2486
2.87 -0.247601
2.88 -0.246536
2.89 -0.245249
2.9 -0.243626
2.91 -0.241555
2.92 -0.238937
2.93 -0.235693
2.94 -0.231763
2.95 -0.227082
2.96 -0.221621
2.97 -0.215459
2.98 -0.208648
2.99 -0.201259
3 -0.193385
3.01 -0.185135
3.02 -0.176614
3.03 -0.167977
3.04 -0.159354
3.05 -0.150857
3.06 -0.142588
3.07 -0.134631
3.08 -0.127065
3.09 -0.119952
3.1 -0.113266
3.11 -0.106986
3.12 -0.101066
3.13 -0.0954349
3.14 -0.09
3.15 -0.0846466
3.16 -0.0792278
3.17 -0.0736064
3.18 -0.0676451
3.19 -0.06121
3.2 -0.054176
3.21 -0.0464143
3.22 -0.0377608
3.23 -0.0282198
3.24 -0.0177502
3.25 -0.00633732
3.26 0.00600693
3.27 0.0192443
3.28 0.0333665
3.29 0.0482479
3.3 0.0637444
3.31 0.079734
3.32 0.0960855
3.33 0.112664
3.34 0.129333
3.35 0.145947
3.36 0.162381
3.37 0.178534
3.38 0.194323
3.39 0.209683
3.4 0.224571
3.41 0.238933
3.42 0.252777
3.43 0.266152
3.44 0.279097
3.45 0.291664
3.46 0.303913
3.47 0.315912
3.48 0.327712
3.49 0.339402
3.5 0.351037
3.51 0.362656
3.52 0.374284
3.53 0.385929
3.54 0.397576
3.55 0.409185
3.56 0.420698
3.57 0.432036
3.58 0.443105
3.59 0.453797
3.6 0.463991
3.61 0.47348
3.62 0.482176
3.63 0.489957
3.64 0.496701
3.65 0.502293
3.66 0.506634
3.67 0.509585
3.68 0.511024
3.69 0.511021
3.7 0.509561
3.71 0.506655
3.72 0.502336
3.73 0.496657
3.74 0.489582
3.75 0.481305
3.76 0.471964
3.77 0.461679
3.78 0.450575
3.79 0.438782
3.8 0.426417
3.81 0.4136
3.82 0.400495
3.83 0.387214
3.84 0.373856
3.85 0.360509
3.86 0.34725
3.87 0.334157
3.88 0.321279
3.89 0.308643
3.9 0.296276
3.91 0.284192
3.92 0.272398
3.93 0.260899
3.94 0.249716
3.95 0.23881
3.96 0.228174
3.97 0.217798
3.98 0.207672
3.99 0.197788
4 0.188157
4.01 0.178765
4.02 0.169596
4.03 0.160648
4.04 0.151914
4.05 0.143388
4.06 0.135066
4.07 0.126954
4.08 0.119017
4.09 0.111238
4.1 0.103598
4.11 0.0960725
4.12 0.0886373
4.13 0.0812669
4.14 0.0739289
4.15 0.0665932
4.16 0.0592349
4.17 0.0518331
4.18 0.0443716
4.19 0.0368406
4.2 0.0292304
4.21 0.0215572
4.22 0.0138389
4.23 0.00610236
4.24 -0.0016167
4.25 -0.00927419
4.26 -0.0168102
4.27 -0.0241552
4.28 -0.0312556
4.29 -0.0380481
4.3 -0.0444706
4.31 -0.0504644
4.32 -0.0559767
4.33 -0.0609056
4.34 -0.0652613
4.35 -0.0690331
4.36 -0.0722165
4.37 -0.0748218
4.38 -0.0768741
4.39 -0.0783962
4.4 -0.0794329
4.41 -0.0800941
4.42 -0.0804596
4.43 -0.0806172
4.44 -0.0806594
4.45 -0.0806804
4.46 -0.0807879
4.47 -0.0810748
4.48 -0.0816167
4.49 -0.08248
4.5 -0.0837169
4.51 -0.0853642
4.52 -0.0874527
4.53 -0.0900087
4.54 -0.0929709
4.55 -0.0962998
4.56 -0.0999396
4.57 -0.10382
4.58 -0.10786
4.59 -0.111966
4.6 -0.116026
4.61 -0.119938
4.62 -0.123607
4.63 -0.126943
4.64 -0.129863
4.65 -0.132292
4.66 -0.134122
4.67 -0.13537
4.68 -0.136022
4.69 -0.136079
4.7 -0.135562
4.71 -0.134511
4.72 -0.132952
4.73 -0.130974
4.74 -0.128684
4.75 -0.126173
4.76 -0.123534
4.77 -0.120864
4.78 -0.118258
4.79 -0.115832
4.8 -0.113655
4.81 -0.111794
4.82 -0.110305
4.83 -0.109227
4.84 -0.108587
4.85 -0.10842
4.86 -0.10872
4.87 -0.109439
4.88 -0.110544
4.89 -0.111991
4.9 -0.11373
4.91 -0.115706
4.92 -0.117873
4.93 -0.120149
4.94 -0.122479
4.95 -0.124813
4.96 -0.127107
4.97 -0.129328
4.98 -0.131443
4.99 -0.133432
5 -0.135296
5.01 -0.137038
5.02 -0.138668
5.03 -0.1402
5.04 -0.141655
5.05 -0.143049
5.06 -0.144411
5.07 -0.14576
5.08 -0.147112
5.09 -0.148475
5.1 -0.149852
5.11 -0.151238
5.12 -0.152619
5.13 -0.153972
5.14 -0.155269
5.15 -0.156476
5.16 -0.157557
5.17 -0.158472
5.18 -0.159159
5.19 -0.159588
5.2 -0.159734
5.21 -0.159571
5.22 -0.159082
5.23 -0.158258
5.24 -0.157095
5.25 -0.155591
5.26 -0.153803
5.27 -0.151773
5.28 -0.149548
5.29 -0.147188
5.3 -0.144754
5.31 -0.142318
5.32 -0.139958
5.33 -0.137738
5.34 -0.135718
5.35 -0.133948
5.36 -0.13247
5.37 -0.131316
5.38 -0.130529
5.39 -0.130069
5.4 -0.129916
5.41 -0.130031
5.42 -0.130363
5.43 -0.130846
5.44 -0.131406
5.45 -0.131943
5.46 -0.132365
5.47 -0.132581
5.48 -0.132506
5.49 -0.132059
5.5 -0.131168
5.51 -0.129712
5.52 -0.127708
5.53 -0.125134
5.54 -0.121991
5.55 -0.118297
5.56 -0.11409
5.57 -0.109406
5.58 -0.104328
5.59 -0.0989755
5.6 -0.0934481
5.61 -0.0878531
5.62 -0.0823001
5.63 -0.0768969
5.64 -0.0717835
5.65 -0.0670347
5.66 -0.0627236
5.67 -0.0589083
5.68 -0.0556277
5.69 -0.0528996
5.7 -0.050743
5.71 -0.0491398
5.72 -0.0479975
5.73 -0.0472447
5.74 -0.0467938
5.75 -0.0465447
5.76 -0.046388
5.77 -0.0461961
5.78 -0.0458437
5.79 -0.0452229
5.8 -0.0442349
5.81 -0.0427943
5.82 -0.0408324
5.83 -0.0382807
5.84 -0.0350813
5.85 -0.031285
5.86 -0.0269176
5.87 -0.0220271
5.88 -0.0166822
5.89 -0.0109699
5.9 -0.00497931
5.91 0.00114651
5.92 0.00727884
5.93 0.013296
5.94 0.01908
5.95 0.0245215
5.96 0.0295117
5.97 0.0339242
5.98 0.0377475
5.99 0.0409493
6 0.0435215
6.01 0.0454801
6.02 0.0468653
6.03 0.0477079
6.04 0.0481225
6.05 0.0482343
6.06 0.0481601
6.07 0.0480245
6.08 0.0479552
6.09 0.0480821
6.1 0.0485683
6.11 0.0494955
6.12 0.0509524
6.13 0.0530077
6.14 0.0557078
6.15 0.0590746
6.16 0.0631449
6.17 0.0678741
6.18 0.0731668
6.19 0.0789404
6.2 0.0850932
6.21 0.0915073
6.22 0.0980532
6.23 0.104577
6.24 0.110927
6.25 0.116967
6.26 0.122569
6.27 0.127619
6.28 0.132018
6.29 0.135643
6.3 0.138424
6.31 0.140381
6.32 0.141511
6.33 0.141837
6.34 0.141401
6.35 0.14027
6.36 0.138472
6.37 0.136177
6.38 0.133504
6.39 0.13057
6.4 0.127496
6.41 0.124397
6.42 0.121393
6.43 0.118603
6.44 0.116101
6.45 0.113952
6.46 0.112204
6.47 0.110885
6.48 0.110002
6.49 0.109583
6.5 0.109558
6.51 0.109871
6.52 0.110457
6.53 0.111244
6.54 0.112151
6.55 0.113094
6.56 0.113973
6.57 0.114707
6.58 0.115225
6.59 0.115461
6.6 0.115363
6.61 0.114894
6.62 0.113992
6.63 0.11267
6.64 0.110947
6.65 0.108843
6.66 0.106391
6.67 0.103634
6.68 0.100616
6.69 0.0973856
6.7 0.0940259
6.71 0.0905958
6.72 0.0871519
6.73 0.0837464
6.74 0.0804256
6.75 0.0772394
6.76 0.0742173
6.77 0.0713721
6.78 0.0687135
6.79 0.0662425
6.8 0.0639523
6.81 0.0618308
6.82 0.0598719
6.83 0.0580349
6.84 0.0562956
6.85 0.0546303
6.86 0.0530171
6.87 0.0514371
6.88 0.0498765
6.89 0.0483256
6.9 0.0467814
6.91 0.0452477
6.92 0.0437336
6.93 0.0422526
6.94 0.0408219
6.95 0.0394716
6.96 0.0382158
6.97 0.0370735
6.98 0.0360608
6.99 0.0351895
7 0.0344656
7.01 0.0338951
7.02 0.0334692
7.03 0.0331588
7.04 0.0329365
7.05 0.032767
7.06 0.032608
7.07 0.0324111
7.08 0.0321091
7.09 0.031649
7.1 0.0309775
7.11 0.0300421
7.12 0.0287953
7.13 0.0271964
7.14 0.0251979
7.15 0.0227617
7.16 0.0199126
7.17 0.0166587
7.18 0.0130216
7.19 0.0090367
7.2 0.00475254
7.21 0.000214498
7.22 -0.00448
7.23 -0.00924331
7.24 -0.0139879
7.25 -0.018623
7.26 -0.0230579
7.27 -0.0271933
7.28 -0.0309132
7.29 -0.0341723
7.3 -0.0369087
7.31 -0.039074
7.32 -0.0406337
7.33 -0.0415694
7.34 -0.0418286
7.35 -0.041458
7.36 -0.0405138
7.37 -0.039044
7.38 -0.0371093
7.39 -0.0347817
7.4 -0.0321377
7.41 -0.029257
7.42 -0.0262598
7.43 -0.0232371
7.44 -0.0202771
7.45 -0.0174634
7.46 -0.0148723
7.47 -0.0125958
7.48 -0.0106902
7.49 -0.00918342
7.5 -0.00810467
7.51 -0.00747075
7.52 -0.00728604
7.53 -0.0075457
7.54 -0.00827286
7.55 -0.0093887
7.56 -0.0108558
7.57 -0.0126309
7.58 -0.0146666
7.59 -0.0169134
7.6 -0.0193273
7.61 -0.0218513
7.62 -0.0244302
7.63 -0.0270213
7.64 -0.0295865
7.65 -0.0320925
7.66 -0.0345117
7.67 -0.0368072
7.68 -0.0389729
7.69 -0.040998
7.7 -0.0428756
7.71 -0.0446019
7.72 -0.046176
7.73 -0.047592
7.74 -0.0488498
7.75 -0.0499633
7.76 -0.0509362
7.77 -0.0517721
7.78 -0.0524744
7.79 -0.0530462
7.8 -0.053478
7.81 -0.053784
7.82 -0.0539699
7.83 -0.0540403
7.84 -0.0540009
7.85 -0.0538591
7.86 -0.0536214
7.87 -0.0532974
7.88 -0.0529086
7.89 -0.0524711
7.9 -0.0520026
7.91 -0.0515219
7.92 -0.0510487
7.93 -0.0506063
7.94 -0.0502132
7.95 -0.0498842
7.96 -0.0496318
7.97 -0.0494643
7.98 -0.0493854
7.99 -0.0493953
8 -0.0494897
8.01 -0.0496454
8.02 -0.049841
8.03 -0.0500497
8.04 -0.0502401
8.05 -0.0503768
8.06 -0.0504117
8.07 -0.0503044
8.08 -0.050021
8.09 -0.0495268
8.1 -0.0487916
8.11 -0.0477917
8.12 -0.0465072
8.13 -0.0449068
8.14 -0.0430268
8.15 -0.0408855
8.16 -0.0385129
8.17 -0.0359502
8.18 -0.0332492
8.19 -0.0304709
8.2 -0.0276971
8.21 -0.0250073
8.22 -0.0224805
8.23 -0.020196
8.24 -0.0182303
8.25 -0.0166559
8.26 -0.0155915
8.27 -0.0150394
8.28 -0.0150336
8.29 -0.0155921
8.3 -0.0167159
8.31 -0.0183874
8.32 -0.0205964
8.33 -0.0232798
8.34 -0.0263311
8.35 -0.0296601
8.36 -0.0331639
8.37 -0.0367299
8.38 -0.0402395
8.39 -0.0435383
8.4 -0.0465129
8.41 -0.0490514
8.42 -0.0510505
8.43 -0.05242
8.44 -0.0530859
8.45 -0.0529575
8.46 -0.0519783
8.47 -0.0501982
8.48 -0.0476351
8.49 -0.0443297
8.5 -0.040344
8.51 -0.0357601
8.52 -0.0306396
8.53 -0.0251507
8.54 -0.0194291
8.55 -0.0136068
8.56 -0.00781764
8.57 -0.00219254
8.58 0.00313018
8.59 0.00800342
8.6 0.0123578
8.61 0.0161159
8.62 0.0192204
8.63 0.0216351
8.64 0.0233462
8.65 0.0243038
8.66 0.0245844
8.67 0.0242631
8.68 0.0234113
8.69 0.022114
8.7 0.0204674
8.71 0.0185718
8.72 0.0165379
8.73 0.0144927
8.74 0.0125368
8.75 0.0107622
8.76 0.00924988
8.77 0.00806704
8.78 0.00729707
8.79 0.00696309
8.8 0.00706174
8.81 0.0075884
8.82 0.00852222
8.83 0.00982764
8.84 0.0114594
8.85 0.0133751
8.86 0.015474
8.87 0.0176842
8.88 0.0199333
8.89 0.0221506
8.9 0.0242703
8.91 0.0262201
8.92 0.0279468
8.93 0.0294231
8.94 0.0306252
8.95 0.0315414
8.96 0.0321722
8.97 0.032529
8.98 0.0326083
8.99 0.032474
9 0.0321648
9.01 0.0317231
9.02 0.0311931
9.03 0.0306185
9.04 0.0300423
9.05 0.0295057
9.06 0.0290369
9.07 0.0286563
9.08 0.0283761
9.09 0.0281996
9.1 0.0281215
9.11 0.0281358
9.12 0.0282112
9.13 0.02832
9.14 0.0284324
9.15 0.028517
9.16 0.028543
9.17 0.0284773
9.18 0.0282896
9.19 0.0279703
9.2 0.0275106
9.21 0.0269101
9.22 0.0261769
9.23 0.0253278
9.24 0.0243825
9.25 0.0233848
9.26 0.022376
9.27 0.0213995
9.28 0.0205
9.29 0.0197218
9.3 0.0191129
9.31 0.0187248
9.32 0.0185702
9.33 0.0186672
9.34 0.0190233
9.35 0.0196343
9.36 0.0204841
9.37 0.0215595
9.38 0.0228032
9.39 0.0241567
9.4 0.0255604
9.41 0.0269487
9.42 0.028253
9.43 0.0293993
9.44 0.0302958
9.45 0.0308989
9.46 0.0311575
9.47 0.0310317
9.48 0.0304946
9.49 0.0295342
9.5 0.0281248
9.51 0.0263044
9.52 0.0241312
9.53 0.0216602
9.54 0.018959
9.55 0.0161064
9.56 0.0131894
9.57 0.0103141
9.58 0.00757852
9.59 0.00507302
9.6 0.0028813
9.61 0.00107731
9.62 -0.000277788
9.63 -0.00110545
9.64 -0.0013801
9.65 -0.00112517
9.66 -0.000356435
9.67 0.000890901
9.68 0.00256319
9.69 0.00459003
9.7 0.00690663
9.71 0.0093753
9.72 0.0118901
9.73 0.0143425
9.74 0.0166254
9.75 0.0186365
9.76 0.0202599
9.77 0.0213993
9.78 0.0220208
9.79 0.0220847
9.8 0.0215725
9.81 0.0204881
9.82 0.0188573
9.83 0.0166832
9.84 0.0140902
9.85 0.0111749
9.86 0.00804194
9.87 0.00480588
9.88 0.00158774
9.89 -0.00147879
9.9 -0.00424775
9.91 -0.00662134
9.92 -0.00850192
9.93 -0.00980807
9.94 -0.0104778
9.95 -0.0104708
9.96 -0.00970647
9.97 -0.00824618
9.98 -0.00614511
9.99 -0.00346484
10 -0.000287898
10.01 0.00328506
10.02 0.00714284
10.03 0.0111502
10.04 0.015151
10.05 0.0190114
10.06 0.0226019
10.07 0.0258017
10.08 0.0285029
10.09 0.0305598
10.1 0.0319237
10.11 0.0325728
10.12 0.0324885
10.13 0.0316769
10.14 0.0301683
10.15 0.0280055
10.16 0.0252286
10.17 0.0219973
10.18 0.0184219
10.19 0.0146229
10.2 0.010726
10.21 0.00685827
10.22 0.00316277
10.23 -0.000233491
10.24 -0.00323743
10.25 -0.00576387
10.26 -0.00774593
10.27 -0.00913694
10.28 -0.00990729
10.29 -0.00999196
10.3 -0.00948301
10.31 -0.00842404
10.32 -0.00687637
10.33 -0.00491644
10.34 -0.0026327
10.35 -0.000115052
10.36 0.00251775
10.37 0.00515092
10.38 0.00768532
10.39 0.0100288
10.4 0.012099
10.41 0.0138262
10.42 0.0151055
10.43 0.0159405
10.44 0.0163146
10.45 0.0162265
10.46 0.0156905
10.47 0.0147357
10.48 0.0133881
10.49 0.0117032
10.5 0.00976844
10.51 0.00765068
10.52 0.00541846
10.53 0.00313937
10.54 0.00087747
10.55 -0.00129604
10.56 -0.00333345
10.57 -0.0051975
10.58 -0.00686006
10.59 -0.0083038
10.6 -0.00952196
10.61 -0.0105099
10.62 -0.0112741
10.63 -0.0118537
10.64 -0.0122757
10.65 -0.0125703
10.66 -0.0127693
10.67 -0.0129038
10.68 -0.0130017
10.69 -0.013092
10.7 -0.013193
10.71 -0.0133156
10.72 -0.0134635
10.73 -0.0136332
10.74 -0.0138141
10.75 -0.0139863
10.76 -0.0141263
10.77 -0.014208
10.78 -0.0142043
10.79 -0.0140879
10.8 -0.0138342
10.81 -0.0134084
10.82 -0.0128014
10.83 -0.0120134
10.84 -0.0110473
10.85 -0.00991484
10.86 -0.00863733
10.87 -0.00724395
10.88 -0.0057728
10.89 -0.0042827
10.9 -0.00282672
10.91 -0.00146124
10.92 -0.000243764
10.93 0.000769369
10.94 0.00150439
10.95 0.0019142
10.96 0.0019756
10.97 0.00166327
10.98 0.000963996
10.99 -0.000122188
11 -0.00158295
11.01 -0.00342273
11.02 -0.00555494
11.03 -0.00792243
11.04 -0.0104575
11.05 -0.013084
11.06 -0.0157197
11.07 -0.0182694
11.08 -0.0206337
11.09 -0.0227357
11.1 -0.0244997
11.11 -0.0258588
11.12 -0.0267579
11.13 -0.0271552
11.14 -0.0269647
11.15 -0.0262335
11.16 -0.0249764
11.17 -0.0232212
11.18 -0.0210116
11.19 -0.0184054
11.2 -0.0154621
11.21 -0.012269
11.22 -0.00893797
11.23 -0.00556165
11.24 -0.00223331
11.25 0.000956616
11.26 0.00392339
11.27 0.00655448
11.28 0.0088044
11.29 0.0106305
11.3 0.0119995
11.31 0.0128941
11.32 0.0133129
11.33 0.0132551
11.34 0.0127359
11.35 0.0118387
11.36 0.0106207
11.37 0.00914734
11.38 0.00749006
11.39 0.00572353
11.4 0.00392625
11.41 0.00218076
11.42 0.000553124
11.43 -0.000899443
11.44 -0.00212981
11.45 -0.00310237
11.46 -0.00378699
11.47 -0.00415416
11.48 -0.00423678
11.49 -0.00405354
11.5 -0.00363407
11.51 -0.00301737
11.52 -0.00224992
11.53 -0.00138018
11.54 -0.000474039
11.55 0.000410153
11.56 0.00122035
11.57 0.00190938
11.58 0.00243692
11.59 0.00276829
11.6 0.00286051
11.61 0.00272598
11.62 0.00236747
11.63 0.00179859
11.64 0.00104314
11.65 0.000133987
11.66 -0.000892639
11.67 -0.00198108
11.68 -0.00307501
11.69 -0.00412256
11.7 -0.00507301
11.71 -0.005879
11.72 -0.00649799
11.73 -0.00686692
11.74 -0.00698453
11.75 -0.00683717
11.76 -0.00642182
11.77 -0.00574627
11.78 -0.00482886
11.79 -0.00368823
11.8 -0.00236718
11.81 -0.000924898
11.82 0.00058719
11.83 0.00211448
