# xPDFsuite Configuration #
[PDF]
wavelength = 0.1
dataformat = QA
inputfile = BiMsol6_insitu_700 C-00312.xy
backgroundfile = Quartz2mm-dist500-00000.xy
mode = xray
bgscale = 0.0042
composition = Bi2Fe4O9
outputtype = gr
qmaxinst = 24.998449118
qmin = 0.1
qmax = 21.4986662415
rmax = 80.0
rmin = 0.0
rstep = 0.01
rpoly = 0.9

[Misc]
inputdir = C:/Data/Seafile/CPH/Beamtime/Desy Oct 20/In situ data/Processed/BiMsol6/PDF
savedir = C:/Data/Seafile/CPH/Beamtime/Desy Oct 20/In situ data/PDF/BiMsol6
backgroundfilefull = C:/Data/Seafile/CPH/Beamtime/Desy Oct 20/In situ data/Processed/Standard_Empty_Cap/Quartz2mm-dist500-00000.xy

#### start data
#S 1
#L r($\AA$)  G($\AA^{-2}$)
0 0
0.01 0.00745462
0.02 0.0144994
0.03 0.0207834
0.04 0.025991
0.05 0.0298564
0.06 0.0321755
0.07 0.032724
0.08 0.031432
0.09 0.028457
0.1 0.0239261
0.11 0.0180401
0.12 0.011064
0.13 0.00331624
0.14 -0.00484955
0.15 -0.0129735
0.16 -0.0206689
0.17 -0.0275714
0.18 -0.0333515
0.19 -0.0377303
0.2 -0.0404194
0.21 -0.0412138
0.22 -0.0402067
0.23 -0.0374552
0.24 -0.0331038
0.25 -0.0273796
0.26 -0.0205833
0.27 -0.0130503
0.28 -0.00529481
0.29 0.00222608
0.3 0.00906715
0.31 0.0148007
0.32 0.0190372
0.33 0.0213797
0.34 0.0214336
0.35 0.0192241
0.36 0.0147193
0.37 0.00799964
0.38 -0.000740122
0.39 -0.0111929
0.4 -0.0230118
0.41 -0.0355457
0.42 -0.048152
0.43 -0.0601775
0.44 -0.0709414
0.45 -0.0797599
0.46 -0.0859082
0.47 -0.0884578
0.48 -0.0871667
0.49 -0.081634
0.5 -0.0715855
0.51 -0.0568892
0.52 -0.0375672
0.53 -0.0135047
0.54 0.0147541
0.55 0.0464722
0.56 0.0809671
0.57 0.117433
0.58 0.154961
0.59 0.192559
0.6 0.228972
0.61 0.26317
0.62 0.294135
0.63 0.320911
0.64 0.342631
0.65 0.358547
0.66 0.367632
0.67 0.369445
0.68 0.36414
0.69 0.351699
0.7 0.332298
0.71 0.306302
0.72 0.274253
0.73 0.236339
0.74 0.19411
0.75 0.148566
0.76 0.10077
0.77 0.0518282
0.78 0.00285814
0.79 -0.0449357
0.8 -0.0903357
0.81 -0.132501
0.82 -0.170627
0.83 -0.204052
0.84 -0.232272
0.85 -0.254952
0.86 -0.271347
0.87 -0.282018
0.88 -0.287273
0.89 -0.287495
0.9 -0.283202
0.91 -0.275025
0.92 -0.263593
0.93 -0.249713
0.94 -0.23444
0.95 -0.218588
0.96 -0.202941
0.97 -0.188226
0.98 -0.175091
0.99 -0.164326
1 -0.156254
1.01 -0.151101
1.02 -0.149018
1.03 -0.150031
1.04 -0.154042
1.05 -0.160911
1.06 -0.170428
1.07 -0.181939
1.08 -0.194979
1.09 -0.209048
1.1 -0.22363
1.11 -0.238216
1.12 -0.252251
1.13 -0.26527
1.14 -0.276937
1.15 -0.286969
1.16 -0.295168
1.17 -0.301421
1.18 -0.305671
1.19 -0.307838
1.2 -0.308275
1.21 -0.307201
1.22 -0.304888
1.23 -0.301642
1.24 -0.29779
1.25 -0.293669
1.26 -0.289646
1.27 -0.286016
1.28 -0.283021
1.29 -0.28085
1.3 -0.279631
1.31 -0.279436
1.32 -0.280363
1.33 -0.282215
1.34 -0.284852
1.35 -0.288087
1.36 -0.291693
1.37 -0.295416
1.38 -0.298963
1.39 -0.302029
1.4 -0.304378
1.41 -0.305797
1.42 -0.306112
1.43 -0.305201
1.44 -0.303002
1.45 -0.299375
1.46 -0.294541
1.47 -0.288649
1.48 -0.281897
1.49 -0.274532
1.5 -0.266838
1.51 -0.259144
1.52 -0.251828
1.53 -0.24521
1.54 -0.239588
1.55 -0.235231
1.56 -0.232361
1.57 -0.231142
1.58 -0.231853
1.59 -0.234365
1.6 -0.23858
1.61 -0.244358
1.62 -0.251488
1.63 -0.259692
1.64 -0.268653
1.65 -0.277956
1.66 -0.287136
1.67 -0.295773
1.68 -0.303453
1.69 -0.309783
1.7 -0.314403
1.71 -0.316802
1.72 -0.316843
1.73 -0.314428
1.74 -0.309484
1.75 -0.302022
1.76 -0.292137
1.77 -0.279954
1.78 -0.265635
1.79 -0.249716
1.8 -0.232585
1.81 -0.214664
1.82 -0.196401
1.83 -0.178249
1.84 -0.160731
1.85 -0.144295
1.86 -0.129284
1.87 -0.116009
1.88 -0.104715
1.89 -0.0955731
1.9 -0.0887082
1.91 -0.0843202
1.92 -0.0820878
1.93 -0.0818469
1.94 -0.0833674
1.95 -0.0863634
1.96 -0.0905052
1.97 -0.0954594
1.98 -0.100781
1.99 -0.106061
2 -0.110946
2.01 -0.115115
2.02 -0.118293
2.03 -0.120254
2.04 -0.120681
2.05 -0.119652
2.06 -0.117173
2.07 -0.113322
2.08 -0.108248
2.09 -0.102159
2.1 -0.0952952
2.11 -0.0880141
2.12 -0.0807021
2.13 -0.0737159
2.14 -0.067412
2.15 -0.0621327
2.16 -0.0581927
2.17 -0.0560696
2.18 -0.0558354
2.19 -0.0576272
2.2 -0.0615287
2.21 -0.0675548
2.22 -0.0756513
2.23 -0.0857766
2.24 -0.0977575
2.25 -0.111204
2.26 -0.125819
2.27 -0.141274
2.28 -0.157221
2.29 -0.173301
2.3 -0.189105
2.31 -0.204283
2.32 -0.218539
2.33 -0.231616
2.34 -0.243305
2.35 -0.253449
2.36 -0.261895
2.37 -0.268529
2.38 -0.273527
2.39 -0.276982
2.4 -0.279038
2.41 -0.279884
2.42 -0.279738
2.43 -0.278806
2.44 -0.277424
2.45 -0.275877
2.46 -0.274421
2.47 -0.273291
2.48 -0.272698
2.49 -0.272839
2.5 -0.273924
2.51 -0.275965
2.52 -0.279001
2.53 -0.283024
2.54 -0.287985
2.55 -0.293797
2.56 -0.300382
2.57 -0.307541
2.58 -0.315073
2.59 -0.322792
2.6 -0.330514
2.61 -0.338055
2.62 -0.345239
2.63 -0.35185
2.64 -0.357805
2.65 -0.363006
2.66 -0.367386
2.67 -0.370907
2.68 -0.373558
2.69 -0.375304
2.7 -0.376205
2.71 -0.376368
2.72 -0.375867
2.73 -0.374785
2.74 -0.373203
2.75 -0.371199
2.76 -0.368807
2.77 -0.366121
2.78 -0.363172
2.79 -0.359968
2.8 -0.356494
2.81 -0.352713
2.82 -0.348546
2.83 -0.343897
2.84 -0.338696
2.85 -0.332839
2.86 -0.326218
2.87 -0.318728
2.88 -0.31027
2.89 -0.300636
2.9 -0.289859
2.91 -0.277909
2.92 -0.264774
2.93 -0.250472
2.94 -0.23505
2.95 -0.218545
2.96 -0.201053
2.97 -0.182792
2.98 -0.16392
2.99 -0.144617
3 -0.12507
3.01 -0.105472
3.02 -0.0860471
3.03 -0.066987
3.04 -0.0484526
3.05 -0.0305875
3.06 -0.0135091
3.07 0.00269476
3.08 0.0179379
3.09 0.0321494
3.1 0.04543
3.11 0.0578325
3.12 0.0694391
3.13 0.0803571
3.14 0.0907146
3.15 0.100633
3.16 0.110307
3.17 0.119903
3.18 0.129573
3.19 0.139454
3.2 0.149667
3.21 0.160324
3.22 0.171545
3.23 0.183324
3.24 0.19567
3.25 0.208561
3.26 0.221947
3.27 0.23575
3.28 0.249882
3.29 0.264193
3.3 0.27853
3.31 0.292748
3.32 0.306696
3.33 0.320228
3.34 0.3332
3.35 0.345408
3.36 0.356814
3.37 0.367339
3.38 0.376931
3.39 0.385561
3.4 0.393228
3.41 0.3999
3.42 0.405644
3.43 0.410584
3.44 0.414811
3.45 0.41843
3.46 0.421551
3.47 0.42429
3.48 0.426743
3.49 0.429058
3.5 0.431329
3.51 0.43364
3.52 0.436054
3.53 0.438619
3.54 0.44137
3.55 0.444315
3.56 0.447426
3.57 0.45067
3.58 0.453997
3.59 0.457349
3.6 0.460656
3.61 0.463824
3.62 0.466783
3.63 0.469463
3.64 0.471798
3.65 0.473734
3.66 0.475225
3.67 0.476219
3.68 0.476682
3.69 0.476648
3.7 0.476134
3.71 0.475162
3.72 0.47377
3.73 0.472001
3.74 0.469878
3.75 0.467481
3.76 0.464867
3.77 0.462081
3.78 0.459161
3.79 0.456137
3.8 0.453024
3.81 0.449821
3.82 0.446525
3.83 0.443112
3.84 0.439545
3.85 0.435778
3.86 0.431755
3.87 0.427382
3.88 0.422596
3.89 0.417343
3.9 0.411555
3.91 0.405173
3.92 0.398142
3.93 0.390407
3.94 0.381873
3.95 0.372594
3.96 0.362568
3.97 0.351805
3.98 0.34033
3.99 0.328179
4 0.315356
4.01 0.301942
4.02 0.288024
4.03 0.273669
4.04 0.258941
4.05 0.243902
4.06 0.22861
4.07 0.213103
4.08 0.197451
4.09 0.181689
4.1 0.165845
4.11 0.149936
4.12 0.133974
4.13 0.117961
4.14 0.101899
4.15 0.0857875
4.16 0.0696271
4.17 0.0534196
4.18 0.0371728
4.19 0.0209016
4.2 0.00463454
4.21 -0.0115878
4.22 -0.0277156
4.23 -0.0436875
4.24 -0.0594307
4.25 -0.0748626
4.26 -0.0898677
4.27 -0.104325
4.28 -0.118162
4.29 -0.131281
4.3 -0.143588
4.31 -0.154996
4.32 -0.165432
4.33 -0.174727
4.34 -0.182929
4.35 -0.190039
4.36 -0.196063
4.37 -0.201032
4.38 -0.205001
4.39 -0.208011
4.4 -0.210143
4.41 -0.211585
4.42 -0.21247
4.43 -0.212938
4.44 -0.213135
4.45 -0.213208
4.46 -0.213314
4.47 -0.213596
4.48 -0.21417
4.49 -0.215131
4.5 -0.216552
4.51 -0.218483
4.52 -0.220962
4.53 -0.224014
4.54 -0.227554
4.55 -0.231519
4.56 -0.235827
4.57 -0.240373
4.58 -0.245041
4.59 -0.24969
4.6 -0.25417
4.61 -0.25835
4.62 -0.262103
4.63 -0.265315
4.64 -0.267888
4.65 -0.269732
4.66 -0.270721
4.67 -0.270907
4.68 -0.270295
4.69 -0.268915
4.7 -0.266826
4.71 -0.264109
4.72 -0.260839
4.73 -0.25717
4.74 -0.253261
4.75 -0.249259
4.76 -0.245311
4.77 -0.241561
4.78 -0.238149
4.79 -0.235263
4.8 -0.232965
4.81 -0.23134
4.82 -0.230446
4.83 -0.23032
4.84 -0.230972
4.85 -0.23243
4.86 -0.234647
4.87 -0.237514
4.88 -0.240947
4.89 -0.24485
4.9 -0.249115
4.91 -0.253629
4.92 -0.25828
4.93 -0.262931
4.94 -0.267477
4.95 -0.271826
4.96 -0.2759
4.97 -0.279634
4.98 -0.282963
4.99 -0.285848
5 -0.288308
5.01 -0.290353
5.02 -0.292004
5.03 -0.293296
5.04 -0.294269
5.05 -0.294947
5.06 -0.295404
5.07 -0.295689
5.08 -0.295838
5.09 -0.295879
5.1 -0.295827
5.11 -0.295679
5.12 -0.295413
5.13 -0.295004
5.14 -0.294402
5.15 -0.293547
5.16 -0.292364
5.17 -0.290772
5.18 -0.288629
5.19 -0.285862
5.2 -0.282395
5.21 -0.278143
5.22 -0.27303
5.23 -0.266993
5.24 -0.259955
5.25 -0.251815
5.26 -0.242652
5.27 -0.232477
5.28 -0.221319
5.29 -0.209225
5.3 -0.196257
5.31 -0.182442
5.32 -0.167912
5.33 -0.152801
5.34 -0.137214
5.35 -0.121258
5.36 -0.105039
5.37 -0.0886562
5.38 -0.0722044
5.39 -0.0557773
5.4 -0.0394407
5.41 -0.0232475
5.42 -0.00723689
5.43 0.00856457
5.44 0.0241268
5.45 0.0394487
5.46 0.0545456
5.47 0.0694248
5.48 0.0840943
5.49 0.0985595
5.5 0.112819
5.51 0.126838
5.52 0.140615
5.53 0.154112
5.54 0.167276
5.55 0.180039
5.56 0.192315
5.57 0.203968
5.58 0.214865
5.59 0.224918
5.6 0.234
5.61 0.241981
5.62 0.248733
5.63 0.254136
5.64 0.257913
5.65 0.260109
5.66 0.260671
5.67 0.259554
5.68 0.256742
5.69 0.252246
5.7 0.246036
5.71 0.238152
5.72 0.228818
5.73 0.218164
5.74 0.206342
5.75 0.193524
5.76 0.179895
5.77 0.165607
5.78 0.150929
5.79 0.136068
5.8 0.12121
5.81 0.106528
5.82 0.0921803
5.83 0.0783214
5.84 0.0651055
5.85 0.0525709
5.86 0.0407709
5.87 0.029733
5.88 0.0194599
5.89 0.00993222
5.9 0.00116694
5.91 -0.00693821
5.92 -0.0144729
5.93 -0.0215105
5.94 -0.0281246
5.95 -0.034385
5.96 -0.0403479
5.97 -0.046049
5.98 -0.0515437
5.99 -0.0568423
6 -0.0619352
6.01 -0.0667926
6.02 -0.0713652
6.03 -0.0755528
6.04 -0.0792704
6.05 -0.0824353
6.06 -0.0849425
6.07 -0.0866843
6.08 -0.0875551
6.09 -0.0874447
6.1 -0.0861566
6.11 -0.0837303
6.12 -0.0801212
6.13 -0.0753089
6.14 -0.0692992
6.15 -0.0621253
6.16 -0.0537835
6.17 -0.0443909
6.18 -0.0341253
6.19 -0.0231276
6.2 -0.0115563
6.21 0.000416875
6.22 0.0126119
6.23 0.0248293
6.24 0.036869
6.25 0.0485622
6.26 0.0597543
6.27 0.0703102
6.28 0.0801173
6.29 0.0890416
6.3 0.09701
6.31 0.104056
6.32 0.110187
6.33 0.115439
6.34 0.119874
6.35 0.123576
6.36 0.126594
6.37 0.129121
6.38 0.131292
6.39 0.133241
6.4 0.1351
6.41 0.136993
6.42 0.139046
6.43 0.14138
6.44 0.144058
6.45 0.147137
6.46 0.150651
6.47 0.154612
6.48 0.159011
6.49 0.163852
6.5 0.169048
6.51 0.174526
6.52 0.180208
6.53 0.18601
6.54 0.191848
6.55 0.197632
6.56 0.203266
6.57 0.208691
6.58 0.213853
6.59 0.218712
6.6 0.223249
6.61 0.227458
6.62 0.231331
6.63 0.234919
6.64 0.238281
6.65 0.241478
6.66 0.244578
6.67 0.247656
6.68 0.25079
6.69 0.25407
6.7 0.257553
6.71 0.26129
6.72 0.265318
6.73 0.269657
6.74 0.274309
6.75 0.279269
6.76 0.28448
6.77 0.289861
6.78 0.295326
6.79 0.300769
6.8 0.306074
6.81 0.311107
6.82 0.315675
6.83 0.319669
6.84 0.322953
6.85 0.325395
6.86 0.326876
6.87 0.327289
6.88 0.326469
6.89 0.324348
6.9 0.320947
6.91 0.316249
6.92 0.310256
6.93 0.302996
6.94 0.294514
6.95 0.284754
6.96 0.273936
6.97 0.262162
6.98 0.249537
6.99 0.236172
7 0.22218
7.01 0.207652
7.02 0.1927
7.03 0.177452
7.04 0.161992
7.05 0.14639
7.06 0.130705
7.07 0.114979
7.08 0.0992444
7.09 0.0835191
7.1 0.0678071
7.11 0.052104
7.12 0.0363995
7.13 0.0206798
7.14 0.00492872
7.15 -0.0108687
7.16 -0.026716
7.17 -0.0426115
7.18 -0.0585439
7.19 -0.0744915
7.2 -0.0904206
7.21 -0.106275
7.22 -0.121992
7.23 -0.137504
7.24 -0.152731
7.25 -0.167586
7.26 -0.18198
7.27 -0.195801
7.28 -0.208906
7.29 -0.221261
7.3 -0.232785
7.31 -0.243411
7.32 -0.253082
7.33 -0.261757
7.34 -0.269324
7.35 -0.275823
7.36 -0.281303
7.37 -0.285791
7.38 -0.289334
7.39 -0.291991
7.4 -0.29382
7.41 -0.294856
7.42 -0.29527
7.43 -0.295159
7.44 -0.294621
7.45 -0.293752
7.46 -0.292646
7.47 -0.291383
7.48 -0.290054
7.49 -0.28873
7.5 -0.287462
7.51 -0.286289
7.52 -0.285234
7.53 -0.284311
7.54 -0.283528
7.55 -0.282855
7.56 -0.282263
7.57 -0.281717
7.58 -0.281172
7.59 -0.28058
7.6 -0.279881
7.61 -0.279013
7.62 -0.277932
7.63 -0.276588
7.64 -0.274939
7.65 -0.272945
7.66 -0.270575
7.67 -0.267759
7.68 -0.264522
7.69 -0.260861
7.7 -0.256777
7.71 -0.252279
7.72 -0.247382
7.73 -0.242092
7.74 -0.236434
7.75 -0.230466
7.76 -0.224224
7.77 -0.217749
7.78 -0.211081
7.79 -0.204264
7.8 -0.197335
7.81 -0.190351
7.82 -0.183361
7.83 -0.176406
7.84 -0.169532
7.85 -0.16278
7.86 -0.156202
7.87 -0.149852
7.88 -0.143757
7.89 -0.137955
7.9 -0.132481
7.91 -0.127368
7.92 -0.122648
7.93 -0.118386
7.94 -0.114583
7.95 -0.111242
7.96 -0.108376
7.97 -0.105989
7.98 -0.10408
7.99 -0.102654
8 -0.101723
8.01 -0.10122
8.02 -0.101116
8.03 -0.101374
8.04 -0.101953
8.05 -0.102809
8.06 -0.103906
8.07 -0.105178
8.08 -0.106566
8.09 -0.108021
8.1 -0.109496
8.11 -0.110951
8.12 -0.112348
8.13 -0.113648
8.14 -0.114838
8.15 -0.115909
8.16 -0.116859
8.17 -0.117695
8.18 -0.118432
8.19 -0.119088
8.2 -0.119698
8.21 -0.120297
8.22 -0.12092
8.23 -0.121601
8.24 -0.122371
8.25 -0.123259
8.26 -0.124299
8.27 -0.125487
8.28 -0.12682
8.29 -0.128283
8.3 -0.129848
8.31 -0.131473
8.32 -0.133098
8.33 -0.134644
8.34 -0.136028
8.35 -0.137157
8.36 -0.137932
8.37 -0.138249
8.38 -0.138002
8.39 -0.137002
8.4 -0.135209
8.41 -0.132536
8.42 -0.128907
8.43 -0.124257
8.44 -0.118538
8.45 -0.11167
8.46 -0.103615
8.47 -0.0944689
8.48 -0.0842668
8.49 -0.073064
8.5 -0.0609334
8.51 -0.0479639
8.52 -0.0341964
8.53 -0.0198161
8.54 -0.00495733
8.55 0.0102565
8.56 0.0257031
8.57 0.0412648
8.58 0.0568278
8.59 0.0722764
8.6 0.0875296
8.61 0.102521
8.62 0.117201
8.63 0.131537
8.64 0.145513
8.65 0.1591
8.66 0.172339
8.67 0.185269
8.68 0.197932
8.69 0.210371
8.7 0.222635
8.71 0.234769
8.72 0.246814
8.73 0.258811
8.74 0.270783
8.75 0.282734
8.76 0.294655
8.77 0.30652
8.78 0.318271
8.79 0.329838
8.8 0.341143
8.81 0.352087
8.82 0.36256
8.83 0.372444
8.84 0.381602
8.85 0.389811
8.86 0.397024
8.87 0.403122
8.88 0.407995
8.89 0.411546
8.9 0.413696
8.91 0.414287
8.92 0.413292
8.93 0.410777
8.94 0.406751
8.95 0.401245
8.96 0.394311
8.97 0.386019
8.98 0.376321
8.99 0.365476
9 0.353599
9.01 0.340809
9.02 0.327227
9.03 0.312974
9.04 0.298142
9.05 0.282852
9.06 0.267234
9.07 0.251372
9.08 0.235336
9.09 0.219183
9.1 0.202956
9.11 0.186683
9.12 0.170385
9.13 0.154071
9.14 0.137739
9.15 0.121386
9.16 0.105007
9.17 0.0885968
9.18 0.0721578
9.19 0.0557038
9.2 0.0392566
9.21 0.0228501
9.22 0.00653112
9.23 -0.0096395
9.24 -0.0255576
9.25 -0.0411402
9.26 -0.0562906
9.27 -0.070898
9.28 -0.0848455
9.29 -0.0980124
9.3 -0.110245
9.31 -0.121357
9.32 -0.131318
9.33 -0.14003
9.34 -0.147409
9.35 -0.153389
9.36 -0.157919
9.37 -0.160846
9.38 -0.162242
9.39 -0.162173
9.4 -0.16068
9.41 -0.15782
9.42 -0.153671
9.43 -0.148301
9.44 -0.141745
9.45 -0.134232
9.46 -0.125879
9.47 -0.116809
9.48 -0.107139
9.49 -0.096983
9.5 -0.0864258
9.51 -0.0755861
9.52 -0.0645597
9.53 -0.0534138
9.54 -0.0422013
9.55 -0.0309621
9.56 -0.0197232
9.57 -0.00850238
9.58 0.00269729
9.59 0.0138787
9.6 0.0250487
9.61 0.0362156
9.62 0.0473862
9.63 0.0585633
9.64 0.0697415
9.65 0.0809053
9.66 0.0920292
9.67 0.103076
9.68 0.113997
9.69 0.124731
9.7 0.135167
9.71 0.145245
9.72 0.154873
9.73 0.163955
9.74 0.172396
9.75 0.180099
9.76 0.186924
9.77 0.192763
9.78 0.1976
9.79 0.201379
9.8 0.204059
9.81 0.205617
9.82 0.206048
9.83 0.205254
9.84 0.203378
9.85 0.200493
9.86 0.196673
9.87 0.192005
9.88 0.186591
9.89 0.180518
9.9 0.173901
9.91 0.166903
9.92 0.15964
9.93 0.152222
9.94 0.144749
9.95 0.137313
9.96 0.130005
9.97 0.122885
9.98 0.115988
9.99 0.10934
10 0.102947
10.01 0.0968005
10.02 0.0908837
10.03 0.0851663
10.04 0.0795821
10.05 0.0740778
10.06 0.0685966
10.07 0.0630815
10.08 0.0574776
10.09 0.0517206
10.1 0.0457717
10.11 0.0396068
10.12 0.033209
10.13 0.0265738
10.14 0.01971
10.15 0.0126365
10.16 0.00537923
10.17 -0.0019936
10.18 -0.00942497
10.19 -0.0168511
10.2 -0.0242037
10.21 -0.0314129
10.22 -0.0383894
10.23 -0.0450643
10.24 -0.05139
10.25 -0.0573173
10.26 -0.0628072
10.27 -0.0678327
10.28 -0.0723757
10.29 -0.0763867
10.3 -0.0799335
10.31 -0.083043
10.32 -0.0857528
10.33 -0.0881099
10.34 -0.0901687
10.35 -0.0919785
10.36 -0.0936125
10.37 -0.0951468
10.38 -0.0966421
10.39 -0.0981547
10.4 -0.0997346
10.41 -0.101424
10.42 -0.103275
10.43 -0.105295
10.44 -0.107494
10.45 -0.109872
10.46 -0.11242
10.47 -0.11512
10.48 -0.117951
10.49 -0.120881
10.5 -0.123864
10.51 -0.126865
10.52 -0.129848
10.53 -0.132777
10.54 -0.135624
10.55 -0.138349
10.56 -0.140943
10.57 -0.143397
10.58 -0.14571
10.59 -0.147885
10.6 -0.149935
10.61 -0.151876
10.62 -0.15373
10.63 -0.155532
10.64 -0.157314
10.65 -0.159102
10.66 -0.160925
10.67 -0.162808
10.68 -0.164777
10.69 -0.166843
10.7 -0.169006
10.71 -0.171266
10.72 -0.173609
10.73 -0.176019
10.74 -0.17847
10.75 -0.180925
10.76 -0.183345
10.77 -0.185687
10.78 -0.187912
10.79 -0.189978
10.8 -0.191846
10.81 -0.193463
10.82 -0.194809
10.83 -0.195874
10.84 -0.19665
10.85 -0.19714
10.86 -0.197355
10.87 -0.197313
10.88 -0.197032
10.89 -0.19658
10.9 -0.196006
10.91 -0.195364
10.92 -0.194711
10.93 -0.194105
10.94 -0.193614
10.95 -0.193294
10.96 -0.193183
10.97 -0.193316
10.98 -0.193715
10.99 -0.194391
11 -0.195343
11.01 -0.196577
11.02 -0.198028
11.03 -0.199647
11.04 -0.201372
11.05 -0.203132
11.06 -0.204844
11.07 -0.206407
11.08 -0.207714
11.09 -0.208681
11.1 -0.209217
11.11 -0.209238
11.12 -0.208666
11.13 -0.207437
11.14 -0.205414
11.15 -0.202634
11.16 -0.199085
11.17 -0.194768
11.18 -0.189702
11.19 -0.183922
11.2 -0.177452
11.21 -0.170358
11.22 -0.162769
11.23 -0.154776
11.24 -0.146481
11.25 -0.137987
11.26 -0.1294
11.27 -0.120834
11.28 -0.112398
11.29 -0.10418
11.3 -0.0962578
11.31 -0.0886974
11.32 -0.08155
11.33 -0.0748685
11.34 -0.0686952
11.35 -0.0629926
11.36 -0.0577448
11.37 -0.0529218
11.38 -0.0484802
11.39 -0.0443658
11.4 -0.0405317
11.41 -0.0368823
11.42 -0.0333349
11.43 -0.0298126
11.44 -0.0262399
11.45 -0.0225449
11.46 -0.0186548
11.47 -0.0144869
11.48 -0.0100122
11.49 -0.00519334
11.5 -3.59528e-06
11.51 0.00557257
11.52 0.0115398
11.53 0.0179209
11.54 0.0246825
11.55 0.0317832
11.56 0.0391903
11.57 0.0468655
11.58 0.0547672
11.59 0.062853
11.6 0.0710854
11.61 0.0794032
11.62 0.0877658
11.63 0.0961359
11.64 0.104481
11.65 0.112773
11.66 0.120982
11.67 0.129092
11.68 0.137095
11.69 0.144983
11.7 0.152755
11.71 0.16041
11.72 0.167949
11.73 0.175362
11.74 0.182667
11.75 0.189863
11.76 0.19695
11.77 0.203924
11.78 0.210777
11.79 0.217489
11.8 0.224042
11.81 0.230421
11.82 0.2366
11.83 0.242551
11.84 0.24824
11.85 0.253632
11.86 0.258648
11.87 0.263278
11.88 0.267486
11.89 0.271233
11.9 0.274481
11.91 0.277195
11.92 0.279317
11.93 0.280798
11.94 0.281654
11.95 0.281869
11.96 0.281426
11.97 0.280317
11.98 0.278537
11.99 0.276021
12 0.272826
12.01 0.268977
12.02 0.264487
12.03 0.259373
12.04 0.253656
12.05 0.247343
12.06 0.240434
12.07 0.233008
12.08 0.225098
12.09 0.216738
12.1 0.207964
12.11 0.198815
12.12 0.189307
12.13 0.179506
12.14 0.169469
12.15 0.159243
12.16 0.148878
12.17 0.138425
12.18 0.127938
12.19 0.117481
