# xPDFsuite Configuration #
[PDF]
wavelength = 0.1
dataformat = QA
inputfile = BiMsol6_insitu_700 C-00618.xy
backgroundfile = Quartz2mm-dist500-00000.xy
mode = xray
bgscale = 0.0042
composition = Bi2Fe4O9
outputtype = gr
qmaxinst = 24.998449118
qmin = 0.1
qmax = 21.4986662415
rmax = 80.0
rmin = 0.0
rstep = 0.01
rpoly = 0.9

[Misc]
inputdir = C:/Data/Seafile/CPH/Beamtime/Desy Oct 20/In situ data/Processed/BiMsol6/PDF
savedir = C:/Data/Seafile/CPH/Beamtime/Desy Oct 20/In situ data/PDF/BiMsol6
backgroundfilefull = C:/Data/Seafile/CPH/Beamtime/Desy Oct 20/In situ data/Processed/Standard_Empty_Cap/Quartz2mm-dist500-00000.xy

#### start data
#S 1
#L r($\AA$)  G($\AA^{-2}$)
0 0
0.01 0.00637653
0.02 0.0123907
0.03 0.0177324
0.04 0.0221237
0.05 0.0253312
0.06 0.0271773
0.07 0.0274681
0.08 0.026148
0.09 0.0233612
0.1 0.0192268
0.11 0.013929
0.12 0.00770882
0.13 0.000853569
0.14 -0.00631325
0.15 -0.0133868
0.16 -0.0200255
0.17 -0.025909
0.18 -0.0307511
0.19 -0.0343131
0.2 -0.0363503
0.21 -0.0366971
0.22 -0.0354549
0.23 -0.0326931
0.24 -0.0285596
0.25 -0.0232756
0.26 -0.0171272
0.27 -0.0104407
0.28 -0.0036809
0.29 0.00273877
0.3 0.00841756
0.31 0.0129756
0.32 0.0160727
0.33 0.0173651
0.34 0.0165185
0.35 0.0135913
0.36 0.00858686
0.37 0.00161293
0.38 -0.00711698
0.39 -0.0172871
0.4 -0.0285303
0.41 -0.0402253
0.42 -0.0517638
0.43 -0.0625281
0.44 -0.0718815
0.45 -0.0791915
0.46 -0.0837914
0.47 -0.0848235
0.48 -0.0821121
0.49 -0.075319
0.5 -0.0642294
0.51 -0.0487661
0.52 -0.0289983
0.53 -0.00487859
0.54 0.0230285
0.55 0.0539885
0.56 0.0873178
0.57 0.122222
0.58 0.157817
0.59 0.193143
0.6 0.226974
0.61 0.258372
0.62 0.28639
0.63 0.310143
0.64 0.328845
0.65 0.341824
0.66 0.348146
0.67 0.347456
0.68 0.339965
0.69 0.325714
0.7 0.304928
0.71 0.278009
0.72 0.245524
0.73 0.20773
0.74 0.166117
0.75 0.121662
0.76 0.0753977
0.77 0.0283855
0.78 -0.0183109
0.79 -0.0635399
0.8 -0.106162
0.81 -0.14543
0.82 -0.180616
0.83 -0.211135
0.84 -0.236559
0.85 -0.25662
0.86 -0.270666
0.87 -0.279296
0.88 -0.282854
0.89 -0.281753
0.9 -0.276528
0.91 -0.267816
0.92 -0.256255
0.93 -0.242643
0.94 -0.227974
0.95 -0.213023
0.96 -0.198525
0.97 -0.185152
0.98 -0.173497
0.99 -0.164289
1 -0.15778
1.01 -0.154136
1.02 -0.153455
1.03 -0.155714
1.04 -0.160772
1.05 -0.168448
1.06 -0.178488
1.07 -0.190246
1.08 -0.20325
1.09 -0.217003
1.1 -0.231001
1.11 -0.244755
1.12 -0.257716
1.13 -0.26947
1.14 -0.279722
1.15 -0.288227
1.16 -0.294827
1.17 -0.299448
1.18 -0.302072
1.19 -0.302659
1.2 -0.301593
1.21 -0.299119
1.22 -0.295529
1.23 -0.291144
1.24 -0.286303
1.25 -0.281356
1.26 -0.276669
1.27 -0.272522
1.28 -0.269148
1.29 -0.266724
1.3 -0.265365
1.31 -0.265126
1.32 -0.266095
1.33 -0.268049
1.34 -0.270835
1.35 -0.274249
1.36 -0.278053
1.37 -0.281983
1.38 -0.285738
1.39 -0.289005
1.4 -0.291546
1.41 -0.293143
1.42 -0.29362
1.43 -0.292856
1.44 -0.290785
1.45 -0.287265
1.46 -0.282515
1.47 -0.276678
1.48 -0.269947
1.49 -0.26256
1.5 -0.254794
1.51 -0.246959
1.52 -0.23942
1.53 -0.232484
1.54 -0.226439
1.55 -0.221538
1.56 -0.21799
1.57 -0.215951
1.58 -0.215676
1.59 -0.217043
1.6 -0.219959
1.61 -0.224291
1.62 -0.229835
1.63 -0.236334
1.64 -0.243488
1.65 -0.250909
1.66 -0.258171
1.67 -0.264892
1.68 -0.270695
1.69 -0.275225
1.7 -0.278165
1.71 -0.279058
1.72 -0.277798
1.73 -0.274313
1.74 -0.268556
1.75 -0.260557
1.76 -0.250419
1.77 -0.238277
1.78 -0.224303
1.79 -0.208984
1.8 -0.192678
1.81 -0.175768
1.82 -0.158653
1.83 -0.141731
1.84 -0.12546
1.85 -0.110211
1.86 -0.0962563
1.87 -0.0838387
1.88 -0.0731355
1.89 -0.0642551
1.9 -0.0572598
1.91 -0.0522591
1.92 -0.0489381
1.93 -0.0471114
1.94 -0.0465409
1.95 -0.0469478
1.96 -0.0480242
1.97 -0.049448
1.98 -0.0508439
1.99 -0.0518941
2 -0.0523267
2.01 -0.051913
2.02 -0.050478
2.03 -0.0479039
2.04 -0.0440177
2.05 -0.0389945
2.06 -0.0329482
2.07 -0.0260588
2.08 -0.0185661
2.09 -0.0107612
2.1 -0.002998
2.11 0.00430416
2.12 0.0107752
2.13 0.0160454
2.14 0.0197642
2.15 0.0216138
2.16 0.0213218
2.17 0.0183974
2.18 0.0129304
2.19 0.00488215
2.2 -0.00572707
2.21 -0.0187996
2.22 -0.0341627
2.23 -0.0516524
2.24 -0.070956
2.25 -0.0915601
2.26 -0.113058
2.27 -0.135019
2.28 -0.157003
2.29 -0.178575
2.3 -0.199197
2.31 -0.218517
2.32 -0.236224
2.33 -0.252051
2.34 -0.265792
2.35 -0.277314
2.36 -0.286476
2.37 -0.293191
2.38 -0.297748
2.39 -0.30031
2.4 -0.301095
2.41 -0.300369
2.42 -0.298431
2.43 -0.295558
2.44 -0.29218
2.45 -0.288653
2.46 -0.285294
2.47 -0.28239
2.48 -0.280196
2.49 -0.278945
2.5 -0.278885
2.51 -0.280016
2.52 -0.282373
2.53 -0.285936
2.54 -0.290633
2.55 -0.296346
2.56 -0.302969
2.57 -0.310252
2.58 -0.317942
2.59 -0.325812
2.6 -0.33363
2.61 -0.341174
2.62 -0.348227
2.63 -0.354525
2.64 -0.359976
2.65 -0.36447
2.66 -0.367935
2.67 -0.370338
2.68 -0.371684
2.69 -0.371955
2.7 -0.371254
2.71 -0.369746
2.72 -0.367561
2.73 -0.364843
2.74 -0.361747
2.75 -0.358425
2.76 -0.355031
2.77 -0.351721
2.78 -0.348606
2.79 -0.345778
2.8 -0.343302
2.81 -0.341217
2.82 -0.339558
2.83 -0.338308
2.84 -0.3374
2.85 -0.336771
2.86 -0.336345
2.87 -0.336031
2.88 -0.335737
2.89 -0.335347
2.9 -0.334769
2.91 -0.33392
2.92 -0.332732
2.93 -0.331148
2.94 -0.329128
2.95 -0.326629
2.96 -0.323628
2.97 -0.320172
2.98 -0.31628
2.99 -0.311982
3 -0.30731
3.01 -0.302296
3.02 -0.296938
3.03 -0.291279
3.04 -0.285323
3.05 -0.279056
3.06 -0.272441
3.07 -0.265419
3.08 -0.257895
3.09 -0.249722
3.1 -0.240821
3.11 -0.231054
3.12 -0.220276
3.13 -0.208336
3.14 -0.195082
3.15 -0.180236
3.16 -0.163731
3.17 -0.14551
3.18 -0.125496
3.19 -0.103645
3.2 -0.0799468
3.21 -0.0543978
3.22 -0.0269545
3.23 0.00208164
3.24 0.0325418
3.25 0.064218
3.26 0.0968669
3.27 0.130215
3.28 0.163968
3.29 0.197752
3.3 0.231223
3.31 0.26405
3.32 0.295911
3.33 0.326498
3.34 0.355506
3.35 0.382469
3.36 0.407343
3.37 0.429951
3.38 0.450152
3.39 0.467851
3.4 0.482993
3.41 0.495403
3.42 0.505136
3.43 0.512399
3.44 0.517288
3.45 0.519925
3.46 0.520445
3.47 0.519001
3.48 0.51556
3.49 0.510501
3.5 0.503981
3.51 0.496145
3.52 0.487128
3.53 0.477048
3.54 0.465966
3.55 0.453972
3.56 0.441199
3.57 0.427705
3.58 0.413541
3.59 0.39875
3.6 0.383372
3.61 0.367396
3.62 0.350923
3.63 0.334017
3.64 0.316746
3.65 0.299191
3.66 0.28145
3.67 0.263639
3.68 0.245913
3.69 0.228426
3.7 0.21134
3.71 0.19483
3.72 0.179075
3.73 0.164258
3.74 0.150682
3.75 0.138463
3.76 0.127733
3.77 0.118638
3.78 0.111301
3.79 0.105822
3.8 0.102333
3.81 0.100998
3.82 0.101653
3.83 0.104279
3.84 0.108826
3.85 0.11522
3.86 0.123362
3.87 0.133256
3.88 0.14467
3.89 0.157398
3.9 0.171283
3.91 0.186168
3.92 0.201895
3.93 0.218323
3.94 0.235335
3.95 0.252739
3.96 0.270419
3.97 0.288275
3.98 0.306221
3.99 0.324182
4 0.342092
4.01 0.359894
4.02 0.37755
4.03 0.395022
4.04 0.412272
4.05 0.429262
4.06 0.445945
4.07 0.462225
4.08 0.478073
4.09 0.493414
4.1 0.508161
4.11 0.522215
4.12 0.535466
4.13 0.547732
4.14 0.558871
4.15 0.568804
4.16 0.577403
4.17 0.58454
4.18 0.590097
4.19 0.593968
4.2 0.595849
4.21 0.59586
4.22 0.593959
4.23 0.590125
4.24 0.584359
4.25 0.576688
4.26 0.567075
4.27 0.555575
4.28 0.542414
4.29 0.52771
4.3 0.511594
4.31 0.494206
4.32 0.475692
4.33 0.456115
4.34 0.435717
4.35 0.414645
4.36 0.393022
4.37 0.370954
4.38 0.34853
4.39 0.325813
4.4 0.302851
4.41 0.279694
4.42 0.256357
4.43 0.232836
4.44 0.209118
4.45 0.185183
4.46 0.160981
4.47 0.136499
4.48 0.111726
4.49 0.08665
4.5 0.0612746
4.51 0.0356179
4.52 0.00971116
4.53 -0.0163913
4.54 -0.0425862
4.55 -0.068772
4.56 -0.0948288
4.57 -0.120621
4.58 -0.145998
4.59 -0.170745
4.6 -0.194701
4.61 -0.217726
4.62 -0.239666
4.63 -0.260376
4.64 -0.27973
4.65 -0.297595
4.66 -0.313751
4.67 -0.328299
4.68 -0.341224
4.69 -0.352537
4.7 -0.362283
4.71 -0.370536
4.72 -0.37731
4.73 -0.38278
4.74 -0.387163
4.75 -0.390624
4.76 -0.393338
4.77 -0.395482
4.78 -0.397232
4.79 -0.398752
4.8 -0.400237
4.81 -0.40182
4.82 -0.403616
4.83 -0.405713
4.84 -0.408174
4.85 -0.411056
4.86 -0.414365
4.87 -0.418049
4.88 -0.422057
4.89 -0.426317
4.9 -0.430738
4.91 -0.435215
4.92 -0.439616
4.93 -0.443817
4.94 -0.4477
4.95 -0.451153
4.96 -0.454074
4.97 -0.456375
4.98 -0.457945
4.99 -0.458708
5 -0.458681
5.01 -0.457853
5.02 -0.456234
5.03 -0.453848
5.04 -0.450737
5.05 -0.446897
5.06 -0.442456
5.07 -0.437499
5.08 -0.432103
5.09 -0.426343
5.1 -0.420291
5.11 -0.414004
5.12 -0.407539
5.13 -0.400952
5.14 -0.394273
5.15 -0.387518
5.16 -0.38069
5.17 -0.373781
5.18 -0.366762
5.19 -0.359608
5.2 -0.352289
5.21 -0.34477
5.22 -0.337018
5.23 -0.329003
5.24 -0.320695
5.25 -0.312057
5.26 -0.303118
5.27 -0.293891
5.28 -0.284405
5.29 -0.2747
5.3 -0.264833
5.31 -0.254871
5.32 -0.244911
5.33 -0.235046
5.34 -0.225373
5.35 -0.215991
5.36 -0.206998
5.37 -0.198497
5.38 -0.190639
5.39 -0.183445
5.4 -0.176977
5.41 -0.171283
5.42 -0.166393
5.43 -0.162318
5.44 -0.159107
5.45 -0.156718
5.46 -0.155065
5.47 -0.154091
5.48 -0.153725
5.49 -0.153887
5.5 -0.154488
5.51 -0.155465
5.52 -0.156676
5.53 -0.158028
5.54 -0.159436
5.55 -0.160817
5.56 -0.162101
5.57 -0.163215
5.58 -0.164098
5.59 -0.164724
5.6 -0.165065
5.61 -0.165104
5.62 -0.164829
5.63 -0.164238
5.64 -0.163296
5.65 -0.162038
5.66 -0.160467
5.67 -0.158583
5.68 -0.15638
5.69 -0.153846
5.7 -0.150947
5.71 -0.14764
5.72 -0.143914
5.73 -0.139728
5.74 -0.135031
5.75 -0.12977
5.76 -0.123891
5.77 -0.117267
5.78 -0.109893
5.79 -0.101738
5.8 -0.0927661
5.81 -0.0829549
5.82 -0.0722945
5.83 -0.060765
5.84 -0.0483552
5.85 -0.0351839
5.86 -0.0213183
5.87 -0.00684357
5.88 0.00813807
5.89 0.0235095
5.9 0.0391511
5.91 0.0548908
5.92 0.0705752
5.93 0.0860572
5.94 0.101193
5.95 0.115845
5.96 0.129872
5.97 0.143095
5.98 0.155486
5.99 0.166976
6 0.177519
6.01 0.187092
6.02 0.195696
6.03 0.203286
6.04 0.209948
6.05 0.215792
6.06 0.220902
6.07 0.225376
6.08 0.229319
6.09 0.232838
6.1 0.236026
6.11 0.239028
6.12 0.241937
6.13 0.244833
6.14 0.247778
6.15 0.250817
6.16 0.253979
6.17 0.257259
6.18 0.260621
6.19 0.264016
6.2 0.267372
6.21 0.2706
6.22 0.273596
6.23 0.276188
6.24 0.278281
6.25 0.279747
6.26 0.280459
6.27 0.280297
6.28 0.279151
6.29 0.276863
6.3 0.273331
6.31 0.268572
6.32 0.262554
6.33 0.25527
6.34 0.246734
6.35 0.236985
6.36 0.225973
6.37 0.2139
6.38 0.200883
6.39 0.187043
6.4 0.172508
6.41 0.157417
6.42 0.1419
6.43 0.126109
6.44 0.110209
6.45 0.0943275
6.46 0.0785809
6.47 0.0630722
6.48 0.0478889
6.49 0.0331439
6.5 0.018864
6.51 0.00506983
6.52 -0.00822631
6.53 -0.0210285
6.54 -0.0333554
6.55 -0.0452266
6.56 -0.0566687
6.57 -0.0677715
6.58 -0.0785914
6.59 -0.0891867
6.6 -0.0996144
6.61 -0.109929
6.62 -0.120176
6.63 -0.130403
6.64 -0.14064
6.65 -0.150905
6.66 -0.161202
6.67 -0.171524
6.68 -0.181852
6.69 -0.192145
6.7 -0.202359
6.71 -0.212436
6.72 -0.222314
6.73 -0.231918
6.74 -0.241172
6.75 -0.249956
6.76 -0.258184
6.77 -0.265792
6.78 -0.272695
6.79 -0.278811
6.8 -0.284063
6.81 -0.288368
6.82 -0.291551
6.83 -0.293656
6.84 -0.294632
6.85 -0.294435
6.86 -0.293028
6.87 -0.290383
6.88 -0.286402
6.89 -0.281079
6.9 -0.27448
6.91 -0.266609
6.92 -0.257478
6.93 -0.247101
6.94 -0.235504
6.95 -0.22258
6.96 -0.208501
6.97 -0.193309
6.98 -0.177046
6.99 -0.15976
7 -0.141499
7.01 -0.122274
7.02 -0.102133
7.03 -0.0811937
7.04 -0.0595153
7.05 -0.0371573
7.06 -0.0141805
7.07 0.0093541
7.08 0.0334295
7.09 0.0579328
7.1 0.0827952
7.11 0.107954
7.12 0.133347
7.13 0.158911
7.14 0.184582
7.15 0.21029
7.16 0.235958
7.17 0.26152
7.18 0.286903
7.19 0.312035
7.2 0.336839
7.21 0.36119
7.22 0.385023
7.23 0.408261
7.24 0.430813
7.25 0.452586
7.26 0.473482
7.27 0.493375
7.28 0.512085
7.29 0.529599
7.3 0.545821
7.31 0.560651
7.32 0.573998
7.33 0.585773
7.34 0.595754
7.35 0.603932
7.36 0.610304
7.37 0.61482
7.38 0.617437
7.39 0.618128
7.4 0.616844
7.41 0.613425
7.42 0.608081
7.43 0.600839
7.44 0.591744
7.45 0.58085
7.46 0.568222
7.47 0.553829
7.48 0.537807
7.49 0.520332
7.5 0.501505
7.51 0.481434
7.52 0.46023
7.53 0.438001
7.54 0.414783
7.55 0.3908
7.56 0.366167
7.57 0.340998
7.58 0.315404
7.59 0.289497
7.6 0.263377
7.61 0.237169
7.62 0.210986
7.63 0.184934
7.64 0.159113
7.65 0.133624
7.66 0.108567
7.67 0.0841137
7.68 0.0603144
7.69 0.0372638
7.7 0.0150572
7.71 -0.0062127
7.72 -0.0264567
7.73 -0.0455332
7.74 -0.0633275
7.75 -0.0798481
7.76 -0.0950353
7.77 -0.10884
7.78 -0.121223
7.79 -0.132161
7.8 -0.141497
7.81 -0.14936
7.82 -0.155797
7.83 -0.160847
7.84 -0.164562
7.85 -0.16701
7.86 -0.168228
7.87 -0.168274
7.88 -0.167342
7.89 -0.165542
7.9 -0.162984
7.91 -0.15978
7.92 -0.156043
7.93 -0.15185
7.94 -0.14734
7.95 -0.142614
7.96 -0.137749
7.97 -0.132813
7.98 -0.127856
7.99 -0.12292
8 -0.118033
8.01 -0.113201
8.02 -0.108419
8.03 -0.103674
8.04 -0.0989426
8.05 -0.0941965
8.06 -0.0893969
8.07 -0.0845087
8.08 -0.0795034
8.09 -0.0743562
8.1 -0.0690491
8.11 -0.0635738
8.12 -0.0579304
8.13 -0.0521232
8.14 -0.0461993
8.15 -0.0402013
8.16 -0.034183
8.17 -0.0282084
8.18 -0.0223499
8.19 -0.0167047
8.2 -0.0113631
8.21 -0.00639631
8.22 -0.00188231
8.23 0.00210771
8.24 0.00551218
8.25 0.00827955
8.26 0.0102994
8.27 0.0116317
8.28 0.0122815
8.29 0.0122726
8.3 0.0116469
8.31 0.0104639
8.32 0.00877734
8.33 0.00669059
8.34 0.00433495
8.35 0.00182002
8.36 -0.000741497
8.37 -0.00323764
8.38 -0.00556108
8.39 -0.00757367
8.4 -0.00921059
8.41 -0.0104076
8.42 -0.0111171
8.43 -0.0113124
8.44 -0.0109887
8.45 -0.0101433
8.46 -0.00881331
8.47 -0.00710153
8.48 -0.00509386
8.49 -0.00289217
8.5 -0.000611126
8.51 0.00162556
8.52 0.00365927
8.53 0.00536048
8.54 0.00660891
8.55 0.0072898
8.56 0.00730119
8.57 0.00655726
8.58 0.00496132
8.59 0.00242214
8.6 -0.00100823
8.61 -0.00532376
8.62 -0.0104959
8.63 -0.016475
8.64 -0.0231918
8.65 -0.0306087
8.66 -0.0385749
8.67 -0.0469604
8.68 -0.0556494
8.69 -0.0645257
8.7 -0.0734762
8.71 -0.0823917
8.72 -0.0911565
8.73 -0.0996975
8.74 -0.107953
8.75 -0.115878
8.76 -0.123447
8.77 -0.130653
8.78 -0.13748
8.79 -0.143973
8.8 -0.150188
8.81 -0.15618
8.82 -0.162007
8.83 -0.167733
8.84 -0.173423
8.85 -0.179144
8.86 -0.18495
8.87 -0.19088
8.88 -0.196961
8.89 -0.203204
8.9 -0.209604
8.91 -0.216146
8.92 -0.222783
8.93 -0.229451
8.94 -0.23608
8.95 -0.24259
8.96 -0.248892
8.97 -0.254894
8.98 -0.260448
8.99 -0.265502
9 -0.269975
9.01 -0.273798
9.02 -0.276914
9.03 -0.279283
9.04 -0.280842
9.05 -0.281585
9.06 -0.281582
9.07 -0.280874
9.08 -0.279522
9.09 -0.2776
9.1 -0.275196
9.11 -0.272379
9.12 -0.269303
9.13 -0.26608
9.14 -0.262815
9.15 -0.259609
9.16 -0.256552
9.17 -0.253735
9.18 -0.251237
9.19 -0.24908
9.2 -0.247286
9.21 -0.245858
9.22 -0.244777
9.23 -0.24401
9.24 -0.243522
9.25 -0.24322
9.26 -0.243019
9.27 -0.242834
9.28 -0.242575
9.29 -0.242156
9.3 -0.241482
9.31 -0.240453
9.32 -0.23903
9.33 -0.237169
9.34 -0.23484
9.35 -0.232032
9.36 -0.228754
9.37 -0.224997
9.38 -0.220836
9.39 -0.216349
9.4 -0.211611
9.41 -0.206707
9.42 -0.201729
9.43 -0.196772
9.44 -0.191948
9.45 -0.187337
9.46 -0.183015
9.47 -0.179041
9.48 -0.17546
9.49 -0.172299
9.5 -0.169591
9.51 -0.167304
9.52 -0.165377
9.53 -0.163746
9.54 -0.162329
9.55 -0.16103
9.56 -0.159735
9.57 -0.158293
9.58 -0.156579
9.59 -0.154458
9.6 -0.151804
9.61 -0.148491
9.62 -0.144408
9.63 -0.139394
9.64 -0.133363
9.65 -0.126304
9.66 -0.118176
9.67 -0.108962
9.68 -0.0986659
9.69 -0.0873107
9.7 -0.0748306
9.71 -0.0614121
9.72 -0.047138
9.73 -0.0321017
9.74 -0.0164055
9.75 -0.000157747
9.76 0.0165469
9.77 0.0335858
9.78 0.0508252
9.79 0.0681653
9.8 0.0855147
9.81 0.102792
9.82 0.119928
9.83 0.136837
9.84 0.15349
9.85 0.169856
9.86 0.185913
9.87 0.201649
9.88 0.217055
9.89 0.232118
9.9 0.246828
9.91 0.261214
9.92 0.275278
9.93 0.289018
9.94 0.302429
9.95 0.3155
9.96 0.328181
9.97 0.340467
9.98 0.352338
9.99 0.363757
10 0.374682
10.01 0.385069
10.02 0.394853
10.03 0.403945
10.04 0.412351
10.05 0.420031
10.06 0.426949
10.07 0.433079
10.08 0.438399
10.09 0.442832
10.1 0.446418
10.11 0.4492
10.12 0.451202
10.13 0.452458
10.14 0.453011
10.15 0.452904
10.16 0.452157
10.17 0.450899
10.18 0.4492
10.19 0.447134
10.2 0.44477
10.21 0.442181
10.22 0.439427
10.23 0.436582
10.24 0.433711
10.25 0.430861
10.26 0.428073
10.27 0.425382
10.28 0.422813
10.29 0.4204
10.3 0.418138
10.31 0.416026
10.32 0.41406
10.33 0.412229
10.34 0.410516
10.35 0.408905
10.36 0.407367
10.37 0.405868
10.38 0.404377
10.39 0.402858
10.4 0.401276
10.41 0.399592
10.42 0.397743
10.43 0.395696
10.44 0.393406
10.45 0.390823
10.46 0.387894
10.47 0.384565
10.48 0.380754
10.49 0.376384
10.5 0.371428
10.51 0.365826
10.52 0.35952
10.53 0.352456
10.54 0.344582
10.55 0.335762
10.56 0.326029
10.57 0.31537
10.58 0.303769
10.59 0.291222
10.6 0.277741
10.61 0.263316
10.62 0.247959
10.63 0.231799
10.64 0.21491
10.65 0.197378
10.66 0.1793
10.67 0.160787
10.68 0.141938
10.69 0.122912
10.7 0.103842
10.71 0.0848535
10.72 0.0660663
10.73 0.0475935
10.74 0.0295512
10.75 0.0120705
10.76 -0.00481935
10.77 -0.0210679
10.78 -0.0366446
10.79 -0.0515389
10.8 -0.0657611
10.81 -0.079294
10.82 -0.0922234
10.83 -0.104643
10.84 -0.116638
10.85 -0.128302
10.86 -0.139738
10.87 -0.151052
10.88 -0.162362
10.89 -0.173779
10.9 -0.185396
10.91 -0.197291
10.92 -0.209529
10.93 -0.222158
10.94 -0.235235
10.95 -0.248754
10.96 -0.262674
10.97 -0.276951
10.98 -0.291524
10.99 -0.30631
11 -0.32121
11.01 -0.336099
11.02 -0.350842
11.03 -0.365308
11.04 -0.379365
11.05 -0.392884
11.06 -0.405739
11.07 -0.417765
11.08 -0.428844
11.09 -0.438939
11.1 -0.447984
11.11 -0.455933
11.12 -0.46276
11.13 -0.468455
11.14 -0.472912
11.15 -0.47628
11.16 -0.478617
11.17 -0.479983
11.18 -0.48045
11.19 -0.480096
11.2 -0.478972
11.21 -0.477155
11.22 -0.474774
11.23 -0.471901
11.24 -0.468597
11.25 -0.464913
11.26 -0.460889
11.27 -0.45652
11.28 -0.451842
11.29 -0.446855
11.3 -0.441543
11.31 -0.435876
11.32 -0.429819
11.33 -0.42331
11.34 -0.416271
11.35 -0.40869
11.36 -0.400518
11.37 -0.391711
11.38 -0.382234
11.39 -0.372058
11.4 -0.361102
11.41 -0.349405
11.42 -0.336998
11.43 -0.323906
11.44 -0.310165
11.45 -0.295825
11.46 -0.280935
11.47 -0.265542
11.48 -0.249775
11.49 -0.233717
11.5 -0.217458
11.51 -0.201083
11.52 -0.184681
11.53 -0.168345
11.54 -0.152159
11.55 -0.136191
11.56 -0.120502
11.57 -0.105143
11.58 -0.0901574
11.59 -0.0755851
11.6 -0.0614922
11.61 -0.0478504
11.62 -0.0346679
11.63 -0.0219473
11.64 -0.00968711
11.65 0.00211713
11.66 0.0134418
11.67 0.0243002
11.68 0.0347194
11.69 0.0447015
11.7 0.0542456
11.71 0.0633476
11.72 0.0719991
11.73 0.0801363
11.74 0.0877976
11.75 0.0949679
11.76 0.101631
11.77 0.107773
11.78 0.11338
11.79 0.118411
11.8 0.122856
11.81 0.126749
11.82 0.130095
11.83 0.132907
11.84 0.135205
11.85 0.137014
11.86 0.13832
11.87 0.139211
11.88 0.139734
11.89 0.139932
11.9 0.139854
11.91 0.139543
11.92 0.139038
11.93 0.138377
11.94 0.137605
11.95 0.136746
11.96 0.135815
11.97 0.134815
11.98 0.13374
11.99 0.132561
12 0.131252
12.01 0.129771
12.02 0.128067
12.03 0.126081
12.04 0.123747
12.05 0.120976
12.06 0.117661
12.07 0.113762
12.08 0.109208
12.09 0.103933
12.1 0.097875
12.11 0.0909831
12.12 0.0831374
12.13 0.0743542
12.14 0.0646473
12.15 0.0540167
12.16 0.0424763
12.17 0.0300538
12.18 0.0167731
