# xPDFsuite Configuration #
[PDF]
wavelength = 0.1
dataformat = QA
inputfile = BiMsol6_insitu_700 C-00040.xy
backgroundfile = Quartz2mm-dist500-00000.xy
mode = xray
bgscale = 0.0042
composition = Bi2Fe4O9
outputtype = gr
qmaxinst = 24.998449118
qmin = 0.1
qmax = 21.4986662415
rmax = 80.0
rmin = 0.0
rstep = 0.01
rpoly = 0.9

[Misc]
inputdir = C:/Data/Seafile/CPH/Beamtime/Desy Oct 20/In situ data/Processed/BiMsol6/PDF
savedir = C:/Data/Seafile/CPH/Beamtime/Desy Oct 20/In situ data/PDF/BiMsol6
backgroundfilefull = C:/Data/Seafile/CPH/Beamtime/Desy Oct 20/In situ data/Processed/Standard_Empty_Cap/Quartz2mm-dist500-00000.xy

#### start data
#S 1
#L r($\AA$)  G($\AA^{-2}$)
0 0
0.01 0.00696543
0.02 0.0135432
0.03 0.0194013
0.04 0.024242
0.05 0.0278149
0.06 0.0299289
0.07 0.0303746
0.08 0.0290902
0.09 0.0262279
0.1 0.0219124
0.11 0.016338
0.12 0.00975993
0.13 0.00248316
0.14 -0.00515066
0.15 -0.0127078
0.16 -0.0198227
0.17 -0.0261522
0.18 -0.031388
0.19 -0.0352715
0.2 -0.0375371
0.21 -0.0380012
0.22 -0.0367644
0.23 -0.0338932
0.24 -0.0295371
0.25 -0.0239241
0.26 -0.0173515
0.27 -0.0101549
0.28 -0.00282662
0.29 0.00419623
0.3 0.0104892
0.31 0.0156483
0.32 0.0193094
0.33 0.021104
0.34 0.0206712
0.35 0.0180591
0.36 0.0132597
0.37 0.00637425
0.38 -0.00238546
0.39 -0.0126999
0.4 -0.0242009
0.41 -0.0362455
0.42 -0.0482027
0.43 -0.0594325
0.44 -0.0692727
0.45 -0.0770643
0.46 -0.0821124
0.47 -0.0835251
0.48 -0.0811065
0.49 -0.074498
0.5 -0.0634683
0.51 -0.047929
0.52 -0.0279439
0.53 -0.00345585
0.54 0.0249577
0.55 0.0565414
0.56 0.0905913
0.57 0.126287
0.58 0.162716
0.59 0.198883
0.6 0.23352
0.61 0.265653
0.62 0.294299
0.63 0.318541
0.64 0.337559
0.65 0.35066
0.66 0.356874
0.67 0.355833
0.68 0.347757
0.69 0.33269
0.7 0.310869
0.71 0.282714
0.72 0.248818
0.73 0.209457
0.74 0.166179
0.75 0.120003
0.76 0.0720039
0.77 0.0232899
0.78 -0.0250323
0.79 -0.0717613
0.8 -0.115712
0.81 -0.156112
0.82 -0.19221
0.83 -0.223402
0.84 -0.249245
0.85 -0.269473
0.86 -0.283409
0.87 -0.291689
0.88 -0.294682
0.89 -0.292825
0.9 -0.286683
0.91 -0.276927
0.92 -0.264226
0.93 -0.249418
0.94 -0.233537
0.95 -0.217388
0.96 -0.201732
0.97 -0.187267
0.98 -0.174597
0.99 -0.164473
1 -0.157141
1.01 -0.152762
1.02 -0.15142
1.03 -0.153078
1.04 -0.157574
1.05 -0.164703
1.06 -0.174181
1.07 -0.185335
1.08 -0.197671
1.09 -0.21067
1.1 -0.223814
1.11 -0.236601
1.12 -0.248472
1.13 -0.259022
1.14 -0.267974
1.15 -0.275106
1.16 -0.280288
1.17 -0.283484
1.18 -0.284716
1.19 -0.284004
1.2 -0.281776
1.21 -0.278326
1.22 -0.273993
1.23 -0.26914
1.24 -0.264144
1.25 -0.25941
1.26 -0.255314
1.27 -0.25213
1.28 -0.250082
1.29 -0.249329
1.3 -0.249954
1.31 -0.251971
1.32 -0.255426
1.33 -0.260001
1.34 -0.265465
1.35 -0.271536
1.36 -0.277892
1.37 -0.284185
1.38 -0.290011
1.39 -0.294973
1.4 -0.298784
1.41 -0.301172
1.42 -0.301926
1.43 -0.300899
1.44 -0.298021
1.45 -0.293104
1.46 -0.28646
1.47 -0.27829
1.48 -0.268854
1.49 -0.258475
1.5 -0.247523
1.51 -0.236417
1.52 -0.22565
1.53 -0.215648
1.54 -0.206812
1.55 -0.199501
1.56 -0.194021
1.57 -0.190612
1.58 -0.189667
1.59 -0.191062
1.6 -0.194719
1.61 -0.200503
1.62 -0.208193
1.63 -0.217485
1.64 -0.228033
1.65 -0.239371
1.66 -0.250921
1.67 -0.262179
1.68 -0.272638
1.69 -0.281807
1.7 -0.28923
1.71 -0.294276
1.72 -0.296715
1.73 -0.296369
1.74 -0.293094
1.75 -0.286839
1.76 -0.277651
1.77 -0.265608
1.78 -0.250821
1.79 -0.233878
1.8 -0.215183
1.81 -0.19519
1.82 -0.17439
1.83 -0.153291
1.84 -0.132455
1.85 -0.112421
1.86 -0.0936175
1.87 -0.0764264
1.88 -0.0611618
1.89 -0.0480591
1.9 -0.037303
1.91 -0.0291579
1.92 -0.0233311
1.93 -0.0196846
1.94 -0.0180031
1.95 -0.0180051
1.96 -0.0193545
1.97 -0.0217138
1.98 -0.0246068
1.99 -0.0275851
2 -0.030261
2.01 -0.0322783
2.02 -0.0333267
2.03 -0.0331496
2.04 -0.0313977
2.05 -0.0281314
2.06 -0.0233491
2.07 -0.017131
2.08 -0.00963629
2.09 -0.00109732
2.1 0.00821083
2.11 0.0178792
2.12 0.0274683
2.13 0.0365611
2.14 0.0447367
2.15 0.051586
2.16 0.0567276
2.17 0.0595665
2.18 0.0600124
2.19 0.0578838
2.2 0.0530604
2.21 0.0455036
2.22 0.0352584
2.23 0.0223458
2.24 0.00695193
2.25 -0.0104455
2.26 -0.029491
2.27 -0.0497819
2.28 -0.0708818
2.29 -0.0923346
2.3 -0.113624
2.31 -0.134263
2.32 -0.15384
2.33 -0.171981
2.34 -0.188365
2.35 -0.202734
2.36 -0.214817
2.37 -0.22438
2.38 -0.231586
2.39 -0.236484
2.4 -0.239193
2.41 -0.239895
2.42 -0.238823
2.43 -0.236151
2.44 -0.232319
2.45 -0.227703
2.46 -0.22264
2.47 -0.21746
2.48 -0.212475
2.49 -0.207985
2.5 -0.204313
2.51 -0.201598
2.52 -0.199979
2.53 -0.19954
2.54 -0.200316
2.55 -0.202288
2.56 -0.205468
2.57 -0.209689
2.58 -0.214751
2.59 -0.220477
2.6 -0.22667
2.61 -0.233125
2.62 -0.239633
2.63 -0.24596
2.64 -0.251924
2.65 -0.257367
2.66 -0.262161
2.67 -0.266204
2.68 -0.269429
2.69 -0.271743
2.7 -0.273158
2.71 -0.273749
2.72 -0.273574
2.73 -0.272708
2.74 -0.271241
2.75 -0.269274
2.76 -0.266876
2.77 -0.264203
2.78 -0.261347
2.79 -0.25839
2.8 -0.255397
2.81 -0.252415
2.82 -0.249477
2.83 -0.246593
2.84 -0.243749
2.85 -0.240918
2.86 -0.23806
2.87 -0.235127
2.88 -0.232066
2.89 -0.228796
2.9 -0.225278
2.91 -0.221473
2.92 -0.217346
2.93 -0.212881
2.94 -0.208072
2.95 -0.20292
2.96 -0.19745
2.97 -0.191734
2.98 -0.185833
2.99 -0.179816
3 -0.173761
3.01 -0.167747
3.02 -0.161873
3.03 -0.156209
3.04 -0.150812
3.05 -0.145728
3.06 -0.140986
3.07 -0.136594
3.08 -0.132549
3.09 -0.128824
3.1 -0.125328
3.11 -0.12198
3.12 -0.11868
3.13 -0.115313
3.14 -0.111756
3.15 -0.107842
3.16 -0.10344
3.17 -0.0984374
3.18 -0.0927202
3.19 -0.0861895
3.2 -0.0787651
3.21 -0.0703682
3.22 -0.0608896
3.23 -0.0504213
3.24 -0.0389887
3.25 -0.0266425
3.26 -0.0134566
3.27 0.000474721
3.28 0.0150775
3.29 0.0301903
3.3 0.0456542
3.31 0.0613361
3.32 0.0771072
3.33 0.0928478
3.34 0.10845
3.35 0.123794
3.36 0.138837
3.37 0.153539
3.38 0.167888
3.39 0.181894
3.4 0.19559
3.41 0.209018
3.42 0.222264
3.43 0.235429
3.44 0.248607
3.45 0.261894
3.46 0.27538
3.47 0.289149
3.48 0.303315
3.49 0.317888
3.5 0.332885
3.51 0.348299
3.52 0.364093
3.53 0.380199
3.54 0.396526
3.55 0.412929
3.56 0.429238
3.57 0.445278
3.58 0.460856
3.59 0.475769
3.6 0.489813
3.61 0.502646
3.62 0.514154
3.63 0.524172
3.64 0.532542
3.65 0.539132
3.66 0.54384
3.67 0.546516
3.68 0.547055
3.69 0.545617
3.7 0.542248
3.71 0.537027
3.72 0.530061
3.73 0.521489
3.74 0.511349
3.75 0.499942
3.76 0.487493
3.77 0.474197
3.78 0.460249
3.79 0.44584
3.8 0.431147
3.81 0.416346
3.82 0.401602
3.83 0.387036
3.84 0.372744
3.85 0.3588
3.86 0.345256
3.87 0.332177
3.88 0.319549
3.89 0.307342
3.9 0.295531
3.91 0.284077
3.92 0.272934
3.93 0.262057
3.94 0.251408
3.95 0.240915
3.96 0.23054
3.97 0.220249
3.98 0.210019
3.99 0.199837
4 0.189703
4.01 0.179622
4.02 0.169609
4.03 0.159686
4.04 0.149881
4.05 0.140221
4.06 0.13074
4.07 0.121487
4.08 0.112467
4.09 0.103697
4.1 0.0951855
4.11 0.086936
4.12 0.0789425
4.13 0.0712044
4.14 0.0636958
4.15 0.0563747
4.16 0.0492085
4.17 0.0421627
4.18 0.0352025
4.19 0.0282952
4.2 0.0214126
4.21 0.014529
4.22 0.00763238
4.23 0.000720305
4.24 -0.00619926
4.25 -0.0131077
4.26 -0.0199721
4.27 -0.026745
4.28 -0.0333805
4.29 -0.0398236
4.3 -0.0460153
4.31 -0.0518958
4.32 -0.0574065
4.33 -0.062445
4.34 -0.0669977
4.35 -0.0710365
4.36 -0.0745392
4.37 -0.0774976
4.38 -0.0799183
4.39 -0.0818058
4.4 -0.0831857
4.41 -0.0841549
4.42 -0.0847826
4.43 -0.0851486
4.44 -0.0853407
4.45 -0.0854517
4.46 -0.0855859
4.47 -0.0858452
4.48 -0.086314
4.49 -0.0870679
4.5 -0.0881694
4.51 -0.0896663
4.52 -0.0916008
4.53 -0.094011
4.54 -0.0968451
4.55 -0.100071
4.56 -0.103638
4.57 -0.107479
4.58 -0.111514
4.59 -0.115649
4.6 -0.119765
4.61 -0.123754
4.62 -0.127511
4.63 -0.130936
4.64 -0.133937
4.65 -0.136425
4.66 -0.13828
4.67 -0.139511
4.68 -0.140094
4.69 -0.140026
4.7 -0.139322
4.71 -0.138021
4.72 -0.136144
4.73 -0.133787
4.74 -0.131065
4.75 -0.128075
4.76 -0.124924
4.77 -0.121718
4.78 -0.118565
4.79 -0.115594
4.8 -0.112889
4.81 -0.110528
4.82 -0.108577
4.83 -0.107085
4.84 -0.106085
4.85 -0.10562
4.86 -0.105686
4.87 -0.10623
4.88 -0.107216
4.89 -0.108594
4.9 -0.110306
4.91 -0.112287
4.92 -0.114484
4.93 -0.116798
4.94 -0.119164
4.95 -0.12152
4.96 -0.123813
4.97 -0.126001
4.98 -0.128044
4.99 -0.129914
5 -0.131615
5.01 -0.133151
5.02 -0.134534
5.03 -0.135787
5.04 -0.136934
5.05 -0.138003
5.06 -0.139036
5.07 -0.140063
5.08 -0.141109
5.09 -0.142197
5.1 -0.143337
5.11 -0.144536
5.12 -0.145788
5.13 -0.14707
5.14 -0.148356
5.15 -0.149611
5.16 -0.150793
5.17 -0.151856
5.18 -0.152732
5.19 -0.153378
5.2 -0.153754
5.21 -0.153823
5.22 -0.153553
5.23 -0.152925
5.24 -0.151922
5.25 -0.150529
5.26 -0.148801
5.27 -0.146774
5.28 -0.144498
5.29 -0.142032
5.3 -0.139447
5.31 -0.13682
5.32 -0.134244
5.33 -0.1318
5.34 -0.129564
5.35 -0.127606
5.36 -0.125983
5.37 -0.124747
5.38 -0.123967
5.39 -0.123611
5.4 -0.123666
5.41 -0.124103
5.42 -0.124874
5.43 -0.125912
5.44 -0.127141
5.45 -0.128449
5.46 -0.129722
5.47 -0.130849
5.48 -0.131721
5.49 -0.13223
5.5 -0.132276
5.51 -0.131702
5.52 -0.130497
5.53 -0.128613
5.54 -0.126025
5.55 -0.122732
5.56 -0.118753
5.57 -0.114103
5.58 -0.108859
5.59 -0.103152
5.6 -0.0970926
5.61 -0.0908014
5.62 -0.0844093
5.63 -0.0780504
5.64 -0.0718902
5.65 -0.0660506
5.66 -0.0606432
5.67 -0.0557649
5.68 -0.0514931
5.69 -0.0478824
5.7 -0.0449933
5.71 -0.042846
5.72 -0.0413598
5.73 -0.0404797
5.74 -0.0401273
5.75 -0.0402036
5.76 -0.0405932
5.77 -0.0411723
5.78 -0.0417745
5.79 -0.0422581
5.8 -0.0424888
5.81 -0.0423414
5.82 -0.0417045
5.83 -0.0404629
5.84 -0.0385051
5.85 -0.0358412
5.86 -0.0324581
5.87 -0.0283694
5.88 -0.0236158
5.89 -0.0182634
5.9 -0.0123667
5.91 -0.0060791
5.92 0.000456095
5.93 0.00710153
5.94 0.0137153
5.95 0.0201563
5.96 0.0262797
5.97 0.0319156
5.98 0.0369926
5.99 0.0414284
6 0.0451648
6.01 0.0481696
6.02 0.0504376
6.03 0.0519419
6.04 0.0527664
6.05 0.0530215
6.06 0.0528091
6.07 0.0522482
6.08 0.0514711
6.09 0.0506189
6.1 0.0498587
6.11 0.049335
6.12 0.049178
6.13 0.0495041
6.14 0.0504116
6.15 0.0519774
6.16 0.0543007
6.17 0.0573992
6.18 0.0612253
6.19 0.0657427
6.2 0.0708889
6.21 0.0765778
6.22 0.0827026
6.23 0.0891599
6.24 0.0957621
6.25 0.102363
6.26 0.108816
6.27 0.114976
6.28 0.120707
6.29 0.125851
6.3 0.13028
6.31 0.133949
6.32 0.1368
6.33 0.1388
6.34 0.139941
6.35 0.140238
6.36 0.139653
6.37 0.138334
6.38 0.136377
6.39 0.133882
6.4 0.13096
6.41 0.127732
6.42 0.124315
6.43 0.120845
6.44 0.117447
6.45 0.114223
6.46 0.111263
6.47 0.10864
6.48 0.106409
6.49 0.10465
6.5 0.103347
6.51 0.102485
6.52 0.102039
6.53 0.101968
6.54 0.102219
6.55 0.10273
6.56 0.103428
6.57 0.104212
6.58 0.105002
6.59 0.105719
6.6 0.10629
6.61 0.10665
6.62 0.106717
6.63 0.106454
6.64 0.105845
6.65 0.104873
6.66 0.103538
6.67 0.101849
6.68 0.0998253
6.69 0.0974806
6.7 0.0948908
6.71 0.0921052
6.72 0.0891772
6.73 0.0861612
6.74 0.0831112
6.75 0.0800835
6.76 0.0771298
6.77 0.0742878
6.78 0.071589
6.79 0.0690562
6.8 0.0667042
6.81 0.0645403
6.82 0.0625796
6.83 0.0607903
6.84 0.0591546
6.85 0.0576499
6.86 0.05625
6.87 0.0549268
6.88 0.0536524
6.89 0.0523944
6.9 0.051125
6.91 0.0498222
6.92 0.048468
6.93 0.0470492
6.94 0.0455574
6.95 0.0439807
6.96 0.04233
6.97 0.0406121
6.98 0.038837
6.99 0.0370172
7 0.0351668
7.01 0.0333004
7.02 0.0314342
7.03 0.0295817
7.04 0.0277531
7.05 0.0259557
7.06 0.0241934
7.07 0.0224668
7.08 0.0207755
7.09 0.0191089
7.1 0.0174563
7.11 0.0158057
7.12 0.0141432
7.13 0.0124546
7.14 0.0107237
7.15 0.00893422
7.16 0.00707936
7.17 0.00515225
7.18 0.00314971
7.19 0.00107275
7.2 -0.00107315
7.21 -0.00328196
7.22 -0.0055326
7.23 -0.00780379
7.24 -0.0100722
7.25 -0.0123116
7.26 -0.0144939
7.27 -0.0165866
7.28 -0.0185496
7.29 -0.0203632
7.3 -0.0220018
7.31 -0.0234429
7.32 -0.024668
7.33 -0.0256629
7.34 -0.026399
7.35 -0.0268839
7.36 -0.0271294
7.37 -0.0271441
7.38 -0.0269417
7.39 -0.0265402
7.4 -0.0259591
7.41 -0.0252146
7.42 -0.0243523
7.43 -0.0234016
7.44 -0.0223927
7.45 -0.0213553
7.46 -0.0203182
7.47 -0.019312
7.48 -0.0183642
7.49 -0.0174945
7.5 -0.0167214
7.51 -0.0160601
7.52 -0.0155226
7.53 -0.015119
7.54 -0.0148705
7.55 -0.0147656
7.56 -0.0148052
7.57 -0.0149888
7.58 -0.0153146
7.59 -0.0157795
7.6 -0.0163877
7.61 -0.0171342
7.62 -0.0180065
7.63 -0.0189998
7.64 -0.0201089
7.65 -0.0213281
7.66 -0.0226512
7.67 -0.0240812
7.68 -0.0255988
7.69 -0.027194
7.7 -0.0288558
7.71 -0.0305716
7.72 -0.0323274
7.73 -0.0341077
7.74 -0.0358928
7.75 -0.0376624
7.76 -0.0393971
7.77 -0.041077
7.78 -0.0426824
7.79 -0.0441945
7.8 -0.0455828
7.81 -0.0468401
7.82 -0.0479558
7.83 -0.048921
7.84 -0.0497305
7.85 -0.0503828
7.86 -0.0508751
7.87 -0.0512092
7.88 -0.051409
7.89 -0.0514896
7.9 -0.0514686
7.91 -0.0513657
7.92 -0.0512021
7.93 -0.0509972
7.94 -0.0507765
7.95 -0.050559
7.96 -0.05036
7.97 -0.0501911
7.98 -0.0500591
7.99 -0.0499671
8 -0.0499127
8.01 -0.0498821
8.02 -0.0498597
8.03 -0.0498254
8.04 -0.0497551
8.05 -0.0496215
8.06 -0.0493864
8.07 -0.0490202
8.08 -0.0484989
8.09 -0.0477978
8.1 -0.0468965
8.11 -0.0457805
8.12 -0.044439
8.13 -0.0428544
8.14 -0.0410613
8.15 -0.0390808
8.16 -0.0369435
8.17 -0.0346885
8.18 -0.032363
8.19 -0.0300243
8.2 -0.0277416
8.21 -0.025579
8.22 -0.0236011
8.23 -0.0218713
8.24 -0.0204491
8.25 -0.0193896
8.26 -0.0187874
8.27 -0.0186323
8.28 -0.0189439
8.29 -0.0197279
8.3 -0.0209754
8.31 -0.0226627
8.32 -0.0247702
8.33 -0.0272357
8.34 -0.0299653
8.35 -0.0328781
8.36 -0.0358841
8.37 -0.0388872
8.38 -0.0417875
8.39 -0.0444519
8.4 -0.0467946
8.41 -0.0487275
8.42 -0.0501705
8.43 -0.0510557
8.44 -0.0513298
8.45 -0.0509256
8.46 -0.0498061
8.47 -0.0480229
8.48 -0.0455994
8.49 -0.0425771
8.5 -0.0390142
8.51 -0.0349842
8.52 -0.0305461
8.53 -0.0258388
8.54 -0.0209747
8.55 -0.0160617
8.56 -0.0112076
8.57 -0.00651593
8.58 -0.00209561
8.59 0.00193968
8.6 0.00554284
8.61 0.0086593
8.62 0.0112514
8.63 0.0132991
8.64 0.0148005
8.65 0.0157279
8.66 0.0161512
8.67 0.0161376
8.68 0.0157512
8.69 0.0150658
8.7 0.0141625
8.71 0.0131253
8.72 0.012048
8.73 0.0110239
8.74 0.0101293
8.75 0.00943196
8.76 0.00898844
8.77 0.00884268
8.78 0.00905065
8.79 0.00961522
8.8 0.0105186
8.81 0.0117422
8.82 0.0132541
8.83 0.0150104
8.84 0.0169591
8.85 0.0190428
8.86 0.0211755
8.87 0.0232886
8.88 0.0253147
8.89 0.0271902
8.9 0.0288576
8.91 0.0302483
8.92 0.0313225
8.93 0.0320693
8.94 0.0324766
8.95 0.0325449
8.96 0.0322867
8.97 0.0317259
8.98 0.0308713
8.99 0.0298027
9 0.0285717
9.01 0.0272339
9.02 0.0258468
9.03 0.0244676
9.04 0.0231567
9.05 0.0219715
9.06 0.0209484
9.07 0.02012
9.08 0.0195092
9.09 0.019129
9.1 0.0189819
9.11 0.0190828
9.12 0.0193896
9.13 0.0198726
9.14 0.0204977
9.15 0.0212259
9.16 0.0220153
9.17 0.0228213
9.18 0.0235945
9.19 0.0242952
9.2 0.0248889
9.21 0.0253476
9.22 0.0256498
9.23 0.0257826
9.24 0.0257244
9.25 0.0254935
9.26 0.0251072
9.27 0.0245855
9.28 0.0239547
9.29 0.0232453
9.3 0.0224906
9.31 0.0217295
9.32 0.0209994
9.33 0.0203315
9.34 0.0197531
9.35 0.0192861
9.36 0.0189458
9.37 0.0187521
9.38 0.0186973
9.39 0.0187677
9.4 0.018947
9.41 0.0192125
9.42 0.0195358
9.43 0.019884
9.44 0.0202167
9.45 0.0204956
9.46 0.0206859
9.47 0.0207552
9.48 0.0206758
9.49 0.0204257
9.5 0.0199755
9.51 0.0193243
9.52 0.0184838
9.53 0.0174663
9.54 0.0162922
9.55 0.0149898
9.56 0.0135935
9.57 0.012144
9.58 0.0106955
9.59 0.00929453
9.6 0.00798761
9.61 0.006819
9.62 0.00582905
9.63 0.00506769
9.64 0.00456369
9.65 0.00432184
9.66 0.00434934
9.67 0.00464347
9.68 0.00519151
9.69 0.00597104
9.7 0.00696923
9.71 0.00811893
9.72 0.00937255
9.73 0.0106786
9.74 0.011983
9.75 0.0132317
9.76 0.0143636
9.77 0.0153213
9.78 0.016071
9.79 0.0165793
9.8 0.0168217
9.81 0.0167839
9.82 0.0164625
9.83 0.015838
9.84 0.0149582
9.85 0.0138576
9.86 0.0125766
9.87 0.0111628
9.88 0.00966982
9.89 0.00815688
9.9 0.00669332
9.91 0.00533875
9.92 0.00414889
9.93 0.00317453
9.94 0.00245967
9.95 0.00204001
9.96 0.00197313
9.97 0.00225201
9.98 0.00287032
9.99 0.00381825
10 0.00507519
10.01 0.00661044
10.02 0.00838978
10.03 0.0103698
10.04 0.0124755
10.05 0.0146485
10.06 0.0168288
10.07 0.0189568
10.08 0.0209748
10.09 0.0228116
10.1 0.0244221
10.11 0.0257733
10.12 0.0268349
10.13 0.0275854
10.14 0.0280131
10.15 0.0281097
10.16 0.0278583
10.17 0.027309
10.18 0.0264868
10.19 0.0254233
10.2 0.0241549
10.21 0.0227216
10.22 0.02116
10.23 0.0195217
10.24 0.0178537
10.25 0.0161947
10.26 0.01458
10.27 0.0130405
10.28 0.0116027
10.29 0.0103011
10.3 0.00913671
10.31 0.00811672
10.32 0.00724295
10.33 0.00651243
10.34 0.00591805
10.35 0.00545602
10.36 0.00511061
10.37 0.00485974
10.38 0.00468784
10.39 0.00457947
10.4 0.00452006
10.41 0.00449639
10.42 0.00449862
10.43 0.00451412
10.44 0.00453588
10.45 0.0045589
10.46 0.00457976
10.47 0.00459632
10.48 0.00460684
10.49 0.00460987
10.5 0.00460423
10.51 0.00458743
10.52 0.0045556
10.53 0.00450321
10.54 0.00442282
10.55 0.00430007
10.56 0.00412538
10.57 0.00388605
10.58 0.00356771
10.59 0.00315549
10.6 0.00263467
10.61 0.00198639
10.62 0.00119177
10.63 0.000252204
10.64 -0.000837164
10.65 -0.00207684
10.66 -0.00346244
10.67 -0.00498425
10.68 -0.00663605
10.69 -0.00838565
10.7 -0.0102023
10.71 -0.0120536
10.72 -0.0139032
10.73 -0.0157114
10.74 -0.0174334
10.75 -0.0190135
10.76 -0.0204185
10.77 -0.0216098
10.78 -0.0225526
10.79 -0.0232174
10.8 -0.0235809
10.81 -0.0236018
10.82 -0.0232866
10.83 -0.0226517
10.84 -0.0217105
10.85 -0.0204857
10.86 -0.0190089
10.87 -0.0173173
10.88 -0.01545
10.89 -0.0134819
10.9 -0.011471
10.91 -0.00947722
10.92 -0.00756129
10.93 -0.00578228
10.94 -0.00421289
10.95 -0.00290625
10.96 -0.00189451
10.97 -0.00121098
10.98 -0.000879347
10.99 -0.000912807
11 -0.00131522
11.01 -0.00211399
11.02 -0.00324497
11.03 -0.00467514
11.04 -0.00636228
11.05 -0.00825622
11.06 -0.0103003
11.07 -0.0124342
11.08 -0.0145834
11.09 -0.0166777
11.1 -0.0186535
11.11 -0.0204502
11.12 -0.0220124
11.13 -0.0232916
11.14 -0.0242078
11.15 -0.024762
11.16 -0.0249376
11.17 -0.0247264
11.18 -0.0241307
11.19 -0.0231631
11.2 -0.021831
11.21 -0.0201634
11.22 -0.0182256
11.23 -0.0160642
11.24 -0.0137302
11.25 -0.0112778
11.26 -0.00876217
11.27 -0.00624307
11.28 -0.00377961
11.29 -0.00142055
11.3 0.00079025
11.31 0.00281479
11.32 0.00462171
11.33 0.00617767
11.34 0.00745275
11.35 0.00845994
11.36 0.00919941
11.37 0.00967805
11.38 0.00990888
11.39 0.00991022
11.4 0.00968891
11.41 0.00928704
11.42 0.00873938
11.43 0.00807583
11.44 0.00732631
11.45 0.00651986
11.46 0.00568377
11.47 0.00484559
11.48 0.00402874
11.49 0.00325096
11.5 0.00252639
11.51 0.00186552
11.52 0.0012753
11.53 0.000765104
11.54 0.00033233
11.55 -2.87065e-05
11.56 -0.000322743
11.57 -0.000556057
11.58 -0.000735967
11.59 -0.000869883
11.6 -0.000963399
11.61 -0.00102871
11.62 -0.00107277
11.63 -0.00110168
11.64 -0.00112053
11.65 -0.00113331
11.66 -0.00114292
11.67 -0.00115152
11.68 -0.00116015
11.69 -0.00116913
11.7 -0.00117837
11.71 -0.00118754
11.72 -0.00119637
11.73 -0.00120469
11.74 -0.00121286
11.75 -0.00122165
11.76 -0.00123229
11.77 -0.00124647
11.78 -0.00126624
11.79 -0.00129449
11.8 -0.00133403
11.81 -0.00138651
11.82 -0.00145369
11.83 -0.00153663
11.84 -0.00163553
