# xPDFsuite Configuration #
[PDF]
wavelength = 0.1
dataformat = QA
inputfile = BiMsol6_insitu_700 C-00512.xy
backgroundfile = Quartz2mm-dist500-00000.xy
mode = xray
bgscale = 0.0042
composition = Bi2Fe4O9
outputtype = gr
qmaxinst = 24.998449118
qmin = 0.1
qmax = 21.4986662415
rmax = 80.0
rmin = 0.0
rstep = 0.01
rpoly = 0.9

[Misc]
inputdir = C:/Data/Seafile/CPH/Beamtime/Desy Oct 20/In situ data/Processed/BiMsol6/PDF
savedir = C:/Data/Seafile/CPH/Beamtime/Desy Oct 20/In situ data/PDF/BiMsol6
backgroundfilefull = C:/Data/Seafile/CPH/Beamtime/Desy Oct 20/In situ data/Processed/Standard_Empty_Cap/Quartz2mm-dist500-00000.xy

#### start data
#S 1
#L r($\AA$)  G($\AA^{-2}$)
0 0
0.01 0.00582305
0.02 0.0113122
0.03 0.0161819
0.04 0.0201761
0.05 0.0230801
0.06 0.0247309
0.07 0.0249507
0.08 0.0236893
0.09 0.0210806
0.1 0.0172358
0.11 0.0123258
0.12 0.00657411
0.13 0.000246836
0.14 -0.00635567
0.15 -0.0128606
0.16 -0.0189528
0.17 -0.0243377
0.18 -0.028752
0.19 -0.0319775
0.2 -0.0337908
0.21 -0.0340426
0.22 -0.0328308
0.23 -0.0302239
0.24 -0.0263633
0.25 -0.0214584
0.26 -0.0157786
0.27 -0.00963362
0.28 -0.00345605
0.29 0.00236885
0.3 0.00746767
0.31 0.0114874
0.32 0.0141129
0.33 0.0150263
0.34 0.0139198
0.35 0.0108561
0.36 0.00584561
0.37 -0.00100249
0.38 -0.00947938
0.39 -0.0192796
0.4 -0.0300449
0.41 -0.0411827
0.42 -0.0521128
0.43 -0.0622449
0.44 -0.0709707
0.45 -0.0776861
0.46 -0.0817532
0.47 -0.0823481
0.48 -0.0793084
0.49 -0.0723105
0.5 -0.0611484
0.51 -0.0457479
0.52 -0.0261747
0.53 -0.00237909
0.54 0.0250968
0.55 0.0555463
0.56 0.0883126
0.57 0.122631
0.58 0.157649
0.59 0.19244
0.6 0.225818
0.61 0.256871
0.62 0.284672
0.63 0.308357
0.64 0.32715
0.65 0.340385
0.66 0.347136
0.67 0.347033
0.68 0.340259
0.69 0.326829
0.7 0.306937
0.71 0.280949
0.72 0.249392
0.73 0.212473
0.74 0.17164
0.75 0.127832
0.76 0.0820465
0.77 0.035315
0.78 -0.0113225
0.79 -0.0567423
0.8 -0.0998158
0.81 -0.139774
0.82 -0.175878
0.83 -0.207517
0.84 -0.234231
0.85 -0.255716
0.86 -0.271276
0.87 -0.281446
0.88 -0.286517
0.89 -0.286847
0.9 -0.282919
0.91 -0.275321
0.92 -0.264634
0.93 -0.251607
0.94 -0.237224
0.95 -0.222243
0.96 -0.207392
0.97 -0.193351
0.98 -0.180723
0.99 -0.170245
1 -0.162225
1.01 -0.156884
1.02 -0.154373
1.03 -0.154724
1.04 -0.157858
1.05 -0.163661
1.06 -0.17195
1.07 -0.182132
1.08 -0.193786
1.09 -0.20646
1.1 -0.219684
1.11 -0.232997
1.12 -0.245893
1.13 -0.257946
1.14 -0.26884
1.15 -0.278313
1.16 -0.286177
1.17 -0.292322
1.18 -0.296688
1.19 -0.299196
1.2 -0.300152
1.21 -0.299748
1.22 -0.298219
1.23 -0.295835
1.24 -0.292884
1.25 -0.289657
1.26 -0.286479
1.27 -0.28361
1.28 -0.28126
1.29 -0.279591
1.3 -0.278712
1.31 -0.278678
1.32 -0.27956
1.33 -0.281182
1.34 -0.283411
1.35 -0.286072
1.36 -0.288954
1.37 -0.291824
1.38 -0.294411
1.39 -0.296437
1.4 -0.297699
1.41 -0.298009
1.42 -0.297216
1.43 -0.295221
1.44 -0.291977
1.45 -0.287369
1.46 -0.281621
1.47 -0.274886
1.48 -0.267363
1.49 -0.259298
1.5 -0.250969
1.51 -0.242698
1.52 -0.234854
1.53 -0.22774
1.54 -0.221644
1.55 -0.216824
1.56 -0.213491
1.57 -0.211803
1.58 -0.212032
1.59 -0.214046
1.6 -0.21775
1.61 -0.223005
1.62 -0.229605
1.63 -0.237283
1.64 -0.245729
1.65 -0.254543
1.66 -0.263269
1.67 -0.271497
1.68 -0.278823
1.69 -0.284861
1.7 -0.289258
1.71 -0.29151
1.72 -0.291475
1.73 -0.289048
1.74 -0.284149
1.75 -0.276777
1.76 -0.267012
1.77 -0.254961
1.78 -0.240766
1.79 -0.224939
1.8 -0.207845
1.81 -0.189886
1.82 -0.171486
1.83 -0.153078
1.84 -0.135155
1.85 -0.118152
1.86 -0.102404
1.87 -0.0882144
1.88 -0.075821
1.89 -0.0653931
1.9 -0.0570547
1.91 -0.0509962
1.92 -0.0469245
1.93 -0.044688
1.94 -0.0440717
1.95 -0.0448077
1.96 -0.0465859
1.97 -0.049091
1.98 -0.0519061
1.99 -0.0546512
2 -0.0569987
2.01 -0.0586547
2.02 -0.059371
2.03 -0.0589518
2.04 -0.0571254
2.05 -0.0539884
2.06 -0.0495788
2.07 -0.0440072
2.08 -0.0374533
2.09 -0.0301594
2.1 -0.0224167
2.11 -0.0146218
2.12 -0.00717323
2.13 -0.00045745
2.14 0.00514202
2.15 0.00925917
2.16 0.0115595
2.17 0.0114962
2.18 0.00903989
2.19 0.00405815
2.2 -0.0035234
2.21 -0.0137014
2.22 -0.026394
2.23 -0.0415385
2.24 -0.0589152
2.25 -0.0780455
2.26 -0.0985647
2.27 -0.120068
2.28 -0.142122
2.29 -0.164281
2.3 -0.186022
2.31 -0.2069
2.32 -0.22653
2.33 -0.244566
2.34 -0.260715
2.35 -0.274747
2.36 -0.286419
2.37 -0.295528
2.38 -0.302269
2.39 -0.306719
2.4 -0.309019
2.41 -0.309373
2.42 -0.308034
2.43 -0.305205
2.44 -0.301333
2.45 -0.296804
2.46 -0.291966
2.47 -0.287156
2.48 -0.28269
2.49 -0.278877
2.5 -0.27605
2.51 -0.274331
2.52 -0.273856
2.53 -0.274704
2.54 -0.276899
2.55 -0.280413
2.56 -0.285252
2.57 -0.291223
2.58 -0.298106
2.59 -0.305702
2.6 -0.313792
2.61 -0.322144
2.62 -0.330526
2.63 -0.338666
2.64 -0.34636
2.65 -0.353425
2.66 -0.359706
2.67 -0.365079
2.68 -0.369458
2.69 -0.37272
2.7 -0.374865
2.71 -0.375975
2.72 -0.376104
2.73 -0.375333
2.74 -0.373763
2.75 -0.371509
2.76 -0.368647
2.77 -0.365381
2.78 -0.361836
2.79 -0.358126
2.8 -0.354354
2.81 -0.350606
2.82 -0.346959
2.83 -0.343466
2.84 -0.340143
2.85 -0.336993
2.86 -0.334002
2.87 -0.33114
2.88 -0.328367
2.89 -0.32563
2.9 -0.322864
2.91 -0.320011
2.92 -0.317016
2.93 -0.31383
2.94 -0.310409
2.95 -0.306708
2.96 -0.302691
2.97 -0.298365
2.98 -0.293727
2.99 -0.28878
3 -0.283531
3.01 -0.27799
3.02 -0.272138
3.03 -0.266
3.04 -0.259577
3.05 -0.252853
3.06 -0.245796
3.07 -0.238363
3.08 -0.230478
3.09 -0.222024
3.1 -0.212942
3.11 -0.203126
3.12 -0.192456
3.13 -0.180806
3.14 -0.168048
3.15 -0.153942
3.16 -0.13842
3.17 -0.121422
3.18 -0.102865
3.19 -0.0826934
3.2 -0.0608777
3.21 -0.0373889
3.22 -0.0121564
3.23 0.0145745
3.24 0.0426776
3.25 0.071989
3.26 0.102309
3.27 0.133406
3.28 0.165035
3.29 0.196853
3.3 0.228534
3.31 0.259763
3.32 0.290224
3.33 0.319604
3.34 0.347589
3.35 0.373703
3.36 0.397855
3.37 0.419828
3.38 0.439446
3.39 0.456569
3.4 0.471102
3.41 0.482823
3.42 0.491752
3.43 0.498073
3.44 0.501867
3.45 0.50325
3.46 0.502365
3.47 0.499384
3.48 0.494298
3.49 0.487549
3.5 0.479351
3.51 0.469918
3.52 0.459456
3.53 0.448166
3.54 0.436209
3.55 0.423771
3.56 0.41104
3.57 0.39814
3.58 0.385178
3.59 0.372239
3.6 0.359391
3.61 0.346702
3.62 0.334198
3.63 0.321899
3.64 0.30982
3.65 0.297973
3.66 0.286367
3.67 0.275025
3.68 0.263978
3.69 0.253231
3.7 0.242818
3.71 0.232784
3.72 0.223182
3.73 0.214077
3.74 0.2056
3.75 0.197805
3.76 0.190763
3.77 0.184564
3.78 0.1793
3.79 0.175058
3.8 0.171957
3.81 0.170151
3.82 0.169605
3.83 0.170372
3.84 0.172488
3.85 0.175976
3.86 0.180843
3.87 0.187188
3.88 0.194914
3.89 0.203925
3.9 0.214161
3.91 0.225544
3.92 0.237987
3.93 0.251406
3.94 0.265744
3.95 0.280793
3.96 0.296428
3.97 0.312523
3.98 0.328949
3.99 0.345578
4 0.362275
4.01 0.378895
4.02 0.39531
4.03 0.4114
4.04 0.427049
4.05 0.442144
4.06 0.456573
4.07 0.470141
4.08 0.48283
4.09 0.494548
4.1 0.505213
4.11 0.514746
4.12 0.523079
4.13 0.530068
4.14 0.535657
4.15 0.539875
4.16 0.542688
4.17 0.544073
4.18 0.544016
4.19 0.542514
4.2 0.539414
4.21 0.534896
4.22 0.528995
4.23 0.521753
4.24 0.513217
4.25 0.503444
4.26 0.492442
4.27 0.480268
4.28 0.467069
4.29 0.452916
4.3 0.437879
4.31 0.422025
4.32 0.405415
4.33 0.388041
4.34 0.370017
4.35 0.351395
4.36 0.332209
4.37 0.312483
4.38 0.292236
4.39 0.271463
4.4 0.25015
4.41 0.228342
4.42 0.206043
4.43 0.183257
4.44 0.159991
4.45 0.136261
4.46 0.11205
4.47 0.0874236
4.48 0.0624395
4.49 0.0371559
4.5 0.0116444
4.51 -0.0140102
4.52 -0.0397082
4.53 -0.0653197
4.54 -0.0907197
4.55 -0.115778
4.56 -0.14036
4.57 -0.164328
4.58 -0.187545
4.59 -0.209801
4.6 -0.230993
4.61 -0.251046
4.62 -0.269867
4.63 -0.287379
4.64 -0.303526
4.65 -0.318251
4.66 -0.331422
4.67 -0.343198
4.68 -0.353618
4.69 -0.362744
4.7 -0.370653
4.71 -0.377443
4.72 -0.383163
4.73 -0.387974
4.74 -0.392051
4.75 -0.395527
4.76 -0.39853
4.77 -0.401184
4.78 -0.403603
4.79 -0.405888
4.8 -0.408147
4.81 -0.410447
4.82 -0.412839
4.83 -0.415355
4.84 -0.418008
4.85 -0.420802
4.86 -0.423713
4.87 -0.426696
4.88 -0.429704
4.89 -0.432683
4.9 -0.435573
4.91 -0.438312
4.92 -0.44081
4.93 -0.443026
4.94 -0.444915
4.95 -0.446436
4.96 -0.447557
4.97 -0.44826
4.98 -0.448516
4.99 -0.448318
5 -0.44771
5.01 -0.446713
5.02 -0.445355
5.03 -0.443666
5.04 -0.441678
5.05 -0.439398
5.06 -0.436879
5.07 -0.434143
5.08 -0.431203
5.09 -0.428059
5.1 -0.424704
5.11 -0.421109
5.12 -0.417225
5.13 -0.413032
5.14 -0.408477
5.15 -0.403506
5.16 -0.398061
5.17 -0.392081
5.18 -0.385453
5.19 -0.378156
5.2 -0.370168
5.21 -0.361463
5.22 -0.352027
5.23 -0.341865
5.24 -0.330985
5.25 -0.31939
5.26 -0.307211
5.27 -0.294532
5.28 -0.281453
5.29 -0.268091
5.3 -0.25457
5.31 -0.241035
5.32 -0.227646
5.33 -0.214542
5.34 -0.201856
5.35 -0.189716
5.36 -0.178233
5.37 -0.167518
5.38 -0.157731
5.39 -0.148843
5.4 -0.140884
5.41 -0.133858
5.42 -0.127748
5.43 -0.122515
5.44 -0.118145
5.45 -0.114536
5.46 -0.11155
5.47 -0.109082
5.48 -0.107019
5.49 -0.105248
5.5 -0.103659
5.51 -0.102142
5.52 -0.10059
5.53 -0.0989233
5.54 -0.0970809
5.55 -0.0950189
5.56 -0.0927121
5.57 -0.0901409
5.58 -0.0873195
5.59 -0.0842955
5.6 -0.0811145
5.61 -0.0778322
5.62 -0.0745113
5.63 -0.0712177
5.64 -0.0680335
5.65 -0.0650146
5.66 -0.0622095
5.67 -0.059655
5.68 -0.0573725
5.69 -0.0553665
5.7 -0.0536326
5.71 -0.0521364
5.72 -0.0508018
5.73 -0.0495547
5.74 -0.0483062
5.75 -0.0469554
5.76 -0.0453933
5.77 -0.0434633
5.78 -0.0410647
5.79 -0.0380972
5.8 -0.0344636
5.81 -0.0300813
5.82 -0.0248853
5.83 -0.0188028
5.84 -0.0117693
5.85 -0.00386946
5.86 0.00485884
5.87 0.0143524
5.88 0.0245241
5.89 0.035265
5.9 0.0464733
5.91 0.0579625
5.92 0.0695652
5.93 0.0811231
5.94 0.0924791
5.95 0.103482
5.96 0.113979
5.97 0.123786
5.98 0.132856
5.99 0.141113
6 0.14851
6.01 0.155026
6.02 0.160668
6.03 0.165412
6.04 0.169358
6.05 0.17263
6.06 0.175332
6.07 0.177586
6.08 0.179522
6.09 0.181271
6.1 0.182976
6.11 0.184777
6.12 0.186782
6.13 0.189082
6.14 0.191747
6.15 0.194823
6.16 0.198354
6.17 0.202321
6.18 0.206656
6.19 0.211285
6.2 0.216113
6.21 0.221019
6.22 0.225868
6.23 0.230465
6.24 0.234659
6.25 0.238288
6.26 0.241192
6.27 0.243221
6.28 0.244238
6.29 0.244059
6.3 0.242561
6.31 0.239756
6.32 0.235607
6.33 0.230109
6.34 0.223283
6.35 0.215182
6.36 0.205768
6.37 0.195272
6.38 0.183837
6.39 0.171608
6.4 0.158741
6.41 0.1454
6.42 0.131743
6.43 0.117952
6.44 0.104199
6.45 0.0906222
6.46 0.077346
6.47 0.0644737
6.48 0.0520884
6.49 0.0403057
6.5 0.0291237
6.51 0.0185386
6.52 0.00853784
6.53 -0.0009101
6.54 -0.00985344
6.55 -0.0183428
6.56 -0.0264404
6.57 -0.0342631
6.58 -0.0418926
6.59 -0.0494083
6.6 -0.0568848
6.61 -0.064388
6.62 -0.0719838
6.63 -0.0797126
6.64 -0.0875944
6.65 -0.095636
6.66 -0.103828
6.67 -0.112146
6.68 -0.120551
6.69 -0.128982
6.7 -0.137365
6.71 -0.145622
6.72 -0.153672
6.73 -0.161426
6.74 -0.168797
6.75 -0.175657
6.76 -0.181926
6.77 -0.187548
6.78 -0.192456
6.79 -0.196591
6.8 -0.199904
6.81 -0.202347
6.82 -0.203801
6.83 -0.204345
6.84 -0.203972
6.85 -0.202684
6.86 -0.200488
6.87 -0.1974
6.88 -0.193384
6.89 -0.18847
6.9 -0.182727
6.91 -0.176179
6.92 -0.168845
6.93 -0.160742
6.94 -0.151887
6.95 -0.142208
6.96 -0.131798
6.97 -0.120665
6.98 -0.108814
6.99 -0.0962472
7 -0.0829685
7.01 -0.0689466
7.02 -0.0541777
7.03 -0.0387194
7.04 -0.022587
7.05 -0.00580124
7.06 0.0116108
7.07 0.0296149
7.08 0.0482213
7.09 0.0673247
7.1 0.0868588
7.11 0.106758
7.12 0.126949
7.13 0.147354
7.14 0.16789
7.15 0.18846
7.16 0.208964
7.17 0.22931
7.18 0.249405
7.19 0.269159
7.2 0.288483
7.21 0.307236
7.22 0.32536
7.23 0.342793
7.24 0.359464
7.25 0.375305
7.26 0.390256
7.27 0.404233
7.28 0.417119
7.29 0.428954
7.3 0.439698
7.31 0.449315
7.32 0.457772
7.33 0.465038
7.34 0.470986
7.35 0.475643
7.36 0.479031
7.37 0.481129
7.38 0.481918
7.39 0.481383
7.4 0.479486
7.41 0.476102
7.42 0.471358
7.43 0.465251
7.44 0.457782
7.45 0.448955
7.46 0.438783
7.47 0.427191
7.48 0.41424
7.49 0.400025
7.5 0.384589
7.51 0.36798
7.52 0.350259
7.53 0.331486
7.54 0.311645
7.55 0.290936
7.56 0.269453
7.57 0.247299
7.58 0.224581
7.59 0.201413
7.6 0.177904
7.61 0.154198
7.62 0.130441
7.63 0.106763
7.64 0.0832944
7.65 0.060165
7.66 0.0375031
7.67 0.0155133
7.68 -0.00573641
7.69 -0.0261365
7.7 -0.0455816
7.71 -0.0639753
7.72 -0.0812308
7.73 -0.0972109
7.74 -0.111817
7.75 -0.125085
7.76 -0.136983
7.77 -0.147488
7.78 -0.156597
7.79 -0.164316
7.8 -0.170534
7.81 -0.175409
7.82 -0.179015
7.83 -0.181416
7.84 -0.182687
7.85 -0.182912
7.86 -0.18215
7.87 -0.180475
7.88 -0.178065
7.89 -0.175022
7.9 -0.171451
7.91 -0.167449
7.92 -0.163115
7.93 -0.158522
7.94 -0.153778
7.95 -0.148959
7.96 -0.144125
7.97 -0.139325
7.98 -0.134599
7.99 -0.129975
8 -0.125478
8.01 -0.121102
8.02 -0.116842
8.03 -0.112683
8.04 -0.108607
8.05 -0.104591
8.06 -0.10061
8.07 -0.0966328
8.08 -0.0926354
8.09 -0.0885979
8.1 -0.0845056
8.11 -0.0803508
8.12 -0.0761324
8.13 -0.0718557
8.14 -0.0675461
8.15 -0.0632307
8.16 -0.0589446
8.17 -0.0547293
8.18 -0.0506318
8.19 -0.0467176
8.2 -0.0430437
8.21 -0.0396528
8.22 -0.0365931
8.23 -0.0339075
8.24 -0.0316312
8.25 -0.029792
8.26 -0.028455
8.27 -0.0275693
8.28 -0.0271208
8.29 -0.0270819
8.3 -0.0274114
8.31 -0.0280555
8.32 -0.0289584
8.33 -0.0300327
8.34 -0.0311793
8.35 -0.0323088
8.36 -0.0333303
8.37 -0.0341541
8.38 -0.0346947
8.39 -0.0348264
8.4 -0.0345132
8.41 -0.0337063
8.42 -0.0323692
8.43 -0.0304826
8.44 -0.0280452
8.45 -0.0250521
8.46 -0.021534
8.47 -0.0175878
8.48 -0.0132883
8.49 -0.00872422
8.5 -0.00399614
8.51 0.000786884
8.52 0.00549282
8.53 0.0099971
8.54 0.0141874
8.55 0.0179563
8.56 0.0212056
8.57 0.0238498
8.58 0.0257932
8.59 0.0269418
8.6 0.0273234
8.61 0.0269281
8.62 0.0257659
8.63 0.0238659
8.64 0.021275
8.65 0.0180083
8.66 0.0141899
8.67 0.00992818
8.68 0.00531949
8.69 0.000463482
8.7 -0.00454042
8.71 -0.00959541
8.72 -0.0145996
8.73 -0.0194741
8.74 -0.0241563
8.75 -0.0285984
8.76 -0.0327689
8.77 -0.0366533
8.78 -0.0402338
8.79 -0.0435445
8.8 -0.0466346
8.81 -0.0495547
8.82 -0.0523655
8.83 -0.0551356
8.84 -0.0579392
8.85 -0.06087
8.86 -0.0639946
8.87 -0.0673791
8.88 -0.071081
8.89 -0.0751469
8.9 -0.0796108
8.91 -0.0845196
8.92 -0.0898706
8.93 -0.0956266
8.94 -0.101757
8.95 -0.108219
8.96 -0.114954
8.97 -0.121898
8.98 -0.12898
8.99 -0.136099
9 -0.143173
9.01 -0.15012
9.02 -0.156866
9.03 -0.163341
9.04 -0.169465
9.05 -0.175181
9.06 -0.180477
9.07 -0.185335
9.08 -0.189752
9.09 -0.193735
9.1 -0.197306
9.11 -0.200464
9.12 -0.203293
9.13 -0.205848
9.14 -0.208185
9.15 -0.210361
9.16 -0.212431
9.17 -0.214447
9.18 -0.216459
9.19 -0.218505
9.2 -0.22061
9.21 -0.222784
9.22 -0.225029
9.23 -0.227331
9.24 -0.229667
9.25 -0.231991
9.26 -0.234255
9.27 -0.236406
9.28 -0.238384
9.29 -0.240126
9.3 -0.241559
9.31 -0.242599
9.32 -0.243219
9.33 -0.243376
9.34 -0.243037
9.35 -0.24218
9.36 -0.240796
9.37 -0.238846
9.38 -0.236379
9.39 -0.233443
9.4 -0.230083
9.41 -0.22635
9.42 -0.222304
9.43 -0.218004
9.44 -0.21351
9.45 -0.208908
9.46 -0.204257
9.47 -0.199606
9.48 -0.194998
9.49 -0.19046
9.5 -0.186015
9.51 -0.181658
9.52 -0.177367
9.53 -0.173106
9.54 -0.168828
9.55 -0.16447
9.56 -0.159959
9.57 -0.155178
9.58 -0.150056
9.59 -0.144503
9.6 -0.138427
9.61 -0.131744
9.62 -0.124375
9.63 -0.116199
9.64 -0.107163
9.65 -0.0972701
9.66 -0.0865029
9.67 -0.0748601
9.68 -0.0623595
9.69 -0.0490369
9.7 -0.0348648
9.71 -0.0200099
9.72 -0.00456007
9.73 0.0113866
9.74 0.0277239
9.75 0.0443405
9.76 0.0611255
9.77 0.0779506
9.78 0.0946995
9.79 0.111273
9.8 0.127583
9.81 0.143551
9.82 0.159114
9.83 0.17417
9.84 0.188726
9.85 0.20277
9.86 0.216299
9.87 0.229321
9.88 0.241854
9.89 0.253907
9.9 0.2655
9.91 0.276704
9.92 0.287553
9.93 0.298078
9.94 0.308306
9.95 0.318256
9.96 0.327914
9.97 0.337296
9.98 0.346396
9.99 0.35519
10 0.363643
10.01 0.371711
10.02 0.379327
10.03 0.386398
10.04 0.392898
10.05 0.398764
10.06 0.403935
10.07 0.408354
10.08 0.41197
10.09 0.414671
10.1 0.416465
10.11 0.417369
10.12 0.417387
10.13 0.416537
10.14 0.414853
10.15 0.412371
10.16 0.409108
10.17 0.405221
10.18 0.400803
10.19 0.395954
10.2 0.390782
10.21 0.385397
10.22 0.37991
10.23 0.374447
10.24 0.369112
10.25 0.363997
10.26 0.359184
10.27 0.354738
10.28 0.350717
10.29 0.347206
10.3 0.344171
10.31 0.341611
10.32 0.339506
10.33 0.337822
10.34 0.336508
10.35 0.335517
10.36 0.334761
10.37 0.334139
10.38 0.333562
10.39 0.332934
10.4 0.332164
10.41 0.331157
10.42 0.329777
10.43 0.327971
10.44 0.325666
10.45 0.322795
10.46 0.319305
10.47 0.31515
10.48 0.310261
10.49 0.304599
10.5 0.298205
10.51 0.291077
10.52 0.283225
10.53 0.274668
10.54 0.265429
10.55 0.255475
10.56 0.244903
10.57 0.233761
10.58 0.22209
10.59 0.209931
10.6 0.197326
10.61 0.184304
10.62 0.170895
10.63 0.15717
10.64 0.143164
10.65 0.128914
10.66 0.114452
10.67 0.099811
10.68 0.0850091
10.69 0.0700885
10.7 0.0550805
10.71 0.0400116
10.72 0.0249079
10.73 0.00979424
10.74 -0.00530371
10.75 -0.0203568
10.76 -0.0353443
10.77 -0.0502448
10.78 -0.0650384
10.79 -0.0797067
10.8 -0.0942333
10.81 -0.108591
10.82 -0.122773
10.83 -0.136778
10.84 -0.1506
10.85 -0.164235
10.86 -0.177685
10.87 -0.190949
10.88 -0.204016
10.89 -0.216911
10.9 -0.229643
10.91 -0.242218
10.92 -0.254644
10.93 -0.266929
10.94 -0.279066
10.95 -0.291062
10.96 -0.30292
10.97 -0.314636
10.98 -0.3262
10.99 -0.337598
11 -0.34881
11.01 -0.359786
11.02 -0.37052
11.03 -0.380978
11.04 -0.391124
11.05 -0.400919
11.06 -0.410321
11.07 -0.419261
11.08 -0.427686
11.09 -0.435582
11.1 -0.442908
11.11 -0.449625
11.12 -0.455699
11.13 -0.461098
11.14 -0.465717
11.15 -0.469605
11.16 -0.472752
11.17 -0.475148
11.18 -0.476789
11.19 -0.477674
11.2 -0.477773
11.21 -0.477079
11.22 -0.475657
11.23 -0.473524
11.24 -0.470694
11.25 -0.467187
11.26 -0.463021
11.27 -0.458152
11.28 -0.452652
11.29 -0.446547
11.3 -0.43985
11.31 -0.432575
11.32 -0.424731
11.33 -0.416308
11.34 -0.407287
11.35 -0.397719
11.36 -0.38761
11.37 -0.376965
11.38 -0.365788
11.39 -0.354088
11.4 -0.341827
11.41 -0.329051
11.42 -0.315789
11.43 -0.302059
11.44 -0.287886
11.45 -0.273295
11.46 -0.25831
11.47 -0.242948
11.48 -0.227285
11.49 -0.211365
11.5 -0.195237
11.51 -0.178951
11.52 -0.162559
11.53 -0.146116
11.54 -0.129685
11.55 -0.113323
11.56 -0.0970824
11.57 -0.0810138
11.58 -0.0651659
11.59 -0.049588
11.6 -0.0343542
11.61 -0.0194722
11.62 -0.00497381
11.63 0.0091139
11.64 0.0227684
11.65 0.0359718
11.66 0.0486792
11.67 0.0608875
11.68 0.072616
11.69 0.0838632
11.7 0.0946306
11.71 0.104922
11.72 0.114742
11.73 0.124046
11.74 0.132895
11.75 0.141298
11.76 0.149263
11.77 0.156797
11.78 0.163907
11.79 0.170576
11.8 0.176807
11.81 0.182628
11.82 0.188042
11.83 0.193048
11.84 0.197648
11.85 0.201838
11.86 0.205571
11.87 0.208884
11.88 0.211774
11.89 0.214238
11.9 0.216268
11.91 0.217856
11.92 0.218976
11.93 0.219605
11.94 0.219766
11.95 0.219449
11.96 0.218646
11.97 0.217345
11.98 0.215536
11.99 0.213155
12 0.210228
12.01 0.206753
12.02 0.202718
12.03 0.198108
12.04 0.192911
12.05 0.187093
12.06 0.180608
12.07 0.173494
12.08 0.165741
12.09 0.157339
12.1 0.14828
12.11 0.138559
12.12 0.128116
12.13 0.116988
12.14 0.105202
12.15 0.0927678
