# xPDFsuite Configuration #
[PDF]
wavelength = 0.1
dataformat = QA
inputfile = BiMsol6_insitu_700 C-00020.xy
backgroundfile = Quartz2mm-dist500-00000.xy
mode = xray
bgscale = 0.0042
composition = Bi2Fe4O9
outputtype = gr
qmaxinst = 24.998449118
qmin = 0.1
qmax = 21.4986662415
rmax = 80.0
rmin = 0.0
rstep = 0.01
rpoly = 0.9

[Misc]
inputdir = C:/Data/Seafile/CPH/Beamtime/Desy Oct 20/In situ data/Processed/BiMsol6/PDF
savedir = C:/Data/Seafile/CPH/Beamtime/Desy Oct 20/In situ data/PDF/BiMsol6
backgroundfilefull = C:/Data/Seafile/CPH/Beamtime/Desy Oct 20/In situ data/Processed/Standard_Empty_Cap/Quartz2mm-dist500-00000.xy

#### start data
#S 1
#L r($\AA$)  G($\AA^{-2}$)
0 0
0.01 0.00695996
0.02 0.0135328
0.03 0.019387
0.04 0.0242251
0.05 0.027797
0.06 0.029912
0.07 0.0303607
0.08 0.029081
0.09 0.026225
0.1 0.0219168
0.11 0.0163505
0.12 0.00978048
0.13 0.00251119
0.14 -0.00511656
0.15 -0.0126696
0.16 -0.0197828
0.17 -0.0261135
0.18 -0.0313537
0.19 -0.0352449
0.2 -0.0375216
0.21 -0.0379999
0.22 -0.0367798
0.23 -0.033927
0.24 -0.0295905
0.25 -0.023997
0.26 -0.0174428
0.27 -0.0102625
0.28 -0.0029471
0.29 0.00406711
0.3 0.0103566
0.31 0.0155179
0.32 0.0191875
0.33 0.0209974
0.34 0.0205867
0.35 0.0180027
0.36 0.0132367
0.37 0.00638884
0.38 -0.00233022
0.39 -0.0126025
0.4 -0.0240617
0.41 -0.0360667
0.42 -0.0479887
0.43 -0.0591894
0.44 -0.0690084
0.45 -0.0767887
0.46 -0.0818367
0.47 -0.0832632
0.48 -0.080872
0.49 -0.0743049
0.5 -0.0633309
0.51 -0.0478613
0.52 -0.0279593
0.53 -0.00356756
0.54 0.0247384
0.55 0.0562057
0.56 0.0901324
0.57 0.125701
0.58 0.161999
0.59 0.198038
0.6 0.23255
0.61 0.264565
0.62 0.293103
0.63 0.317248
0.64 0.336184
0.65 0.349219
0.66 0.355388
0.67 0.354324
0.68 0.346247
0.69 0.331202
0.7 0.309427
0.71 0.281343
0.72 0.247541
0.73 0.208303
0.74 0.165169
0.75 0.119161
0.76 0.0713498
0.77 0.0228423
0.78 -0.025257
0.79 -0.0717486
0.8 -0.11545
0.81 -0.155595
0.82 -0.191434
0.83 -0.222366
0.84 -0.247955
0.85 -0.267934
0.86 -0.281636
0.87 -0.289699
0.88 -0.292495
0.89 -0.290465
0.9 -0.284177
0.91 -0.274305
0.92 -0.261521
0.93 -0.246666
0.94 -0.230773
0.95 -0.214646
0.96 -0.199047
0.97 -0.18467
0.98 -0.17212
0.99 -0.162144
1 -0.154983
1.01 -0.150792
1.02 -0.149653
1.03 -0.151521
1.04 -0.156229
1.05 -0.163567
1.06 -0.173244
1.07 -0.184584
1.08 -0.197087
1.09 -0.210232
1.1 -0.223497
1.11 -0.236382
1.12 -0.248322
1.13 -0.258917
1.14 -0.267891
1.15 -0.275028
1.16 -0.280201
1.17 -0.283378
1.18 -0.284589
1.19 -0.283861
1.2 -0.281629
1.21 -0.278192
1.22 -0.273895
1.23 -0.269109
1.24 -0.264211
1.25 -0.259615
1.26 -0.255697
1.27 -0.252728
1.28 -0.250929
1.29 -0.250456
1.3 -0.251387
1.31 -0.253726
1.32 -0.257512
1.33 -0.262413
1.34 -0.268189
1.35 -0.274545
1.36 -0.281146
1.37 -0.287634
1.38 -0.29359
1.39 -0.298606
1.4 -0.30239
1.41 -0.304668
1.42 -0.305222
1.43 -0.303907
1.44 -0.300655
1.45 -0.295274
1.46 -0.288096
1.47 -0.279332
1.48 -0.269256
1.49 -0.258205
1.5 -0.246568
1.51 -0.234784
1.52 -0.223365
1.53 -0.212757
1.54 -0.203378
1.55 -0.195604
1.56 -0.189754
1.57 -0.186082
1.58 -0.185001
1.59 -0.186383
1.6 -0.190151
1.61 -0.196168
1.62 -0.204207
1.63 -0.213956
1.64 -0.22506
1.65 -0.237039
1.66 -0.249291
1.67 -0.261292
1.68 -0.272516
1.69 -0.282451
1.7 -0.290621
1.71 -0.296371
1.72 -0.299454
1.73 -0.299679
1.74 -0.296887
1.75 -0.29102
1.76 -0.28212
1.77 -0.270258
1.78 -0.25554
1.79 -0.238567
1.8 -0.219753
1.81 -0.19956
1.82 -0.178493
1.83 -0.157073
1.84 -0.135874
1.85 -0.115455
1.86 -0.0962604
1.87 -0.0786852
1.88 -0.063056
1.89 -0.0496181
1.9 -0.0385649
1.91 -0.0301702
1.92 -0.0241392
1.93 -0.020333
1.94 -0.0185333
1.95 -0.0184527
1.96 -0.0197478
1.97 -0.0220726
1.98 -0.0249389
1.99 -0.0278871
2 -0.0305194
2.01 -0.0324701
2.02 -0.0334213
2.03 -0.0331099
2.04 -0.0311784
2.05 -0.0276909
2.06 -0.022648
2.07 -0.0161349
2.08 -0.00831833
2.09 0.000559333
2.1 0.0102104
2.11 0.0202099
2.12 0.0301032
2.13 0.0394583
2.14 0.0478392
2.15 0.0548231
2.16 0.0600167
2.17 0.062804
2.18 0.0630972
2.19 0.0607124
2.2 0.0555303
2.21 0.0475164
2.22 0.0367239
2.23 0.0231824
2.24 0.00709382
2.25 -0.0110404
2.26 -0.0308445
2.27 -0.0518944
2.28 -0.0737313
2.29 -0.0958773
2.3 -0.117787
2.31 -0.138958
2.32 -0.158962
2.33 -0.177415
2.34 -0.193987
2.35 -0.208415
2.36 -0.220424
2.37 -0.229779
2.38 -0.236663
2.39 -0.24114
2.4 -0.243347
2.41 -0.243483
2.42 -0.241804
2.43 -0.238509
2.44 -0.234063
2.45 -0.228866
2.46 -0.223276
2.47 -0.21764
2.48 -0.212285
2.49 -0.207524
2.5 -0.203695
2.51 -0.200928
2.52 -0.199357
2.53 -0.199059
2.54 -0.200055
2.55 -0.202309
2.56 -0.205817
2.57 -0.210382
2.58 -0.215782
2.59 -0.221813
2.6 -0.228259
2.61 -0.234891
2.62 -0.241482
2.63 -0.247772
2.64 -0.25358
2.65 -0.258745
2.66 -0.263138
2.67 -0.266666
2.68 -0.269273
2.69 -0.270879
2.7 -0.271522
2.71 -0.271309
2.72 -0.270324
2.73 -0.268673
2.74 -0.266478
2.75 -0.263867
2.76 -0.260956
2.77 -0.257914
2.78 -0.254854
2.79 -0.25187
2.8 -0.249039
2.81 -0.246411
2.82 -0.244025
2.83 -0.24188
2.84 -0.239933
2.85 -0.238133
2.86 -0.236414
2.87 -0.234693
2.88 -0.232882
2.89 -0.23086
2.9 -0.228547
2.91 -0.225863
2.92 -0.222743
2.93 -0.219137
2.94 -0.215012
2.95 -0.210339
2.96 -0.20512
2.97 -0.199433
2.98 -0.193339
2.99 -0.186914
3 -0.180251
3.01 -0.173447
3.02 -0.166613
3.03 -0.159865
3.04 -0.153299
3.05 -0.146995
3.06 -0.14102
3.07 -0.135419
3.08 -0.130227
3.09 -0.12546
3.1 -0.121049
3.11 -0.116935
3.12 -0.113037
3.13 -0.109254
3.14 -0.105467
3.15 -0.101526
3.16 -0.0972831
3.17 -0.0926067
3.18 -0.087366
3.19 -0.0814412
3.2 -0.074728
3.21 -0.0671225
3.22 -0.0584886
3.23 -0.0488839
3.24 -0.0383078
3.25 -0.0267866
3.26 -0.014373
3.27 -0.00114301
3.28 0.0128509
3.29 0.0274557
3.3 0.0425136
3.31 0.0578927
3.32 0.0734611
3.33 0.0890931
3.34 0.104672
3.35 0.120073
3.36 0.13523
3.37 0.150091
3.38 0.164628
3.39 0.17884
3.4 0.192747
3.41 0.206381
3.42 0.219821
3.43 0.233162
3.44 0.246498
3.45 0.259924
3.46 0.273537
3.47 0.287424
3.48 0.301708
3.49 0.316408
3.5 0.331553
3.51 0.347143
3.52 0.363149
3.53 0.379513
3.54 0.396152
3.55 0.412924
3.56 0.429657
3.57 0.446173
3.58 0.462274
3.59 0.477751
3.6 0.492387
3.61 0.50583
3.62 0.517947
3.63 0.528556
3.64 0.537485
3.65 0.544585
3.66 0.549738
3.67 0.552778
3.68 0.553581
3.69 0.552305
3.7 0.548989
3.71 0.54371
3.72 0.536576
3.73 0.527727
3.74 0.517201
3.75 0.505318
3.76 0.492315
3.77 0.478405
3.78 0.463799
3.79 0.448703
3.8 0.433313
3.81 0.417827
3.82 0.402424
3.83 0.387239
3.84 0.372383
3.85 0.35794
3.86 0.34397
3.87 0.330548
3.88 0.317661
3.89 0.305277
3.9 0.293365
3.91 0.281883
3.92 0.270779
3.93 0.260001
3.94 0.249506
3.95 0.239208
3.96 0.22906
3.97 0.219019
3.98 0.209057
3.99 0.199153
4 0.189302
4.01 0.179506
4.02 0.169777
4.03 0.160134
4.04 0.150604
4.05 0.141215
4.06 0.131999
4.07 0.123004
4.08 0.114232
4.09 0.105699
4.1 0.0974098
4.11 0.0893614
4.12 0.0815414
4.13 0.0739383
4.14 0.0665152
4.15 0.0592216
4.16 0.052014
4.17 0.0448466
4.18 0.0376742
4.19 0.0304549
4.2 0.02314
4.21 0.0157106
4.22 0.00815403
4.23 0.000470265
4.24 -0.00732619
4.25 -0.0152059
4.26 -0.0231236
4.27 -0.03101
4.28 -0.0387893
4.29 -0.0463783
4.3 -0.0536873
4.31 -0.0606235
4.32 -0.0670944
4.33 -0.0729472
4.34 -0.0781436
4.35 -0.0826283
4.36 -0.0863533
4.37 -0.0892897
4.38 -0.0914296
4.39 -0.0927591
4.4 -0.0932934
4.41 -0.09316
4.42 -0.0924453
4.43 -0.0912543
4.44 -0.0897072
4.45 -0.0879358
4.46 -0.0860848
4.47 -0.0843181
4.48 -0.0827753
4.49 -0.0815855
4.5 -0.0808647
4.51 -0.0807115
4.52 -0.0812222
4.53 -0.0824977
4.54 -0.0844983
4.55 -0.0872156
4.56 -0.090614
4.57 -0.0946316
4.58 -0.0991818
4.59 -0.10418
4.6 -0.109464
4.61 -0.114876
4.62 -0.120267
4.63 -0.125487
4.64 -0.13039
4.65 -0.134827
4.66 -0.138611
4.67 -0.141691
4.68 -0.143988
4.69 -0.14545
4.7 -0.146053
4.71 -0.145797
4.72 -0.144661
4.73 -0.142732
4.74 -0.140134
4.75 -0.136977
4.76 -0.133384
4.77 -0.12949
4.78 -0.125437
4.79 -0.121387
4.8 -0.117494
4.81 -0.113888
4.82 -0.110689
4.83 -0.107996
4.84 -0.105891
4.85 -0.104472
4.86 -0.103777
4.87 -0.103771
4.88 -0.104437
4.89 -0.105733
4.9 -0.107601
4.91 -0.109964
4.92 -0.112766
4.93 -0.115858
4.94 -0.11913
4.95 -0.12248
4.96 -0.125808
4.97 -0.12902
4.98 -0.132022
4.99 -0.134731
5 -0.137112
5.01 -0.139134
5.02 -0.14078
5.03 -0.142051
5.04 -0.142963
5.05 -0.143519
5.06 -0.143792
5.07 -0.143841
5.08 -0.143722
5.09 -0.143496
5.1 -0.143221
5.11 -0.142952
5.12 -0.142749
5.13 -0.142645
5.14 -0.142669
5.15 -0.142836
5.16 -0.14315
5.17 -0.143604
5.18 -0.144187
5.19 -0.14486
5.2 -0.145582
5.21 -0.14631
5.22 -0.147
5.23 -0.147606
5.24 -0.14808
5.25 -0.148368
5.26 -0.148451
5.27 -0.148308
5.28 -0.147925
5.29 -0.147298
5.3 -0.146436
5.31 -0.14534
5.32 -0.144048
5.33 -0.142604
5.34 -0.141046
5.35 -0.139416
5.36 -0.137758
5.37 -0.136114
5.38 -0.134529
5.39 -0.13303
5.4 -0.131639
5.41 -0.130366
5.42 -0.129214
5.43 -0.128172
5.44 -0.127224
5.45 -0.126335
5.46 -0.125458
5.47 -0.124548
5.48 -0.123554
5.49 -0.122425
5.5 -0.121109
5.51 -0.119526
5.52 -0.117661
5.53 -0.115483
5.54 -0.112972
5.55 -0.110121
5.56 -0.106937
5.57 -0.103424
5.58 -0.0996188
5.59 -0.09559
5.6 -0.091396
5.61 -0.0871036
5.62 -0.0827854
5.63 -0.0785167
5.64 -0.0743935
5.65 -0.0704807
5.66 -0.0668394
5.67 -0.063521
5.68 -0.0605642
5.69 -0.0579925
5.7 -0.0558301
5.71 -0.0540738
5.72 -0.052663
5.73 -0.0515494
5.74 -0.0506697
5.75 -0.0499482
5.76 -0.0492995
5.77 -0.0486203
5.78 -0.0478062
5.79 -0.0467649
5.8 -0.0454094
5.81 -0.0436621
5.82 -0.0414587
5.83 -0.038733
5.84 -0.0354264
5.85 -0.0315779
5.86 -0.0272047
5.87 -0.0223447
5.88 -0.0170562
5.89 -0.0114153
5.9 -0.00550109
5.91 0.000552971
5.92 0.00662452
5.93 0.0125958
5.94 0.0183505
5.95 0.0237783
5.96 0.0287676
5.97 0.0331863
5.98 0.0370148
5.99 0.0402127
6 0.0427633
6.01 0.0446745
6.02 0.0459791
6.03 0.0466986
6.04 0.0469444
6.05 0.0468425
6.06 0.0465111
6.07 0.0460789
6.08 0.0456806
6.09 0.045455
6.1 0.0455771
6.11 0.0461441
6.12 0.0472586
6.13 0.0490034
6.14 0.0514379
6.15 0.054596
6.16 0.058529
6.17 0.0631987
6.18 0.0685087
6.19 0.0743751
6.2 0.0806907
6.21 0.0873285
6.22 0.0941457
6.23 0.100973
6.24 0.107634
6.25 0.113971
6.26 0.119833
6.27 0.125084
6.28 0.129602
6.29 0.133242
6.3 0.135914
6.31 0.137634
6.32 0.138395
6.33 0.138219
6.34 0.13716
6.35 0.135294
6.36 0.132664
6.37 0.129477
6.38 0.125884
6.39 0.122038
6.4 0.118094
6.41 0.11421
6.42 0.110548
6.43 0.107272
6.44 0.104479
6.45 0.10226
6.46 0.100682
6.47 0.0997826
6.48 0.0995732
6.49 0.100095
6.5 0.101244
6.51 0.102928
6.52 0.105048
6.53 0.107488
6.54 0.110117
6.55 0.112795
6.56 0.115357
6.57 0.117662
6.58 0.119583
6.59 0.121003
6.6 0.121825
6.61 0.121972
6.62 0.121326
6.63 0.119897
6.64 0.117714
6.65 0.114808
6.66 0.111233
6.67 0.107067
6.68 0.102397
6.69 0.0973215
6.7 0.0920112
6.71 0.0865968
6.72 0.0812094
6.73 0.0759763
6.74 0.071017
6.75 0.0664729
6.76 0.0624348
6.77 0.0589522
6.78 0.0560713
6.79 0.053816
6.8 0.052188
6.81 0.0511714
6.82 0.0507746
6.83 0.0508678
6.84 0.0513715
6.85 0.0521946
6.86 0.0532379
6.87 0.0543975
6.88 0.0555636
6.89 0.0566206
6.9 0.0574772
6.91 0.0580524
6.92 0.0582789
6.93 0.0581042
6.94 0.0574927
6.95 0.0563735
6.96 0.0547996
6.97 0.0527916
6.98 0.0503842
6.99 0.0476244
7 0.0445702
7.01 0.0412792
7.02 0.0378307
7.03 0.0343118
7.04 0.0307935
7.05 0.0273423
7.06 0.024018
7.07 0.0208715
7.08 0.0179691
7.09 0.0153208
7.1 0.012937
7.11 0.0108189
7.12 0.00895617
7.13 0.00732787
7.14 0.00591039
7.15 0.00466655
7.16 0.00353696
7.17 0.00247521
7.18 0.0014346
7.19 0.000370296
7.2 -0.00075859
7.21 -0.00199904
7.22 -0.00337394
7.23 -0.00489747
7.24 -0.00657696
7.25 -0.00840998
7.26 -0.0103845
7.27 -0.0124818
7.28 -0.0146731
7.29 -0.0169099
7.3 -0.019149
7.31 -0.0213438
7.32 -0.023446
7.33 -0.0254078
7.34 -0.0271646
7.35 -0.0286783
7.36 -0.0299207
7.37 -0.0308639
7.38 -0.0314879
7.39 -0.0317813
7.4 -0.0317361
7.41 -0.0313341
7.42 -0.0306262
7.43 -0.0296384
7.44 -0.0284036
7.45 -0.0269608
7.46 -0.025354
7.47 -0.0236261
7.48 -0.0218365
7.49 -0.0200407
7.5 -0.0182879
7.51 -0.0166252
7.52 -0.0150962
7.53 -0.0137418
7.54 -0.0126217
7.55 -0.011743
7.56 -0.0111271
7.57 -0.010789
7.58 -0.0107376
7.59 -0.0109759
7.6 -0.0115176
7.61 -0.0123526
7.62 -0.0134505
7.63 -0.0147934
7.64 -0.01636
7.65 -0.0181262
7.66 -0.0200656
7.67 -0.0221632
7.68 -0.024371
7.69 -0.0266581
7.7 -0.0289942
7.71 -0.0313492
7.72 -0.0336932
7.73 -0.0359944
7.74 -0.0382197
7.75 -0.0403466
7.76 -0.0423513
7.77 -0.0442125
7.78 -0.045911
7.79 -0.0474308
7.8 -0.0487385
7.81 -0.0498402
7.82 -0.0507344
7.83 -0.05142
7.84 -0.0519003
7.85 -0.0521822
7.86 -0.0522709
7.87 -0.0521765
7.88 -0.0519332
7.89 -0.0515637
7.9 -0.0510927
7.91 -0.0505467
7.92 -0.0499532
7.93 -0.0493404
7.94 -0.0487387
7.95 -0.0481728
7.96 -0.0476635
7.97 -0.0472277
7.98 -0.0468779
7.99 -0.0466235
8 -0.0464715
8.01 -0.0464071
8.02 -0.0464181
8.03 -0.046487
8.04 -0.0465909
8.05 -0.046703
8.06 -0.0467889
8.07 -0.0468127
8.08 -0.0467429
8.09 -0.046548
8.1 -0.0461994
8.11 -0.0456727
8.12 -0.0449461
8.13 -0.043989
8.14 -0.0428204
8.15 -0.0414477
8.16 -0.0398876
8.17 -0.0381661
8.18 -0.0363179
8.19 -0.0343841
8.2 -0.0324244
8.21 -0.0304996
8.22 -0.02867
8.23 -0.0269968
8.24 -0.0255405
8.25 -0.0243593
8.26 -0.0235456
8.27 -0.0231079
8.28 -0.0230767
8.29 -0.0234702
8.3 -0.024293
8.31 -0.0255354
8.32 -0.0271928
8.33 -0.029219
8.34 -0.0315328
8.35 -0.0340643
8.36 -0.0367328
8.37 -0.0394489
8.38 -0.0421173
8.39 -0.0446127
8.4 -0.0468418
8.41 -0.0487123
8.42 -0.0501377
8.43 -0.0510417
8.44 -0.0513611
8.45 -0.051018
8.46 -0.0499622
8.47 -0.0482331
8.48 -0.0458433
8.49 -0.0428246
8.5 -0.0392276
8.51 -0.0351199
8.52 -0.030552
8.53 -0.0256663
8.54 -0.0205781
8.55 -0.0154002
8.56 -0.0102476
8.57 -0.00523324
8.58 -0.000476792
8.59 0.00389407
8.6 0.00781835
8.61 0.0112285
8.62 0.0140745
8.63 0.0163251
8.64 0.0179686
8.65 0.0189635
8.66 0.019378
8.67 0.0192796
8.68 0.0187335
8.69 0.0178171
8.7 0.0166181
8.71 0.0152281
8.72 0.01375
8.73 0.0122949
8.74 0.0109529
8.75 0.00980541
8.76 0.00892284
8.77 0.008362
8.78 0.0081939
8.79 0.00843099
8.8 0.00906098
8.81 0.0100698
8.82 0.0114275
8.83 0.0130896
8.84 0.0150016
8.85 0.0171046
8.86 0.0192993
8.87 0.0215082
8.88 0.0236543
8.89 0.0256641
8.9 0.0274707
8.91 0.0289963
8.92 0.0301932
8.93 0.0310464
8.94 0.0315413
8.95 0.0316784
8.96 0.0314731
8.97 0.0309541
8.98 0.030138
8.99 0.029115
9 0.0279473
9.01 0.0267016
9.02 0.0254462
9.03 0.0242482
9.04 0.0231801
9.05 0.0223066
9.06 0.0216626
9.07 0.0212797
9.08 0.021176
9.09 0.0213554
9.1 0.0218078
9.11 0.0225316
9.12 0.0234598
9.13 0.024539
9.14 0.02571
9.15 0.0269079
9.16 0.0280644
9.17 0.0291041
9.18 0.0299481
9.19 0.0305487
9.2 0.030859
9.21 0.0308436
9.22 0.0304809
9.23 0.0297638
9.24 0.02867
9.25 0.0272546
9.26 0.0255672
9.27 0.0236633
9.28 0.0216088
9.29 0.0194783
9.3 0.0173547
9.31 0.0153359
9.32 0.0135006
9.33 0.0119236
9.34 0.0106711
9.35 0.00979787
9.36 0.00934479
9.37 0.00937538
9.38 0.00987196
9.39 0.0108049
9.4 0.0121415
9.41 0.0138321
9.42 0.0158118
9.43 0.0180051
9.44 0.0203207
9.45 0.0226431
9.46 0.0248732
9.47 0.0269132
9.48 0.0286703
9.49 0.0300602
9.5 0.0309738
9.51 0.0313614
9.52 0.0312075
9.53 0.0304961
9.54 0.0292314
9.55 0.0274378
9.56 0.0251554
9.57 0.0224147
9.58 0.0193491
9.59 0.0160536
9.6 0.012632
9.61 0.00919376
9.62 0.00584972
9.63 0.00272767
9.64 -5.80923e-05
9.65 -0.00243121
9.66 -0.00431782
9.67 -0.0056611
9.68 -0.00642335
9.69 -0.00658729
9.7 -0.00609094
9.71 -0.00503319
9.72 -0.00346486
9.73 -0.00145343
9.74 0.00091862
9.75 0.00355683
9.76 0.00636085
9.77 0.00920754
9.78 0.0119799
9.79 0.014575
9.8 0.0168987
9.81 0.0188682
9.82 0.0204158
9.83 0.0214383
9.84 0.0219481
9.85 0.0219457
9.86 0.0214457
9.87 0.0204823
9.88 0.0191079
9.89 0.0173807
9.9 0.0153863
9.91 0.0132443
9.92 0.0110543
9.93 0.00891755
9.94 0.00693311
9.95 0.00519406
9.96 0.00382149
9.97 0.00286893
9.98 0.00237914
9.99 0.00238503
10 0.00290039
10.01 0.00391948
10.02 0.00542979
10.03 0.00740504
10.04 0.00973912
10.05 0.0123538
10.06 0.01516
10.07 0.0180613
10.08 0.020957
10.09 0.0237291
10.1 0.0262737
10.11 0.0285065
10.12 0.0303504
10.13 0.0317413
10.14 0.0326313
10.15 0.0329794
10.16 0.0327297
10.17 0.0319461
10.18 0.0306571
10.19 0.0289075
10.2 0.0267569
10.21 0.0242771
10.22 0.0215385
10.23 0.0186484
10.24 0.0157094
10.25 0.0128122
10.26 0.0100433
10.27 0.00748256
10.28 0.00520237
10.29 0.00330111
10.3 0.00178734
10.31 0.00068671
10.32 9.38222e-06
10.33 -0.000249803
10.34 -0.000110695
10.35 0.000412366
10.36 0.00126434
10.37 0.00236729
10.38 0.003657
10.39 0.00506498
10.4 0.00652108
10.41 0.00795604
10.42 0.00928726
10.43 0.0104595
10.44 0.0114228
10.45 0.0121362
10.46 0.0125693
10.47 0.0127024
10.48 0.0125124
10.49 0.0119977
10.5 0.0111948
10.51 0.0101275
10.52 0.00882689
10.53 0.00732965
10.54 0.00567623
10.55 0.00390189
10.56 0.00206349
10.57 0.000203036
10.58 -0.00164248
10.59 -0.00344062
10.6 -0.00516441
10.61 -0.00678862
10.62 -0.00829276
10.63 -0.00967766
10.64 -0.0109419
10.65 -0.0120887
10.66 -0.0131253
10.67 -0.0140616
10.68 -0.0149018
10.69 -0.0156646
10.7 -0.0163624
10.71 -0.0170031
10.72 -0.0175914
10.73 -0.0181281
10.74 -0.0186084
10.75 -0.0190194
10.76 -0.0193536
10.77 -0.0195954
10.78 -0.0197268
10.79 -0.0197282
10.8 -0.0195803
10.81 -0.01925
10.82 -0.0187274
10.83 -0.0180086
10.84 -0.0170888
10.85 -0.0159701
10.86 -0.0146618
10.87 -0.0131787
10.88 -0.011538
10.89 -0.00979202
10.9 -0.00798324
10.91 -0.0061602
10.92 -0.00437622
10.93 -0.00268772
10.94 -0.00116707
10.95 0.00012395
10.96 0.00114019
10.97 0.00183426
10.98 0.0021663
10.99 0.0021058
11 0.00163123
11.01 0.000690475
11.02 -0.000660509
11.03 -0.00239909
11.04 -0.00448944
11.05 -0.00688321
11.06 -0.00952061
11.07 -0.0123373
11.08 -0.0152427
11.09 -0.0181429
11.1 -0.020951
11.11 -0.0235807
11.12 -0.0259485
11.13 -0.027977
11.14 -0.0295449
11.15 -0.0306328
11.16 -0.0312011
11.17 -0.0312221
11.18 -0.0306838
11.19 -0.0295901
11.2 -0.0279377
11.21 -0.0257576
11.22 -0.0231407
11.23 -0.020153
11.24 -0.0168705
11.25 -0.0133772
11.26 -0.00976203
11.27 -0.00612287
11.28 -0.00256276
11.29 0.000831668
11.3 0.00398082
11.31 0.00681418
11.32 0.00927228
11.33 0.0112922
11.34 0.0128176
11.35 0.0138693
11.36 0.0144481
11.37 0.0145688
11.38 0.0142595
11.39 0.0135606
11.4 0.0124978
11.41 0.0111584
11.42 0.00961785
11.43 0.00794467
11.44 0.00620786
11.45 0.00447433
11.46 0.00280986
11.47 0.00128561
11.48 -5.9767e-05
11.49 -0.00119015
11.5 -0.00208002
11.51 -0.00271482
11.52 -0.00309105
11.53 -0.00319778
11.54 -0.00306524
11.55 -0.00273122
11.56 -0.00223035
11.57 -0.00160232
11.58 -0.000890083
11.59 -0.000138052
11.6 0.000604475
11.61 0.00129385
11.62 0.00189414
11.63 0.00237521
11.64 0.0027138
11.65 0.00289427
11.66 0.00289809
11.67 0.00272968
11.68 0.00240796
11.69 0.00195033
11.7 0.00138026
11.71 0.000726033
11.72 1.94087e-05
11.73 -0.000703835
11.74 -0.00140433
11.75 -0.00204944
11.76 -0.00260945
11.77 -0.00305877
11.78 -0.00337698
11.79 -0.00354119
11.8 -0.00354233
11.81 -0.00339037
11.82 -0.00309278
11.83 -0.0026633
11.84 -0.00212118
