# xPDFsuite Configuration #
[PDF]
wavelength = 0.1
dataformat = QA
inputfile = BiMsol6_insitu_700 C-00708.xy
backgroundfile = Quartz2mm-dist500-00000.xy
mode = xray
bgscale = 0.0042
composition = Bi2Fe4O9
outputtype = gr
qmaxinst = 24.998449118
qmin = 0.1
qmax = 21.4986662415
rmax = 80.0
rmin = 0.0
rstep = 0.01
rpoly = 0.9

[Misc]
inputdir = C:/Data/Seafile/CPH/Beamtime/Desy Oct 20/In situ data/Processed/BiMsol6/PDF
savedir = C:/Data/Seafile/CPH/Beamtime/Desy Oct 20/In situ data/PDF/BiMsol6
backgroundfilefull = C:/Data/Seafile/CPH/Beamtime/Desy Oct 20/In situ data/Processed/Standard_Empty_Cap/Quartz2mm-dist500-00000.xy

#### start data
#S 1
#L r($\AA$)  G($\AA^{-2}$)
0 0
0.01 0.00577706
0.02 0.0112211
0.03 0.0160475
0.04 0.0200008
0.05 0.0228674
0.06 0.0244852
0.07 0.0246774
0.08 0.0233949
0.09 0.0207722
0.1 0.0169211
0.11 0.0120132
0.12 0.00627253
0.13 -3.47644e-05
0.14 -0.00660731
0.15 -0.0130735
0.16 -0.0191191
0.17 -0.0244504
0.18 -0.0288055
0.19 -0.0319678
0.2 -0.0337157
0.21 -0.0339025
0.22 -0.0326283
0.23 -0.029964
0.24 -0.0260532
0.25 -0.0211073
0.26 -0.0153977
0.27 -0.00923681
0.28 -0.00305728
0.29 0.0027555
0.3 0.00782832
0.31 0.011809
0.32 0.0143837
0.33 0.0152364
0.34 0.0140615
0.35 0.0109256
0.36 0.00584231
0.37 -0.00107614
0.38 -0.0096177
0.39 -0.0194739
0.4 -0.030283
0.41 -0.0414508
0.42 -0.0523965
0.43 -0.0625296
0.44 -0.0712426
0.45 -0.0779332
0.46 -0.0819662
0.47 -0.0825215
0.48 -0.0794423
0.49 -0.0724102
0.5 -0.0612252
0.51 -0.0458188
0.52 -0.0262629
0.53 -0.0025155
0.54 0.0248765
0.55 0.0552042
0.56 0.0878084
0.57 0.121923
0.58 0.156698
0.59 0.191208
0.6 0.224268
0.61 0.254977
0.62 0.282419
0.63 0.305737
0.64 0.324167
0.65 0.337056
0.66 0.343491
0.67 0.343118
0.68 0.336129
0.69 0.322552
0.7 0.302588
0.71 0.27661
0.72 0.245151
0.73 0.208431
0.74 0.167885
0.75 0.124449
0.76 0.0791117
0.77 0.0328943
0.78 -0.0131764
0.79 -0.0579918
0.8 -0.100443
0.81 -0.139784
0.82 -0.175293
0.83 -0.206383
0.84 -0.23261
0.85 -0.253689
0.86 -0.26895
0.87 -0.278934
0.88 -0.283938
0.89 -0.284325
0.9 -0.280578
0.91 -0.27328
0.92 -0.263009
0.93 -0.250503
0.94 -0.236719
0.95 -0.222394
0.96 -0.208235
0.97 -0.194894
0.98 -0.18295
0.99 -0.173104
1 -0.165643
1.01 -0.160762
1.02 -0.158591
1.03 -0.159147
1.04 -0.162337
1.05 -0.168032
1.06 -0.176039
1.07 -0.185779
1.08 -0.196842
1.09 -0.208788
1.1 -0.221166
1.11 -0.233534
1.12 -0.245413
1.13 -0.256409
1.14 -0.266238
1.15 -0.274669
1.16 -0.281542
1.17 -0.286777
1.18 -0.290339
1.19 -0.292183
1.2 -0.292621
1.21 -0.291854
1.22 -0.290124
1.23 -0.2877
1.24 -0.284864
1.25 -0.281906
1.26 -0.27913
1.27 -0.276766
1.28 -0.275002
1.29 -0.273973
1.3 -0.27376
1.31 -0.27439
1.32 -0.2759
1.33 -0.278092
1.34 -0.280809
1.35 -0.283858
1.36 -0.287015
1.37 -0.290038
1.38 -0.292642
1.39 -0.294552
1.4 -0.29558
1.41 -0.295548
1.42 -0.294323
1.43 -0.291823
1.44 -0.288023
1.45 -0.282829
1.46 -0.276494
1.47 -0.269193
1.48 -0.261148
1.49 -0.252621
1.5 -0.243906
1.51 -0.235341
1.52 -0.227303
1.53 -0.220091
1.54 -0.21399
1.55 -0.209249
1.56 -0.206069
1.57 -0.204592
1.58 -0.205074
1.59 -0.207358
1.6 -0.211327
1.61 -0.216822
1.62 -0.22362
1.63 -0.231433
1.64 -0.239937
1.65 -0.248715
1.66 -0.257313
1.67 -0.265322
1.68 -0.272339
1.69 -0.277988
1.7 -0.281928
1.71 -0.28367
1.72 -0.283096
1.73 -0.280126
1.74 -0.274701
1.75 -0.266842
1.76 -0.256651
1.77 -0.244257
1.78 -0.229824
1.79 -0.213869
1.8 -0.19676
1.81 -0.178899
1.82 -0.160706
1.83 -0.142604
1.84 -0.125072
1.85 -0.108518
1.86 -0.0932494
1.87 -0.0795399
1.88 -0.0675985
1.89 -0.0575641
1.9 -0.0495301
1.91 -0.0436472
1.92 -0.0396104
1.93 -0.0372517
1.94 -0.0363461
1.95 -0.0366223
1.96 -0.0377748
1.97 -0.0394911
1.98 -0.0413813
1.99 -0.0431018
2 -0.0443601
2.01 -0.0449031
2.02 -0.0445275
2.03 -0.0430848
2.04 -0.0403701
2.05 -0.0365179
2.06 -0.0316097
2.07 -0.0257946
2.08 -0.0192844
2.09 -0.0123456
2.1 -0.00530327
2.11 0.00144085
2.12 0.0075166
2.13 0.012557
2.14 0.0162084
2.15 0.0181445
2.16 0.0180792
2.17 0.0155145
2.18 0.0105026
2.19 0.00297803
2.2 -0.00706668
2.21 -0.0195623
2.22 -0.0343646
2.23 -0.0513395
2.24 -0.0702042
2.25 -0.0904625
2.26 -0.111724
2.27 -0.13357
2.28 -0.155568
2.29 -0.177284
2.3 -0.198189
2.31 -0.217909
2.32 -0.236118
2.33 -0.252529
2.34 -0.266916
2.35 -0.279122
2.36 -0.28898
2.37 -0.296374
2.38 -0.301566
2.39 -0.304698
2.4 -0.305966
2.41 -0.305619
2.42 -0.303943
2.43 -0.301194
2.44 -0.297803
2.45 -0.294132
2.46 -0.290503
2.47 -0.287214
2.48 -0.28453
2.49 -0.282701
2.5 -0.281991
2.51 -0.282429
2.52 -0.28407
2.53 -0.286915
2.54 -0.290913
2.55 -0.295965
2.56 -0.301986
2.57 -0.308739
2.58 -0.31598
2.59 -0.323486
2.6 -0.331032
2.61 -0.338395
2.62 -0.345356
2.63 -0.351652
2.64 -0.357175
2.65 -0.361807
2.66 -0.365464
2.67 -0.368105
2.68 -0.369724
2.69 -0.370294
2.7 -0.369912
2.71 -0.368731
2.72 -0.36688
2.73 -0.3645
2.74 -0.361744
2.75 -0.358765
2.76 -0.35572
2.77 -0.352766
2.78 -0.350019
2.79 -0.347572
2.8 -0.345493
2.81 -0.343823
2.82 -0.342593
2.83 -0.341787
2.84 -0.341329
2.85 -0.341149
2.86 -0.34116
2.87 -0.341261
2.88 -0.341345
2.89 -0.341274
2.9 -0.340944
2.91 -0.340258
2.92 -0.339133
2.93 -0.337501
2.94 -0.335312
2.95 -0.332509
2.96 -0.329066
2.97 -0.32504
2.98 -0.320459
2.99 -0.315366
3 -0.30981
3.01 -0.303845
3.02 -0.297495
3.03 -0.290838
3.04 -0.283912
3.05 -0.276736
3.06 -0.269304
3.07 -0.261592
3.08 -0.253537
3.09 -0.245031
3.1 -0.236
3.11 -0.226318
3.12 -0.215846
3.13 -0.204429
3.14 -0.191907
3.15 -0.177999
3.16 -0.162596
3.17 -0.145603
3.18 -0.126903
3.19 -0.106406
3.2 -0.0840571
3.21 -0.0598003
3.22 -0.0335294
3.23 -0.00550581
3.24 0.0241439
3.25 0.0552484
3.26 0.0875941
3.27 0.120928
3.28 0.154992
3.29 0.189402
3.3 0.22379
3.31 0.257804
3.32 0.291092
3.33 0.323305
3.34 0.354092
3.35 0.382937
3.36 0.409721
3.37 0.434205
3.38 0.45619
3.39 0.475522
3.4 0.492089
3.41 0.505653
3.42 0.516226
3.43 0.524
3.44 0.529054
3.45 0.531503
3.46 0.531491
3.47 0.529185
3.48 0.524552
3.49 0.518048
3.5 0.509879
3.51 0.500247
3.52 0.489345
3.53 0.477356
3.54 0.464408
3.55 0.450659
3.56 0.436295
3.57 0.421423
3.58 0.406132
3.59 0.390494
3.6 0.374568
3.61 0.35838
3.62 0.341995
3.63 0.325454
3.64 0.308793
3.65 0.292054
3.66 0.275286
3.67 0.258555
3.68 0.241949
3.69 0.225555
3.7 0.209478
3.71 0.193837
3.72 0.178764
3.73 0.164398
3.74 0.150986
3.75 0.138638
3.76 0.127488
3.77 0.117684
3.78 0.109368
3.79 0.102668
3.8 0.0977508
3.81 0.0948239
3.82 0.0937991
3.83 0.0947158
3.84 0.0975878
3.85 0.102403
3.86 0.109121
3.87 0.117825
3.88 0.128323
3.89 0.14044
3.9 0.154044
3.91 0.168991
3.92 0.185128
3.93 0.202307
3.94 0.220412
3.95 0.239181
3.96 0.258453
3.97 0.278076
3.98 0.297905
3.99 0.317805
4 0.337641
4.01 0.35729
4.02 0.376659
4.03 0.39566
4.04 0.414217
4.05 0.432263
4.06 0.449732
4.07 0.466495
4.08 0.482563
4.09 0.497883
4.1 0.512404
4.11 0.526069
4.12 0.538822
4.13 0.550539
4.14 0.561149
4.15 0.57064
4.16 0.578945
4.17 0.585992
4.18 0.591714
4.19 0.596042
4.2 0.598742
4.21 0.599913
4.22 0.599512
4.23 0.5975
4.24 0.593852
4.25 0.588549
4.26 0.581509
4.27 0.572712
4.28 0.562296
4.29 0.550298
4.3 0.536765
4.31 0.521757
4.32 0.50534
4.33 0.48746
4.34 0.468321
4.35 0.448028
4.36 0.426666
4.37 0.404322
4.38 0.381079
4.39 0.356994
4.4 0.332128
4.41 0.306621
4.42 0.280547
4.43 0.253978
4.44 0.226981
4.45 0.199626
4.46 0.17196
4.47 0.144078
4.48 0.116058
4.49 0.0879748
4.5 0.0599058
4.51 0.0319331
4.52 0.00415127
4.53 -0.0233176
4.54 -0.0503944
4.55 -0.0769783
4.56 -0.102967
4.57 -0.128255
4.58 -0.152742
4.59 -0.176247
4.6 -0.198704
4.61 -0.220061
4.62 -0.240244
4.63 -0.259191
4.64 -0.276852
4.65 -0.293175
4.66 -0.308028
4.67 -0.32155
4.68 -0.333766
4.69 -0.344713
4.7 -0.354449
4.71 -0.363044
4.72 -0.370513
4.73 -0.376989
4.74 -0.382623
4.75 -0.387524
4.76 -0.391801
4.77 -0.39556
4.78 -0.398906
4.79 -0.40191
4.8 -0.404702
4.81 -0.407355
4.82 -0.409932
4.83 -0.412479
4.84 -0.415029
4.85 -0.417606
4.86 -0.420214
4.87 -0.422844
4.88 -0.425477
4.89 -0.428086
4.9 -0.430638
4.91 -0.433094
4.92 -0.435395
4.93 -0.437511
4.94 -0.439403
4.95 -0.441038
4.96 -0.442385
4.97 -0.443419
4.98 -0.444105
4.99 -0.444421
5 -0.444385
5.01 -0.443995
5.02 -0.443253
5.03 -0.442163
5.04 -0.440731
5.05 -0.438928
5.06 -0.436785
5.07 -0.434307
5.08 -0.431487
5.09 -0.428314
5.1 -0.424774
5.11 -0.42083
5.12 -0.416434
5.13 -0.411587
5.14 -0.406258
5.15 -0.400414
5.16 -0.394027
5.17 -0.387068
5.18 -0.379466
5.19 -0.371245
5.2 -0.362425
5.21 -0.353019
5.22 -0.343058
5.23 -0.332587
5.24 -0.321654
5.25 -0.310323
5.26 -0.298728
5.27 -0.286973
5.28 -0.275176
5.29 -0.263462
5.3 -0.25196
5.31 -0.240838
5.32 -0.23023
5.33 -0.220243
5.34 -0.21099
5.35 -0.202568
5.36 -0.195059
5.37 -0.18854
5.38 -0.183148
5.39 -0.178793
5.4 -0.175465
5.41 -0.173134
5.42 -0.171744
5.43 -0.171221
5.44 -0.17152
5.45 -0.172503
5.46 -0.174013
5.47 -0.175923
5.48 -0.178107
5.49 -0.180437
5.5 -0.182791
5.51 -0.185036
5.52 -0.187076
5.53 -0.188827
5.54 -0.190227
5.55 -0.191227
5.56 -0.191798
5.57 -0.191905
5.58 -0.191553
5.59 -0.19079
5.6 -0.18965
5.61 -0.188173
5.62 -0.186404
5.63 -0.184389
5.64 -0.182152
5.65 -0.179753
5.66 -0.177217
5.67 -0.174556
5.68 -0.171767
5.69 -0.168833
5.7 -0.165709
5.71 -0.16233
5.72 -0.158641
5.73 -0.154562
5.74 -0.150007
5.75 -0.14488
5.76 -0.139088
5.77 -0.132454
5.78 -0.124942
5.79 -0.116498
5.8 -0.107063
5.81 -0.0966031
5.82 -0.0851022
5.83 -0.0725374
5.84 -0.0589015
5.85 -0.0443488
5.86 -0.0289727
5.87 -0.0128896
5.88 0.00376339
5.89 0.0208315
5.9 0.0381524
5.91 0.0555126
5.92 0.0727248
5.93 0.0896113
5.94 0.106003
5.95 0.121744
5.96 0.136675
5.97 0.150601
5.98 0.163515
5.99 0.175361
6 0.186111
6.01 0.195766
6.02 0.204355
6.03 0.211866
6.04 0.218424
6.05 0.224175
6.06 0.229238
6.07 0.233739
6.08 0.237808
6.09 0.241573
6.1 0.245151
6.11 0.248678
6.12 0.252241
6.13 0.255906
6.14 0.259715
6.15 0.263684
6.16 0.267808
6.17 0.272036
6.18 0.27629
6.19 0.280474
6.2 0.284474
6.21 0.28816
6.22 0.291392
6.23 0.293935
6.24 0.295699
6.25 0.296542
6.26 0.296337
6.27 0.29497
6.28 0.292348
6.29 0.288329
6.3 0.282853
6.31 0.275998
6.32 0.267786
6.33 0.258267
6.34 0.247516
6.35 0.235633
6.36 0.222648
6.37 0.20881
6.38 0.194284
6.39 0.179228
6.4 0.163804
6.41 0.148166
6.42 0.132468
6.43 0.116865
6.44 0.101474
6.45 0.0863889
6.46 0.0716835
6.47 0.0574069
6.48 0.0435854
6.49 0.0302644
6.5 0.0173874
6.51 0.0049031
6.52 -0.00724483
6.53 -0.0191241
6.54 -0.0308102
6.55 -0.0423813
6.56 -0.0539241
6.57 -0.0655193
6.58 -0.0772299
6.59 -0.0891064
6.6 -0.101184
6.61 -0.113483
6.62 -0.12602
6.63 -0.138761
6.64 -0.151659
6.65 -0.164654
6.66 -0.177675
6.67 -0.190635
6.68 -0.203434
6.69 -0.215935
6.7 -0.228046
6.71 -0.239662
6.72 -0.250677
6.73 -0.260995
6.74 -0.270526
6.75 -0.279125
6.76 -0.286743
6.77 -0.293368
6.78 -0.298966
6.79 -0.303514
6.8 -0.307
6.81 -0.309416
6.82 -0.310668
6.83 -0.310886
6.84 -0.310093
6.85 -0.308311
6.86 -0.305559
6.87 -0.301856
6.88 -0.297157
6.89 -0.291474
6.9 -0.284856
6.91 -0.27729
6.92 -0.268757
6.93 -0.25923
6.94 -0.248676
6.95 -0.23693
6.96 -0.224066
6.97 -0.210048
6.98 -0.194839
6.99 -0.178407
7 -0.160729
7.01 -0.14173
7.02 -0.121393
7.03 -0.0998223
7.04 -0.0770539
7.05 -0.0531423
7.06 -0.0281593
7.07 -0.00219351
7.08 0.0247282
7.09 0.0523922
7.1 0.0806512
7.11 0.10936
7.12 0.138367
7.13 0.167516
7.14 0.196644
7.15 0.225568
7.16 0.254146
7.17 0.282238
7.18 0.309717
7.19 0.336467
7.2 0.362389
7.21 0.387303
7.22 0.411193
7.23 0.434031
7.24 0.455774
7.25 0.476394
7.26 0.495873
7.27 0.514165
7.28 0.531196
7.29 0.547062
7.3 0.561762
7.31 0.575289
7.32 0.58763
7.33 0.598769
7.34 0.608577
7.35 0.617068
7.36 0.624241
7.37 0.630041
7.38 0.634406
7.39 0.637268
7.4 0.638525
7.41 0.637956
7.42 0.635648
7.43 0.63153
7.44 0.625542
7.45 0.617631
7.46 0.607761
7.47 0.59577
7.48 0.581702
7.49 0.565672
7.5 0.547724
7.51 0.527924
7.52 0.506361
7.53 0.483137
7.54 0.458242
7.55 0.432015
7.56 0.404629
7.57 0.376272
7.58 0.347144
7.59 0.317452
7.6 0.287402
7.61 0.257239
7.62 0.227192
7.63 0.197465
7.64 0.168251
7.65 0.139733
7.66 0.112076
7.67 0.0855593
7.68 0.0602163
7.69 0.0361487
7.7 0.013444
7.71 -0.00783073
7.72 -0.0276276
7.73 -0.0458452
7.74 -0.0624408
7.75 -0.0775284
7.76 -0.0911319
7.77 -0.103287
7.78 -0.114041
7.79 -0.123449
7.8 -0.13145
7.81 -0.138227
7.82 -0.143873
7.83 -0.148458
7.84 -0.152055
7.85 -0.154733
7.86 -0.156533
7.87 -0.157495
7.88 -0.157745
7.89 -0.15734
7.9 -0.156334
7.91 -0.154774
7.92 -0.152704
7.93 -0.150126
7.94 -0.147109
7.95 -0.143698
7.96 -0.139921
7.97 -0.135806
7.98 -0.131377
7.99 -0.126649
8 -0.121629
8.01 -0.116363
8.02 -0.11087
8.03 -0.105171
8.04 -0.0992858
8.05 -0.0932348
8.06 -0.0870311
8.07 -0.0807072
8.08 -0.0742943
8.09 -0.0678204
8.1 -0.0613155
8.11 -0.0548123
8.12 -0.0483466
8.13 -0.041967
8.14 -0.0357088
8.15 -0.0296134
8.16 -0.0237233
8.17 -0.0180816
8.18 -0.0127313
8.19 -0.00773963
8.2 -0.00314621
8.21 0.00102953
8.22 0.00475551
8.23 0.0080048
8.24 0.0107566
8.25 0.0129955
8.26 0.0146586
8.27 0.0158093
8.28 0.0164614
8.29 0.0166377
8.3 0.0163698
8.31 0.015698
8.32 0.0146532
8.33 0.0132985
8.34 0.0117164
8.35 0.00997224
8.36 0.00813303
8.37 0.00626587
8.38 0.00443589
8.39 0.00272112
8.4 0.00117081
8.41 -0.000171002
8.42 -0.00126952
8.43 -0.00210133
8.44 -0.00265552
8.45 -0.00292277
8.46 -0.00291664
8.47 -0.00269014
8.48 -0.00228946
8.49 -0.00177264
8.5 -0.00120812
8.51 -0.000672974
8.52 -0.000270698
8.53 -9.02878e-05
8.54 -0.000218685
8.55 -0.000743266
8.56 -0.00174689
8.57 -0.00330536
8.58 -0.00550827
8.59 -0.00844899
8.6 -0.0121125
8.61 -0.0165209
8.62 -0.0216807
8.63 -0.0275819
8.64 -0.0341987
8.65 -0.0415437
8.66 -0.0495135
8.67 -0.058017
8.68 -0.0669733
8.69 -0.0762937
8.7 -0.0858848
8.71 -0.0956524
8.72 -0.105495
8.73 -0.115306
8.74 -0.125003
8.75 -0.134509
8.76 -0.143759
8.77 -0.1527
8.78 -0.161263
8.79 -0.169431
8.8 -0.177209
8.81 -0.184599
8.82 -0.191616
8.83 -0.198283
8.84 -0.204629
8.85 -0.210672
8.86 -0.216488
8.87 -0.22212
8.88 -0.227609
8.89 -0.232994
8.9 -0.238307
8.91 -0.243568
8.92 -0.248795
8.93 -0.253991
8.94 -0.259148
8.95 -0.264245
8.96 -0.269252
8.97 -0.27413
8.98 -0.278805
8.99 -0.283237
9 -0.287368
9.01 -0.291139
9.02 -0.294491
9.03 -0.297368
9.04 -0.299689
9.05 -0.301402
9.06 -0.302511
9.07 -0.302998
9.08 -0.302857
9.09 -0.302093
9.1 -0.300728
9.11 -0.298735
9.12 -0.296222
9.13 -0.293249
9.14 -0.289882
9.15 -0.286192
9.16 -0.282252
9.17 -0.278134
9.18 -0.273922
9.19 -0.269697
9.2 -0.265524
9.21 -0.261459
9.22 -0.25755
9.23 -0.253832
9.24 -0.250353
9.25 -0.24711
9.26 -0.244094
9.27 -0.241295
9.28 -0.23869
9.29 -0.236249
9.3 -0.233936
9.31 -0.231709
9.32 -0.229514
9.33 -0.227305
9.34 -0.225041
9.35 -0.222684
9.36 -0.220204
9.37 -0.217561
9.38 -0.214747
9.39 -0.211763
9.4 -0.208615
9.41 -0.205315
9.42 -0.201887
9.43 -0.198358
9.44 -0.194764
9.45 -0.191152
9.46 -0.187563
9.47 -0.184035
9.48 -0.180605
9.49 -0.177301
9.5 -0.17416
9.51 -0.17119
9.52 -0.168382
9.53 -0.165726
9.54 -0.163194
9.55 -0.160748
9.56 -0.158338
9.57 -0.155889
9.58 -0.153324
9.59 -0.150558
9.6 -0.147504
9.61 -0.144066
9.62 -0.140153
9.63 -0.135629
9.64 -0.130399
9.65 -0.124416
9.66 -0.117611
9.67 -0.109925
9.68 -0.101317
9.69 -0.0917564
9.7 -0.0811203
9.71 -0.0695254
9.72 -0.0569972
9.73 -0.0435752
9.74 -0.0293129
9.75 -0.014277
9.76 0.00148608
9.77 0.0178841
9.78 0.0347774
9.79 0.0520676
9.8 0.0696547
9.81 0.08744
9.82 0.105328
9.83 0.123219
9.84 0.14102
9.85 0.158658
9.86 0.176068
9.87 0.193193
9.88 0.209987
9.89 0.226396
9.9 0.242375
9.91 0.257932
9.92 0.273053
9.93 0.28773
9.94 0.301958
9.95 0.31573
9.96 0.329001
9.97 0.341795
9.98 0.354115
9.99 0.365949
10 0.377281
10.01 0.38809
10.02 0.398336
10.03 0.407952
10.04 0.416954
10.05 0.425309
10.06 0.432983
10.07 0.439942
10.08 0.446155
10.09 0.451529
10.1 0.45608
10.11 0.459821
10.12 0.462751
10.13 0.464877
10.14 0.466215
10.15 0.466782
10.16 0.466566
10.17 0.465696
10.18 0.464235
10.19 0.462257
10.2 0.459841
10.21 0.457073
10.22 0.454032
10.23 0.450827
10.24 0.447561
10.25 0.444319
10.26 0.441181
10.27 0.43822
10.28 0.435499
10.29 0.433101
10.3 0.431033
10.31 0.429312
10.32 0.42794
10.33 0.426906
10.34 0.42618
10.35 0.425733
10.36 0.425498
10.37 0.425389
10.38 0.425325
10.39 0.425217
10.4 0.424972
10.41 0.424491
10.42 0.423628
10.43 0.422313
10.44 0.420457
10.45 0.417975
10.46 0.414789
10.47 0.410834
10.48 0.406012
10.49 0.400259
10.5 0.393604
10.51 0.386035
10.52 0.377553
10.53 0.368168
10.54 0.357905
10.55 0.346719
10.56 0.334732
10.57 0.322012
10.58 0.308618
10.59 0.294616
10.6 0.280072
10.61 0.265039
10.62 0.249577
10.63 0.233789
10.64 0.217736
10.65 0.201475
10.66 0.18506
10.67 0.168536
10.68 0.151943
10.69 0.135322
10.7 0.118704
10.71 0.102111
10.72 0.0855606
10.73 0.0690663
10.74 0.0526403
10.75 0.0362951
10.76 0.0200296
10.77 0.00384796
10.78 -0.0122461
10.79 -0.0282485
10.8 -0.0441541
10.81 -0.0599478
10.82 -0.0756247
10.83 -0.0911788
10.84 -0.106598
10.85 -0.12187
10.86 -0.13698
10.87 -0.151909
10.88 -0.166623
10.89 -0.181125
10.9 -0.195398
10.91 -0.209429
10.92 -0.223205
10.93 -0.236715
10.94 -0.249929
10.95 -0.262846
10.96 -0.275476
10.97 -0.287816
10.98 -0.299866
10.99 -0.311628
11 -0.323103
11.01 -0.334264
11.02 -0.345148
11.03 -0.355755
11.04 -0.366088
11.05 -0.376144
11.06 -0.38592
11.07 -0.395391
11.08 -0.404543
11.09 -0.413376
11.1 -0.421869
11.11 -0.429996
11.12 -0.437726
11.13 -0.445025
11.14 -0.451798
11.15 -0.458047
11.16 -0.463731
11.17 -0.468804
11.18 -0.47322
11.19 -0.476931
11.2 -0.479859
11.21 -0.481936
11.22 -0.48318
11.23 -0.483559
11.24 -0.483047
11.25 -0.481627
11.26 -0.479285
11.27 -0.475926
11.28 -0.47163
11.29 -0.466429
11.3 -0.460341
11.31 -0.453396
11.32 -0.445626
11.33 -0.437047
11.34 -0.427674
11.35 -0.417622
11.36 -0.406941
11.37 -0.395684
11.38 -0.383906
11.39 -0.371659
11.4 -0.358962
11.41 -0.345894
11.42 -0.332512
11.43 -0.318856
11.44 -0.304964
11.45 -0.290869
11.46 -0.276597
11.47 -0.262167
11.48 -0.247615
11.49 -0.232962
11.5 -0.218225
11.51 -0.203421
11.52 -0.188569
11.53 -0.173685
11.54 -0.158795
11.55 -0.143923
11.56 -0.129096
11.57 -0.114347
11.58 -0.0997093
11.59 -0.0852259
11.6 -0.0709638
11.61 -0.0569548
11.62 -0.0432498
11.63 -0.029902
11.64 -0.0169655
11.65 -0.00449424
11.66 0.00742148
11.67 0.018733
11.68 0.0294227
11.69 0.0394521
11.7 0.0487898
11.71 0.0574123
11.72 0.0653037
11.73 0.0723768
11.74 0.0787241
11.75 0.0843636
11.76 0.0893237
11.77 0.0936419
11.78 0.097364
11.79 0.100517
11.8 0.103167
11.81 0.105413
11.82 0.107319
11.83 0.108954
11.84 0.110383
11.85 0.111668
11.86 0.112859
11.87 0.114019
11.88 0.115184
11.89 0.116382
11.9 0.117628
11.91 0.118925
11.92 0.120265
11.93 0.121623
11.94 0.122959
11.95 0.124226
11.96 0.125368
11.97 0.126321
11.98 0.127013
11.99 0.127329
12 0.127207
12.01 0.126576
12.02 0.12536
12.03 0.123488
12.04 0.120892
12.05 0.117487
12.06 0.113177
12.07 0.107991
12.08 0.101906
12.09 0.0949082
12.1 0.086997
12.11 0.0781835
12.12 0.0684178
12.13 0.0577872
12.14 0.0463646
12.15 0.0342044
12.16 0.0213677
12.17 0.00792167
