# xPDFsuite Configuration #
[PDF]
wavelength = 0.1
dataformat = QA
inputfile = BiMsol6_insitu_700 C-00593.xy
backgroundfile = Quartz2mm-dist500-00000.xy
mode = xray
bgscale = 0.0042
composition = Bi2Fe4O9
outputtype = gr
qmaxinst = 24.998449118
qmin = 0.1
qmax = 21.4986662415
rmax = 80.0
rmin = 0.0
rstep = 0.01
rpoly = 0.9

[Misc]
inputdir = C:/Data/Seafile/CPH/Beamtime/Desy Oct 20/In situ data/Processed/BiMsol6/PDF
savedir = C:/Data/Seafile/CPH/Beamtime/Desy Oct 20/In situ data/PDF/BiMsol6
backgroundfilefull = C:/Data/Seafile/CPH/Beamtime/Desy Oct 20/In situ data/Processed/Standard_Empty_Cap/Quartz2mm-dist500-00000.xy

#### start data
#S 1
#L r($\AA$)  G($\AA^{-2}$)
0 0
0.01 0.00603636
0.02 0.0117285
0.03 0.0167818
0.04 0.0209321
0.05 0.0239579
0.06 0.0256904
0.07 0.0259456
0.08 0.0246705
0.09 0.0220024
0.1 0.0180546
0.11 0.0130024
0.12 0.00707495
0.13 0.000545659
0.14 -0.00627752
0.15 -0.0130097
0.16 -0.0193259
0.17 -0.0249215
0.18 -0.0295242
0.19 -0.032907
0.2 -0.0348374
0.21 -0.0351583
0.22 -0.0339669
0.23 -0.0313302
0.24 -0.0273901
0.25 -0.0223586
0.26 -0.0165096
0.27 -0.0101568
0.28 -0.0037444
0.29 0.00233169
0.3 0.00768753
0.31 0.0119591
0.32 0.0148202
0.33 0.0159413
0.34 0.0150014
0.35 0.0120578
0.36 0.00711431
0.37 0.000275749
0.38 -0.00825133
0.39 -0.0181614
0.4 -0.0290982
0.41 -0.0404603
0.42 -0.0516585
0.43 -0.0620931
0.44 -0.0711449
0.45 -0.078198
0.46 -0.0826017
0.47 -0.0835166
0.48 -0.0807684
0.49 -0.0740222
0.5 -0.0630623
0.51 -0.0478062
0.52 -0.0283139
0.53 -0.00452717
0.54 0.0230103
0.55 0.0535865
0.56 0.0865392
0.57 0.121096
0.58 0.156395
0.59 0.191497
0.6 0.225204
0.61 0.256586
0.62 0.284703
0.63 0.308676
0.64 0.327715
0.65 0.341145
0.66 0.348025
0.67 0.347978
0.68 0.341187
0.69 0.327667
0.7 0.307615
0.71 0.281402
0.72 0.249565
0.73 0.212318
0.74 0.171129
0.75 0.126955
0.76 0.080808
0.77 0.0337372
0.78 -0.0132011
0.79 -0.0588646
0.8 -0.102108
0.81 -0.142157
0.82 -0.178265
0.83 -0.209818
0.84 -0.236357
0.85 -0.257581
0.86 -0.272797
0.87 -0.282562
0.88 -0.287184
0.89 -0.28704
0.9 -0.282635
0.91 -0.27458
0.92 -0.263482
0.93 -0.250118
0.94 -0.235491
0.95 -0.220376
0.96 -0.205517
0.97 -0.191604
0.98 -0.179247
0.99 -0.169194
1 -0.161739
1.01 -0.157086
1.02 -0.155367
1.03 -0.156592
1.04 -0.160655
1.05 -0.167407
1.06 -0.176627
1.07 -0.187682
1.08 -0.200117
1.09 -0.21344
1.1 -0.227151
1.11 -0.240756
1.12 -0.253708
1.13 -0.265568
1.14 -0.276018
1.15 -0.284794
1.16 -0.291713
1.17 -0.29668
1.18 -0.299653
1.19 -0.300572
1.2 -0.299804
1.21 -0.297584
1.22 -0.294197
1.23 -0.289963
1.24 -0.285224
1.25 -0.280338
1.26 -0.275685
1.27 -0.271566
1.28 -0.268233
1.29 -0.265881
1.3 -0.264646
1.31 -0.264602
1.32 -0.265862
1.33 -0.268207
1.34 -0.271487
1.35 -0.275498
1.36 -0.279994
1.37 -0.284698
1.38 -0.289289
1.39 -0.293425
1.4 -0.29683
1.41 -0.29925
1.42 -0.300472
1.43 -0.300334
1.44 -0.298733
1.45 -0.295465
1.46 -0.290738
1.47 -0.284675
1.48 -0.277452
1.49 -0.269304
1.5 -0.26051
1.51 -0.251388
1.52 -0.242325
1.53 -0.233687
1.54 -0.225808
1.55 -0.218994
1.56 -0.213517
1.57 -0.209595
1.58 -0.207566
1.59 -0.207372
1.6 -0.208977
1.61 -0.2123
1.62 -0.217183
1.63 -0.223402
1.64 -0.230693
1.65 -0.238693
1.66 -0.246935
1.67 -0.25501
1.68 -0.262502
1.69 -0.269005
1.7 -0.274139
1.71 -0.277381
1.72 -0.278525
1.73 -0.277412
1.74 -0.27391
1.75 -0.267968
1.76 -0.259614
1.77 -0.248905
1.78 -0.235927
1.79 -0.221163
1.8 -0.204947
1.81 -0.18766
1.82 -0.169713
1.83 -0.151534
1.84 -0.133604
1.85 -0.116379
1.86 -0.100224
1.87 -0.0854698
1.88 -0.0723853
1.89 -0.061175
1.9 -0.0520001
1.91 -0.0450924
1.92 -0.0402005
1.93 -0.0372074
1.94 -0.0359292
1.95 -0.0361242
1.96 -0.0375033
1.97 -0.0397771
1.98 -0.0425349
1.99 -0.0453889
2 -0.0480056
2.01 -0.0500795
2.02 -0.0513459
2.03 -0.0515882
2.04 -0.0505172
2.05 -0.0481904
2.06 -0.0446185
2.07 -0.039885
2.08 -0.0341436
2.09 -0.0276134
2.1 -0.0205604
2.11 -0.0133625
2.12 -0.00641157
2.13 -8.77399e-05
2.14 0.00522731
2.15 0.00916499
2.16 0.0113842
2.17 0.0113363
2.18 0.00896822
2.19 0.00413138
2.2 -0.00326509
2.21 -0.0132346
2.22 -0.0257113
2.23 -0.0406483
2.24 -0.0578411
2.25 -0.0768198
2.26 -0.0972267
2.27 -0.11866
2.28 -0.140689
2.29 -0.162865
2.3 -0.184663
2.31 -0.205628
2.32 -0.225367
2.33 -0.243524
2.34 -0.259799
2.35 -0.273953
2.36 -0.285739
2.37 -0.294946
2.38 -0.301772
2.39 -0.306293
2.4 -0.308659
2.41 -0.30908
2.42 -0.30782
2.43 -0.305097
2.44 -0.301376
2.45 -0.297057
2.46 -0.292502
2.47 -0.288062
2.48 -0.284067
2.49 -0.280835
2.5 -0.278713
2.51 -0.277813
2.52 -0.278262
2.53 -0.280128
2.54 -0.283416
2.55 -0.288075
2.56 -0.294081
2.57 -0.301203
2.58 -0.309182
2.59 -0.317777
2.6 -0.326729
2.61 -0.335769
2.62 -0.34462
2.63 -0.352953
2.64 -0.360559
2.65 -0.367236
2.66 -0.372817
2.67 -0.377178
2.68 -0.380239
2.69 -0.38188
2.7 -0.38214
2.71 -0.381156
2.72 -0.379034
2.73 -0.375912
2.74 -0.371957
2.75 -0.367351
2.76 -0.362262
2.77 -0.356962
2.78 -0.351642
2.79 -0.346482
2.8 -0.341641
2.81 -0.337253
2.82 -0.333458
2.83 -0.33034
2.84 -0.327894
2.85 -0.326114
2.86 -0.324968
2.87 -0.32439
2.88 -0.324292
2.89 -0.324591
2.9 -0.325109
2.91 -0.325708
2.92 -0.326247
2.93 -0.326589
2.94 -0.326606
2.95 -0.326155
2.96 -0.325103
2.97 -0.323406
2.98 -0.321
2.99 -0.317845
3 -0.313916
3.01 -0.309205
3.02 -0.303647
3.03 -0.29732
3.04 -0.290265
3.05 -0.282509
3.06 -0.274077
3.07 -0.264989
3.08 -0.255232
3.09 -0.244768
3.1 -0.233631
3.11 -0.221786
3.12 -0.209182
3.13 -0.195754
3.14 -0.181426
3.15 -0.166019
3.16 -0.149484
3.17 -0.131761
3.18 -0.112765
3.19 -0.0924207
3.2 -0.0706698
3.21 -0.0474438
3.22 -0.0226228
3.23 0.00362767
3.24 0.031248
3.25 0.0601432
3.26 0.0901823
3.27 0.121198
3.28 0.153029
3.29 0.18538
3.3 0.217951
3.31 0.250452
3.32 0.282578
3.33 0.314014
3.34 0.344428
3.35 0.373342
3.36 0.400573
3.37 0.425846
3.38 0.448909
3.39 0.469547
3.4 0.487576
3.41 0.50268
3.42 0.514775
3.43 0.523971
3.44 0.530273
3.45 0.533727
3.46 0.534422
3.47 0.532482
3.48 0.527802
3.49 0.520874
3.5 0.511915
3.51 0.501155
3.52 0.488833
3.53 0.475191
3.54 0.460427
3.55 0.444796
3.56 0.428583
3.57 0.411987
3.58 0.39519
3.59 0.378351
3.6 0.361608
3.61 0.345106
3.62 0.328925
3.63 0.313129
3.64 0.297765
3.65 0.282869
3.66 0.268462
3.67 0.254577
3.68 0.241241
3.69 0.228421
3.7 0.216123
3.71 0.204361
3.72 0.193154
3.73 0.182528
3.74 0.172584
3.75 0.163335
3.76 0.154828
3.77 0.147135
3.78 0.140335
3.79 0.134516
3.8 0.129803
3.81 0.126371
3.82 0.124216
3.83 0.123426
3.84 0.124081
3.85 0.126252
3.86 0.129997
3.87 0.135492
3.88 0.142686
3.89 0.151524
3.9 0.161987
3.91 0.174033
3.92 0.187602
3.93 0.202635
3.94 0.219122
3.95 0.236798
3.96 0.255518
3.97 0.275126
3.98 0.295452
3.99 0.316318
4 0.337547
4.01 0.358913
4.02 0.380209
4.03 0.401244
4.04 0.421833
4.05 0.441798
4.06 0.460963
4.07 0.479056
4.08 0.496027
4.09 0.511751
4.1 0.52612
4.11 0.53904
4.12 0.550439
4.13 0.560161
4.14 0.568169
4.15 0.574534
4.16 0.579254
4.17 0.58234
4.18 0.583818
4.19 0.583723
4.2 0.581935
4.21 0.578681
4.22 0.574029
4.23 0.568044
4.24 0.560792
4.25 0.552338
4.26 0.542695
4.27 0.531911
4.28 0.520116
4.29 0.507359
4.3 0.49368
4.31 0.479113
4.32 0.463685
4.33 0.447331
4.34 0.430138
4.35 0.412124
4.36 0.393293
4.37 0.373646
4.38 0.353181
4.39 0.331871
4.4 0.309687
4.41 0.286706
4.42 0.262947
4.43 0.238438
4.44 0.21322
4.45 0.187342
4.46 0.160822
4.47 0.133788
4.48 0.106346
4.49 0.0786043
4.5 0.0506787
4.51 0.0226963
4.52 -0.00520157
4.53 -0.0328413
4.54 -0.0600877
4.55 -0.0867971
4.56 -0.112829
4.57 -0.138048
4.58 -0.162329
4.59 -0.185467
4.6 -0.207397
4.61 -0.228079
4.62 -0.247455
4.63 -0.265485
4.64 -0.282148
4.65 -0.297424
4.66 -0.311223
4.67 -0.323728
4.68 -0.334998
4.69 -0.345108
4.7 -0.354146
4.71 -0.362206
4.72 -0.36934
4.73 -0.375685
4.74 -0.381388
4.75 -0.38655
4.76 -0.391267
4.77 -0.395625
4.78 -0.399699
4.79 -0.403536
4.8 -0.407213
4.81 -0.410766
4.82 -0.414214
4.83 -0.417569
4.84 -0.420826
4.85 -0.423967
4.86 -0.426967
4.87 -0.429807
4.88 -0.432456
4.89 -0.434884
4.9 -0.437062
4.91 -0.438963
4.92 -0.44053
4.93 -0.441779
4.94 -0.442705
4.95 -0.443307
4.96 -0.443594
4.97 -0.443578
4.98 -0.443267
4.99 -0.44268
5 -0.441864
5.01 -0.440843
5.02 -0.439641
5.03 -0.438277
5.04 -0.436765
5.05 -0.435096
5.06 -0.433278
5.07 -0.431296
5.08 -0.429125
5.09 -0.426731
5.1 -0.424067
5.11 -0.421068
5.12 -0.417647
5.13 -0.413768
5.14 -0.409364
5.15 -0.404373
5.16 -0.398737
5.17 -0.392405
5.18 -0.38527
5.19 -0.37735
5.2 -0.368661
5.21 -0.359215
5.22 -0.349045
5.23 -0.338203
5.24 -0.326747
5.25 -0.314748
5.26 -0.302372
5.27 -0.289744
5.28 -0.277003
5.29 -0.264294
5.3 -0.251764
5.31 -0.239601
5.32 -0.227954
5.33 -0.216942
5.34 -0.206685
5.35 -0.197285
5.36 -0.188824
5.37 -0.181376
5.38 -0.175072
5.39 -0.169812
5.4 -0.165575
5.41 -0.162316
5.42 -0.159969
5.43 -0.158449
5.44 -0.157692
5.45 -0.157554
5.46 -0.157874
5.47 -0.158521
5.48 -0.159369
5.49 -0.160293
5.5 -0.161181
5.51 -0.161905
5.52 -0.16239
5.53 -0.162573
5.54 -0.162409
5.55 -0.161874
5.56 -0.160962
5.57 -0.159669
5.58 -0.158026
5.59 -0.156102
5.6 -0.153951
5.61 -0.151634
5.62 -0.149211
5.63 -0.146743
5.64 -0.144288
5.65 -0.141892
5.66 -0.139579
5.67 -0.137361
5.68 -0.13523
5.69 -0.133159
5.7 -0.131101
5.71 -0.128977
5.72 -0.126704
5.73 -0.124184
5.74 -0.121309
5.75 -0.117964
5.76 -0.114034
5.77 -0.109328
5.78 -0.103782
5.79 -0.0973206
5.8 -0.0898706
5.81 -0.0813791
5.82 -0.0718173
5.83 -0.0611473
5.84 -0.0493472
5.85 -0.0365666
5.86 -0.022892
5.87 -0.00843479
5.88 0.00667112
5.89 0.0222729
5.9 0.0382152
5.91 0.0542788
5.92 0.0702712
5.93 0.0860111
5.94 0.101325
5.95 0.116051
5.96 0.130025
5.97 0.143049
5.98 0.155104
5.99 0.166125
6 0.176079
6.01 0.184959
6.02 0.192789
6.03 0.199551
6.04 0.205366
6.05 0.210377
6.06 0.214699
6.07 0.21846
6.08 0.221792
6.09 0.224825
6.1 0.227685
6.11 0.230513
6.12 0.233408
6.13 0.236446
6.14 0.239682
6.15 0.243144
6.16 0.246848
6.17 0.25076
6.18 0.254809
6.19 0.258915
6.2 0.262975
6.21 0.266869
6.22 0.270465
6.23 0.273552
6.24 0.276023
6.25 0.277734
6.26 0.27855
6.27 0.278348
6.28 0.277023
6.29 0.274421
6.3 0.270458
6.31 0.265183
6.32 0.258592
6.33 0.250709
6.34 0.241582
6.35 0.231286
6.36 0.219814
6.37 0.207398
6.38 0.194182
6.39 0.180309
6.4 0.165927
6.41 0.151185
6.42 0.136228
6.43 0.121208
6.44 0.106264
6.45 0.0915049
6.46 0.0770206
6.47 0.062883
6.48 0.0491436
6.49 0.0358747
6.5 0.0230541
6.51 0.0106594
6.52 -0.00133835
6.53 -0.0129817
6.54 -0.0243238
6.55 -0.0354205
6.56 -0.046336
6.57 -0.0571556
6.58 -0.0679409
6.59 -0.0787473
6.6 -0.089621
6.61 -0.100597
6.62 -0.111707
6.63 -0.122951
6.64 -0.134313
6.65 -0.145766
6.66 -0.157268
6.67 -0.168766
6.68 -0.18019
6.69 -0.191442
6.7 -0.202446
6.71 -0.213111
6.72 -0.223347
6.73 -0.233061
6.74 -0.242165
6.75 -0.250518
6.76 -0.258051
6.77 -0.264727
6.78 -0.270488
6.79 -0.275282
6.8 -0.27907
6.81 -0.281813
6.82 -0.283381
6.83 -0.283876
6.84 -0.283294
6.85 -0.281636
6.86 -0.278909
6.87 -0.275121
6.88 -0.270221
6.89 -0.264229
6.9 -0.257213
6.91 -0.249186
6.92 -0.240157
6.93 -0.230133
6.94 -0.219121
6.95 -0.207014
6.96 -0.193927
6.97 -0.179866
6.98 -0.164837
6.99 -0.148849
7 -0.131912
7.01 -0.113996
7.02 -0.0951112
7.03 -0.0753469
7.04 -0.0547387
7.05 -0.0333291
7.06 -0.0111681
7.07 0.0116868
7.08 0.0352283
7.09 0.0593193
7.1 0.0838717
7.11 0.108801
7.12 0.134017
7.13 0.159429
7.14 0.184941
7.15 0.210445
7.16 0.235838
7.17 0.261025
7.18 0.285915
7.19 0.310417
7.2 0.334444
7.21 0.357853
7.22 0.380593
7.23 0.402601
7.24 0.423804
7.25 0.444134
7.26 0.463521
7.27 0.481871
7.28 0.499045
7.29 0.515073
7.3 0.529891
7.31 0.543441
7.32 0.55566
7.33 0.566491
7.34 0.575752
7.35 0.583446
7.36 0.58957
7.37 0.594074
7.38 0.596912
7.39 0.598043
7.4 0.597401
7.41 0.59481
7.42 0.59043
7.43 0.584253
7.44 0.576285
7.45 0.566541
7.46 0.55505
7.47 0.541736
7.48 0.526702
7.49 0.510096
7.5 0.491999
7.51 0.472504
7.52 0.451713
7.53 0.429731
7.54 0.406583
7.55 0.382526
7.56 0.357694
7.57 0.332224
7.58 0.306257
7.59 0.279932
7.6 0.253386
7.61 0.226778
7.62 0.200254
7.63 0.173943
7.64 0.147971
7.65 0.122457
7.66 0.0975124
7.67 0.0733314
7.68 0.0499484
7.69 0.0274491
7.7 0.00591534
7.71 -0.014579
7.72 -0.0339678
7.73 -0.0521348
7.74 -0.0689978
7.75 -0.0845984
7.76 -0.0989056
7.77 -0.111897
7.78 -0.123558
7.79 -0.133885
7.8 -0.142748
7.81 -0.150277
7.82 -0.156519
7.83 -0.161507
7.84 -0.165285
7.85 -0.167903
7.86 -0.169385
7.87 -0.169762
7.88 -0.169197
7.89 -0.167771
7.9 -0.165567
7.91 -0.162674
7.92 -0.15918
7.93 -0.155135
7.94 -0.150669
7.95 -0.145877
7.96 -0.140837
7.97 -0.13562
7.98 -0.130292
7.99 -0.124907
8 -0.119517
8.01 -0.114161
8.02 -0.108866
8.03 -0.103648
8.04 -0.0985151
8.05 -0.0934683
8.06 -0.0885072
8.07 -0.0836152
8.08 -0.0787735
8.09 -0.0739649
8.1 -0.069172
8.11 -0.0643787
8.12 -0.0595719
8.13 -0.0547406
8.14 -0.0498852
8.15 -0.0450109
8.16 -0.0401303
8.17 -0.0352629
8.18 -0.0304357
8.19 -0.0256897
8.2 -0.0210694
8.21 -0.0166158
8.22 -0.0123762
8.23 -0.00839936
8.24 -0.00473305
8.25 -0.00142394
8.26 0.00143927
8.27 0.00386542
8.28 0.00583012
8.29 0.0073185
8.3 0.00832614
8.31 0.00885972
8.32 0.00891331
8.33 0.00852056
8.34 0.00775154
8.35 0.00665807
8.36 0.00529976
8.37 0.00374218
8.38 0.00205485
8.39 0.000310416
8.4 -0.0014081
8.41 -0.0030342
8.42 -0.00450793
8.43 -0.00577758
8.44 -0.00680165
8.45 -0.00753714
8.46 -0.00795932
8.47 -0.0080895
8.48 -0.00794316
8.49 -0.00754979
8.5 -0.00695221
8.51 -0.00620535
8.52 -0.00537394
8.53 -0.00454843
8.54 -0.00381211
8.55 -0.00325002
8.56 -0.00294777
8.57 -0.00298889
8.58 -0.00346939
8.59 -0.00449385
8.6 -0.00608575
8.61 -0.00829305
8.62 -0.0111506
8.63 -0.0146794
8.64 -0.0188857
8.65 -0.0238177
8.66 -0.0294091
8.67 -0.0356005
8.68 -0.042341
8.69 -0.0495694
8.7 -0.0572163
8.71 -0.0652126
8.72 -0.0734874
8.73 -0.0819294
8.74 -0.0904598
8.75 -0.0990034
8.76 -0.10749
8.77 -0.115857
8.78 -0.124033
8.79 -0.131974
8.8 -0.139655
8.81 -0.147051
8.82 -0.154151
8.83 -0.160948
8.84 -0.167444
8.85 -0.173623
8.86 -0.179535
8.87 -0.185198
8.88 -0.190636
8.89 -0.195872
8.9 -0.200928
8.91 -0.205813
8.92 -0.210547
8.93 -0.21515
8.94 -0.219628
8.95 -0.223979
8.96 -0.228199
8.97 -0.232279
8.98 -0.236183
8.99 -0.23991
9 -0.243439
9.01 -0.246746
9.02 -0.249809
9.03 -0.252607
9.04 -0.255103
9.05 -0.257276
9.06 -0.259132
9.07 -0.260664
9.08 -0.261871
9.09 -0.262757
9.1 -0.26333
9.11 -0.263574
9.12 -0.263538
9.13 -0.263249
9.14 -0.262732
9.15 -0.262015
9.16 -0.261124
9.17 -0.260083
9.18 -0.258916
9.19 -0.257658
9.2 -0.256326
9.21 -0.254938
9.22 -0.253502
9.23 -0.252026
9.24 -0.250507
9.25 -0.248945
9.26 -0.247331
9.27 -0.245655
9.28 -0.243904
9.29 -0.242062
9.3 -0.24011
9.31 -0.238025
9.32 -0.235803
9.33 -0.233432
9.34 -0.230905
9.35 -0.228217
9.36 -0.22537
9.37 -0.222355
9.38 -0.21919
9.39 -0.215894
9.4 -0.212484
9.41 -0.208979
9.42 -0.205402
9.43 -0.201773
9.44 -0.198117
9.45 -0.194457
9.46 -0.190811
9.47 -0.187194
9.48 -0.183614
9.49 -0.180075
9.5 -0.176578
9.51 -0.173111
9.52 -0.169654
9.53 -0.166185
9.54 -0.162672
9.55 -0.15908
9.56 -0.155366
9.57 -0.151463
9.58 -0.147334
9.59 -0.142929
9.6 -0.138196
9.61 -0.133083
9.62 -0.127539
9.63 -0.121486
9.64 -0.114877
9.65 -0.107701
9.66 -0.0999265
9.67 -0.0915276
9.68 -0.0824847
9.69 -0.0727853
9.7 -0.0623471
9.71 -0.0512477
9.72 -0.0394972
9.73 -0.0271106
9.74 -0.0141089
9.75 -0.000518047
9.76 0.0136579
9.77 0.0283853
9.78 0.0435878
9.79 0.0592219
9.8 0.0752412
9.81 0.0915964
9.82 0.108236
9.83 0.125123
9.84 0.142174
9.85 0.159327
9.86 0.176521
9.87 0.193692
9.88 0.210775
9.89 0.227695
9.9 0.244366
9.91 0.260732
9.92 0.276724
9.93 0.292273
9.94 0.307311
9.95 0.321774
9.96 0.335533
9.97 0.348567
9.98 0.36084
9.99 0.372305
10 0.382923
10.01 0.392662
10.02 0.401473
10.03 0.409288
10.04 0.416186
10.05 0.422175
10.06 0.427274
10.07 0.431512
10.08 0.434926
10.09 0.437502
10.1 0.43934
10.11 0.440526
10.12 0.441126
10.13 0.441209
10.14 0.440844
10.15 0.440097
10.16 0.439019
10.17 0.437711
10.18 0.436232
10.19 0.434637
10.2 0.432973
10.21 0.43128
10.22 0.429593
10.23 0.427938
10.24 0.426328
10.25 0.42477
10.26 0.423263
10.27 0.421802
10.28 0.420374
10.29 0.418962
10.3 0.417542
10.31 0.416091
10.32 0.414586
10.33 0.413002
10.34 0.411316
10.35 0.409497
10.36 0.40752
10.37 0.405375
10.38 0.403044
10.39 0.400511
10.4 0.397762
10.41 0.394784
10.42 0.391534
10.43 0.388021
10.44 0.384233
10.45 0.38015
10.46 0.375753
10.47 0.371018
10.48 0.365899
10.49 0.360356
10.5 0.35438
10.51 0.347935
10.52 0.340985
10.53 0.333491
10.54 0.325415
10.55 0.316657
10.56 0.307232
10.57 0.297122
10.58 0.286307
10.59 0.274772
10.6 0.26251
10.61 0.249499
10.62 0.235728
10.63 0.221279
10.64 0.206192
10.65 0.190516
10.66 0.174308
10.67 0.157636
10.68 0.140547
10.69 0.123158
10.7 0.105565
10.71 0.0878558
10.72 0.0701169
10.73 0.0524331
10.74 0.0348901
10.75 0.017583
10.76 0.000560257
10.77 -0.0161263
10.78 -0.0324366
10.79 -0.0483425
10.8 -0.0638286
10.81 -0.0788591
10.82 -0.0934641
10.83 -0.107682
10.84 -0.121546
10.85 -0.135096
10.86 -0.148378
10.87 -0.161439
10.88 -0.174322
10.89 -0.187098
10.9 -0.199813
10.91 -0.212508
10.92 -0.225215
10.93 -0.237959
10.94 -0.250759
10.95 -0.263613
10.96 -0.276509
10.97 -0.289423
10.98 -0.302324
10.99 -0.315168
11 -0.327903
11.01 -0.340445
11.02 -0.352744
11.03 -0.364732
11.04 -0.376342
11.05 -0.387509
11.06 -0.398168
11.07 -0.408227
11.08 -0.417625
11.09 -0.426357
11.1 -0.434388
11.11 -0.441694
11.12 -0.448263
11.13 -0.454086
11.14 -0.459087
11.15 -0.463353
11.16 -0.466906
11.17 -0.469768
11.18 -0.47196
11.19 -0.473509
11.2 -0.474408
11.21 -0.474669
11.22 -0.47435
11.23 -0.473464
11.24 -0.472018
11.25 -0.47001
11.26 -0.467437
11.27 -0.464226
11.28 -0.460405
11.29 -0.455964
11.3 -0.450877
11.31 -0.445117
11.32 -0.438661
11.33 -0.431456
11.34 -0.423447
11.35 -0.414679
11.36 -0.405146
11.37 -0.394849
11.38 -0.383798
11.39 -0.372015
11.4 -0.35947
11.41 -0.346252
11.42 -0.332432
11.43 -0.31807
11.44 -0.303233
11.45 -0.287992
11.46 -0.272419
11.47 -0.256586
11.48 -0.240599
11.49 -0.224538
11.5 -0.208475
11.51 -0.192479
11.52 -0.176612
11.53 -0.160948
11.54 -0.145531
11.55 -0.130392
11.56 -0.115557
11.57 -0.101046
11.58 -0.0868742
11.59 -0.073051
11.6 -0.0596095
11.61 -0.0465109
11.62 -0.0337503
11.63 -0.0213225
11.64 -0.00922324
11.65 0.00254939
11.66 0.013972
11.67 0.0250423
11.68 0.0357655
11.69 0.0461248
11.7 0.0560988
11.71 0.0656618
11.72 0.0747837
11.73 0.0833759
11.74 0.0914572
11.75 0.0989961
11.76 0.105964
11.77 0.112335
11.78 0.118091
11.79 0.123184
11.8 0.127608
11.81 0.13141
11.82 0.134606
11.83 0.137225
11.84 0.139303
11.85 0.140885
11.86 0.141984
11.87 0.142709
11.88 0.143127
11.89 0.143303
11.9 0.1433
11.91 0.143179
11.92 0.142992
11.93 0.14279
11.94 0.142608
11.95 0.142466
11.96 0.142367
11.97 0.142303
11.98 0.142245
11.99 0.142145
12 0.141939
12.01 0.141555
12.02 0.140908
12.03 0.139904
12.04 0.138443
12.05 0.136398
12.06 0.133617
12.07 0.130047
12.08 0.125597
12.09 0.120181
12.1 0.113731
12.11 0.106189
12.12 0.09742
12.13 0.0874672
12.14 0.0763725
