# xPDFsuite Configuration #
[PDF]
wavelength = 0.1
dataformat = QA
inputfile = BiMsol6_insitu_700 C-00736.xy
backgroundfile = Quartz2mm-dist500-00000.xy
mode = xray
bgscale = 0.0042
composition = Bi2Fe4O9
outputtype = gr
qmaxinst = 24.998449118
qmin = 0.1
qmax = 21.4986662415
rmax = 80.0
rmin = 0.0
rstep = 0.01
rpoly = 0.9

[Misc]
inputdir = C:/Data/Seafile/CPH/Beamtime/Desy Oct 20/In situ data/Processed/BiMsol6/PDF
savedir = C:/Data/Seafile/CPH/Beamtime/Desy Oct 20/In situ data/PDF/BiMsol6
backgroundfilefull = C:/Data/Seafile/CPH/Beamtime/Desy Oct 20/In situ data/Processed/Standard_Empty_Cap/Quartz2mm-dist500-00000.xy

#### start data
#S 1
#L r($\AA$)  G($\AA^{-2}$)
0 0
0.01 0.00643226
0.02 0.0125009
0.03 0.0178948
0.04 0.0223345
0.05 0.0255857
0.06 0.0274696
0.07 0.0277903
0.08 0.0264907
0.09 0.0237144
0.1 0.0195794
0.11 0.0142691
0.12 0.0080238
0.13 0.00113071
0.14 -0.00608777
0.15 -0.0132248
0.16 -0.0199372
0.17 -0.0259029
0.18 -0.030833
0.19 -0.0344861
0.2 -0.0366138
0.21 -0.0370462
0.22 -0.0358808
0.23 -0.033183
0.24 -0.029097
0.25 -0.0238406
0.26 -0.0176969
0.27 -0.0109878
0.28 -0.00417868
0.29 0.00231633
0.3 0.00809518
0.31 0.0127755
0.32 0.0160132
0.33 0.0174602
0.34 0.0167756
0.35 0.0140097
0.36 0.00915848
0.37 0.00232197
0.38 -0.00629405
0.39 -0.0163811
0.4 -0.0275821
0.41 -0.0392798
0.42 -0.0508682
0.43 -0.0617314
0.44 -0.0712323
0.45 -0.0787364
0.46 -0.0835728
0.47 -0.0848791
0.48 -0.0824663
0.49 -0.075985
0.5 -0.0652084
0.51 -0.0500457
0.52 -0.0305527
0.53 -0.006664
0.54 0.0210693
0.55 0.0519225
0.56 0.0852214
0.57 0.120179
0.58 0.155914
0.59 0.191471
0.6 0.225626
0.61 0.257427
0.62 0.285914
0.63 0.310189
0.64 0.329447
0.65 0.342999
0.66 0.349884
0.67 0.349721
0.68 0.342698
0.69 0.328832
0.7 0.308327
0.71 0.281565
0.72 0.249097
0.73 0.21115
0.74 0.169222
0.75 0.124291
0.76 0.0773928
0.77 0.0295999
0.78 -0.0180088
0.79 -0.0642649
0.8 -0.108
0.81 -0.148428
0.82 -0.18479
0.83 -0.216462
0.84 -0.24298
0.85 -0.264042
0.86 -0.27894
0.87 -0.288252
0.88 -0.292297
0.89 -0.291464
0.9 -0.286274
0.91 -0.277354
0.92 -0.265328
0.93 -0.250993
0.94 -0.235377
0.95 -0.219273
0.96 -0.203445
0.97 -0.1886
0.98 -0.175364
0.99 -0.164507
1 -0.156334
1.01 -0.151054
1.02 -0.148811
1.03 -0.149619
1.04 -0.153376
1.05 -0.15994
1.06 -0.169096
1.07 -0.180201
1.08 -0.192794
1.09 -0.206382
1.1 -0.220456
1.11 -0.234518
1.12 -0.248015
1.13 -0.260496
1.14 -0.271628
1.15 -0.281134
1.16 -0.288819
1.17 -0.294573
1.18 -0.298339
1.19 -0.300037
1.2 -0.300018
1.21 -0.298497
1.22 -0.295745
1.23 -0.292063
1.24 -0.287778
1.25 -0.283224
1.26 -0.278768
1.27 -0.274705
1.28 -0.27128
1.29 -0.268684
1.3 -0.267051
1.31 -0.266458
1.32 -0.267012
1.33 -0.268521
1.34 -0.270852
1.35 -0.273824
1.36 -0.277215
1.37 -0.280774
1.38 -0.284214
1.39 -0.287229
1.4 -0.289577
1.41 -0.291037
1.42 -0.291427
1.43 -0.290615
1.44 -0.288524
1.45 -0.284995
1.46 -0.280232
1.47 -0.274364
1.48 -0.26757
1.49 -0.26008
1.5 -0.25216
1.51 -0.244117
1.52 -0.236313
1.53 -0.229065
1.54 -0.222671
1.55 -0.217397
1.56 -0.213467
1.57 -0.211058
1.58 -0.21045
1.59 -0.211543
1.6 -0.214267
1.61 -0.218506
1.62 -0.224076
1.63 -0.230732
1.64 -0.238188
1.65 -0.246069
1.66 -0.253933
1.67 -0.26139
1.68 -0.268045
1.69 -0.273526
1.7 -0.277487
1.71 -0.279442
1.72 -0.279242
1.73 -0.27678
1.74 -0.27197
1.75 -0.264803
1.76 -0.255349
1.77 -0.243707
1.78 -0.230003
1.79 -0.214726
1.8 -0.198221
1.81 -0.180866
1.82 -0.163067
1.83 -0.145235
1.84 -0.127833
1.85 -0.111276
1.86 -0.0958825
1.87 -0.0819366
1.88 -0.0696631
1.89 -0.0592196
1.9 -0.0507204
1.91 -0.0443392
1.92 -0.0397998
1.93 -0.0369574
1.94 -0.0356084
1.95 -0.0355009
1.96 -0.0363454
1.97 -0.0378485
1.98 -0.0396275
1.99 -0.0413372
2 -0.0426835
2.01 -0.0434072
2.02 -0.0432952
2.03 -0.0421858
2.04 -0.0398613
2.05 -0.0364296
2.06 -0.0319518
2.07 -0.0265567
2.08 -0.0204359
2.09 -0.0138372
2.1 -0.00706419
2.11 -0.000502853
2.12 0.00548228
2.13 0.0105301
2.14 0.0142891
2.15 0.0164307
2.16 0.0166628
2.17 0.0144852
2.18 0.00992679
2.19 0.00290493
2.2 -0.00660614
2.21 -0.0185569
2.22 -0.0328231
2.23 -0.0492928
2.24 -0.0677055
2.25 -0.0875791
2.26 -0.108537
2.27 -0.130171
2.28 -0.152056
2.29 -0.17376
2.3 -0.194766
2.31 -0.214684
2.32 -0.23318
2.33 -0.249954
2.34 -0.264767
2.35 -0.277444
2.36 -0.287803
2.37 -0.295707
2.38 -0.301398
2.39 -0.305001
2.4 -0.306697
2.41 -0.306721
2.42 -0.30535
2.43 -0.302824
2.44 -0.299577
2.45 -0.295971
2.46 -0.292332
2.47 -0.288965
2.48 -0.286145
2.49 -0.284131
2.5 -0.283202
2.51 -0.283405
2.52 -0.284811
2.53 -0.287436
2.54 -0.291242
2.55 -0.296144
2.56 -0.302071
2.57 -0.308792
2.58 -0.316067
2.59 -0.323673
2.6 -0.331383
2.61 -0.338967
2.62 -0.346202
2.63 -0.352814
2.64 -0.358679
2.65 -0.363661
2.66 -0.367663
2.67 -0.370628
2.68 -0.372535
2.69 -0.37334
2.7 -0.373125
2.71 -0.372039
2.72 -0.370203
2.73 -0.367755
2.74 -0.364848
2.75 -0.361639
2.76 -0.358285
2.77 -0.354962
2.78 -0.351798
2.79 -0.348901
2.8 -0.346357
2.81 -0.344222
2.82 -0.34255
2.83 -0.341342
2.84 -0.340537
2.85 -0.340079
2.86 -0.339891
2.87 -0.33988
2.88 -0.339943
2.89 -0.339955
2.9 -0.339799
2.91 -0.33937
2.92 -0.338576
2.93 -0.337334
2.94 -0.335582
2.95 -0.333246
2.96 -0.330279
2.97 -0.326718
2.98 -0.322575
2.99 -0.317875
3 -0.312653
3.01 -0.306951
3.02 -0.300776
3.03 -0.294203
3.04 -0.287274
3.05 -0.280006
3.06 -0.272402
3.07 -0.264444
3.08 -0.25608
3.09 -0.247214
3.1 -0.237792
3.11 -0.227707
3.12 -0.216835
3.13 -0.205039
3.14 -0.192173
3.15 -0.177973
3.16 -0.162342
3.17 -0.145187
3.18 -0.126396
3.19 -0.10588
3.2 -0.0835799
3.21 -0.0594331
3.22 -0.0333259
3.23 -0.00550038
3.24 0.0239324
3.25 0.0548179
3.26 0.0869601
3.27 0.120124
3.28 0.154071
3.29 0.188433
3.3 0.22285
3.31 0.25698
3.32 0.290474
3.33 0.322983
3.34 0.354152
3.35 0.383463
3.36 0.410776
3.37 0.435832
3.38 0.458413
3.39 0.47834
3.4 0.495479
3.41 0.50956
3.42 0.520566
3.43 0.52867
3.44 0.53393
3.45 0.536441
3.46 0.536336
3.47 0.533771
3.48 0.528691
3.49 0.521577
3.5 0.512643
3.51 0.502107
3.52 0.490184
3.53 0.477081
3.54 0.462955
3.55 0.448004
3.56 0.432453
3.57 0.416444
3.58 0.400104
3.59 0.383538
3.6 0.366838
3.61 0.350079
3.62 0.333335
3.63 0.316656
3.64 0.300089
3.65 0.283677
3.66 0.267464
3.67 0.25151
3.68 0.235887
3.69 0.220638
3.7 0.205836
3.71 0.191561
3.72 0.177904
3.73 0.164965
3.74 0.152937
3.75 0.141888
3.76 0.131912
3.77 0.123124
3.78 0.115633
3.79 0.109542
3.8 0.104993
3.81 0.102168
3.82 0.100996
3.83 0.101525
3.84 0.10378
3.85 0.107769
3.86 0.113479
3.87 0.121013
3.88 0.13023
3.89 0.140996
3.9 0.153223
3.91 0.166807
3.92 0.181632
3.93 0.197592
3.94 0.214618
3.95 0.232466
3.96 0.250999
3.97 0.270078
3.98 0.28957
3.99 0.309343
4 0.329272
4.01 0.349217
4.02 0.369057
4.03 0.388687
4.04 0.408003
4.05 0.426911
4.06 0.445313
4.07 0.463053
4.08 0.480103
4.09 0.496383
4.1 0.511814
4.11 0.526319
4.12 0.539821
4.13 0.552176
4.14 0.563304
4.15 0.573197
4.16 0.581785
4.17 0.589006
4.18 0.5948
4.19 0.599113
4.2 0.601718
4.21 0.602742
4.22 0.602161
4.23 0.599954
4.24 0.596112
4.25 0.590634
4.26 0.583451
4.27 0.574558
4.28 0.564096
4.29 0.552106
4.3 0.538637
4.31 0.523743
4.32 0.507485
4.33 0.489804
4.34 0.47089
4.35 0.450833
4.36 0.429707
4.37 0.407584
4.38 0.384537
4.39 0.360611
4.4 0.335854
4.41 0.310405
4.42 0.284333
4.43 0.257712
4.44 0.230611
4.45 0.203106
4.46 0.17525
4.47 0.147152
4.48 0.118906
4.49 0.0905981
4.5 0.0623206
4.51 0.0341695
4.52 0.0062536
4.53 -0.0212895
4.54 -0.0483763
4.55 -0.0749011
4.56 -0.100759
4.57 -0.125847
4.58 -0.150068
4.59 -0.173248
4.6 -0.195335
4.61 -0.216295
4.62 -0.236073
4.63 -0.254624
4.64 -0.27192
4.65 -0.287927
4.66 -0.302544
4.67 -0.315921
4.68 -0.328095
4.69 -0.339119
4.7 -0.349056
4.71 -0.35798
4.72 -0.365916
4.73 -0.372983
4.74 -0.37932
4.75 -0.385017
4.76 -0.390165
4.77 -0.39485
4.78 -0.399147
4.79 -0.403102
4.8 -0.406812
4.81 -0.410325
4.82 -0.413676
4.83 -0.416888
4.84 -0.419974
4.85 -0.42293
4.86 -0.425748
4.87 -0.428421
4.88 -0.430928
4.89 -0.433248
4.9 -0.435355
4.91 -0.437227
4.92 -0.438812
4.93 -0.440117
4.94 -0.441132
4.95 -0.441851
4.96 -0.442273
4.97 -0.442403
4.98 -0.442238
4.99 -0.441788
5 -0.44109
5.01 -0.440162
5.02 -0.439021
5.03 -0.437681
5.04 -0.436154
5.05 -0.434427
5.06 -0.432511
5.07 -0.430397
5.08 -0.428065
5.09 -0.425486
5.1 -0.422622
5.11 -0.419417
5.12 -0.415793
5.13 -0.411726
5.14 -0.407157
5.15 -0.402034
5.16 -0.396307
5.17 -0.389931
5.18 -0.382813
5.19 -0.374972
5.2 -0.366426
5.21 -0.357191
5.22 -0.347299
5.23 -0.336803
5.24 -0.325764
5.25 -0.314254
5.26 -0.30243
5.27 -0.290418
5.28 -0.278351
5.29 -0.266372
5.3 -0.254628
5.31 -0.243305
5.32 -0.23255
5.33 -0.222478
5.34 -0.213206
5.35 -0.204835
5.36 -0.197446
5.37 -0.191111
5.38 -0.185965
5.39 -0.181899
5.4 -0.178891
5.41 -0.176894
5.42 -0.175838
5.43 -0.175632
5.44 -0.176212
5.45 -0.177423
5.46 -0.179098
5.47 -0.1811
5.48 -0.183293
5.49 -0.185546
5.5 -0.187736
5.51 -0.189721
5.52 -0.191421
5.53 -0.192763
5.54 -0.193694
5.55 -0.194181
5.56 -0.19421
5.57 -0.193762
5.58 -0.192861
5.59 -0.191575
5.6 -0.189952
5.61 -0.188048
5.62 -0.185919
5.63 -0.183622
5.64 -0.181197
5.65 -0.178701
5.66 -0.176158
5.67 -0.173576
5.68 -0.170949
5.69 -0.168248
5.7 -0.16542
5.71 -0.162387
5.72 -0.159074
5.73 -0.155388
5.74 -0.151223
5.75 -0.14647
5.76 -0.141021
5.77 -0.134679
5.78 -0.127402
5.79 -0.119125
5.8 -0.109786
5.81 -0.0993459
5.82 -0.0877884
5.83 -0.0750906
5.84 -0.0612476
5.85 -0.0464277
5.86 -0.030734
5.87 -0.0142941
5.88 0.00274204
5.89 0.0202067
5.9 0.0379229
5.91 0.0556624
5.92 0.0732256
5.93 0.090424
5.94 0.107079
5.95 0.123026
5.96 0.138101
5.97 0.152099
5.98 0.165019
5.99 0.176806
6 0.187436
6.01 0.196917
6.02 0.205285
6.03 0.212533
6.04 0.218801
6.05 0.224247
6.06 0.229
6.07 0.233197
6.08 0.236981
6.09 0.240487
6.1 0.243849
6.11 0.247204
6.12 0.250647
6.13 0.254248
6.14 0.258052
6.15 0.262074
6.16 0.266314
6.17 0.270717
6.18 0.275197
6.19 0.279653
6.2 0.283965
6.21 0.287995
6.22 0.291594
6.23 0.29452
6.24 0.296671
6.25 0.297896
6.26 0.298059
6.27 0.297037
6.28 0.29473
6.29 0.290987
6.3 0.285739
6.31 0.279063
6.32 0.270977
6.33 0.261527
6.34 0.250788
6.35 0.23886
6.36 0.225768
6.37 0.211771
6.38 0.197036
6.39 0.181728
6.4 0.166014
6.41 0.150057
6.42 0.134015
6.43 0.118055
6.44 0.102302
6.45 0.0868612
6.46 0.0718129
6.47 0.057215
6.48 0.0431014
6.49 0.0295282
6.5 0.0164426
6.51 0.00379629
6.52 -0.0084643
6.53 -0.020406
6.54 -0.0321048
6.55 -0.04364
6.56 -0.0551009
6.57 -0.0665782
6.58 -0.0781424
6.59 -0.0898529
6.6 -0.101755
6.61 -0.113878
6.62 -0.126253
6.63 -0.138856
6.64 -0.151649
6.65 -0.164584
6.66 -0.177595
6.67 -0.190603
6.68 -0.203511
6.69 -0.216191
6.7 -0.228543
6.71 -0.240457
6.72 -0.251823
6.73 -0.262535
6.74 -0.272494
6.75 -0.281541
6.76 -0.289611
6.77 -0.296677
6.78 -0.302688
6.79 -0.307606
6.8 -0.311408
6.81 -0.31407
6.82 -0.315478
6.83 -0.315766
6.84 -0.31495
6.85 -0.313052
6.86 -0.310097
6.87 -0.306108
6.88 -0.301049
6.89 -0.294949
6.9 -0.287878
6.91 -0.279844
6.92 -0.270849
6.93 -0.26089
6.94 -0.249954
6.95 -0.237912
6.96 -0.22485
6.97 -0.210747
6.98 -0.195577
6.99 -0.179318
7 -0.161948
7.01 -0.143396
7.02 -0.123634
7.03 -0.102742
7.04 -0.0807321
7.05 -0.0576324
7.06 -0.033482
7.07 -0.00833371
7.08 0.0178336
7.09 0.0448454
7.1 0.072593
7.11 0.100968
7.12 0.129854
7.13 0.159123
7.14 0.188647
7.15 0.218272
7.16 0.247838
7.17 0.277203
7.18 0.306226
7.19 0.334771
7.2 0.362703
7.21 0.389817
7.22 0.416028
7.23 0.441246
7.24 0.465368
7.25 0.488302
7.26 0.509962
7.27 0.530234
7.28 0.548956
7.29 0.56619
7.3 0.581885
7.31 0.595999
7.32 0.608491
7.33 0.619329
7.34 0.628347
7.35 0.635593
7.36 0.641111
7.37 0.644886
7.38 0.646907
7.39 0.647169
7.4 0.64564
7.41 0.642179
7.42 0.636972
7.43 0.630034
7.44 0.621387
7.45 0.611059
7.46 0.599086
7.47 0.585401
7.48 0.570099
7.49 0.553315
7.5 0.535116
7.51 0.515576
7.52 0.494777
7.53 0.4728
7.54 0.449639
7.55 0.425524
7.56 0.400563
7.57 0.374867
7.58 0.348552
7.59 0.321737
7.6 0.294529
7.61 0.267071
7.62 0.239511
7.63 0.211972
7.64 0.184581
7.65 0.157463
7.66 0.13074
7.67 0.104607
7.68 0.0791357
7.69 0.054439
7.7 0.0306263
7.71 0.00780195
7.72 -0.0139358
7.73 -0.0344354
7.74 -0.0535754
7.75 -0.0713671
7.76 -0.0877493
7.77 -0.102672
7.78 -0.116097
7.79 -0.128
7.8 -0.138215
7.81 -0.146875
7.82 -0.154028
7.83 -0.159706
7.84 -0.163959
7.85 -0.166847
7.86 -0.1684
7.87 -0.168665
7.88 -0.167839
7.89 -0.166027
7.9 -0.16334
7.91 -0.15989
7.92 -0.15579
7.93 -0.151117
7.94 -0.146026
7.95 -0.140633
7.96 -0.135032
7.97 -0.129309
7.98 -0.123537
7.99 -0.117779
8 -0.112093
8.01 -0.106508
8.02 -0.101044
8.03 -0.0957089
8.04 -0.0904995
8.05 -0.0854031
8.06 -0.0804048
8.07 -0.0754709
8.08 -0.0705684
8.09 -0.0656672
8.1 -0.060739
8.11 -0.0557593
8.12 -0.0507085
8.13 -0.0455682
8.14 -0.0403463
8.15 -0.0350533
8.16 -0.02971
8.17 -0.0243475
8.18 -0.0190064
8.19 -0.0137447
8.2 -0.0086268
8.21 -0.00371153
8.22 0.000935769
8.23 0.00524973
8.24 0.00916734
8.25 0.0126287
8.26 0.0155224
8.27 0.017863
8.28 0.0196244
8.29 0.0207934
8.3 0.0213716
8.31 0.0213752
8.32 0.0208071
8.33 0.0197195
8.34 0.0182064
8.35 0.0163396
8.36 0.0141996
8.37 0.0118725
8.38 0.00944721
8.39 0.00702082
8.4 0.004687
8.41 0.00252207
8.42 0.000592087
8.43 -0.00104973
8.44 -0.00236515
8.45 -0.00331666
8.46 -0.00389337
8.47 -0.00414015
8.48 -0.00409467
8.49 -0.00381165
8.5 -0.00336135
8.51 -0.00282745
8.52 -0.0023158
8.53 -0.00194038
8.54 -0.00180824
8.55 -0.00202687
8.56 -0.00270024
8.57 -0.00392538
8.58 -0.00581374
8.59 -0.00848187
8.6 -0.0119292
8.61 -0.0161912
8.62 -0.0212845
8.63 -0.0272058
8.64 -0.0339324
8.65 -0.0414838
8.66 -0.0497471
8.67 -0.0586209
8.68 -0.0680143
8.69 -0.077827
8.7 -0.0879521
8.71 -0.0982817
8.72 -0.108699
8.73 -0.119081
8.74 -0.129332
8.75 -0.139364
8.76 -0.149101
8.77 -0.158482
8.78 -0.167425
8.79 -0.175913
8.8 -0.183948
8.81 -0.191534
8.82 -0.198684
8.83 -0.205426
8.84 -0.21179
8.85 -0.217794
8.86 -0.223525
8.87 -0.229029
8.88 -0.234353
8.89 -0.23954
8.9 -0.244626
8.91 -0.249635
8.92 -0.254588
8.93 -0.259495
8.94 -0.264349
8.95 -0.269134
8.96 -0.273825
8.97 -0.278386
8.98 -0.282749
8.99 -0.286881
9 -0.290729
9.01 -0.29424
9.02 -0.297363
9.03 -0.300049
9.04 -0.302227
9.05 -0.303854
9.06 -0.304937
9.07 -0.30546
9.08 -0.305422
9.09 -0.304829
9.1 -0.3037
9.11 -0.302012
9.12 -0.299857
9.13 -0.297286
9.14 -0.29435
9.15 -0.291104
9.16 -0.287604
9.17 -0.2839
9.18 -0.28005
9.19 -0.276114
9.2 -0.272137
9.21 -0.268156
9.22 -0.264198
9.23 -0.260286
9.24 -0.256441
9.25 -0.252663
9.26 -0.24895
9.27 -0.245296
9.28 -0.24169
9.29 -0.238119
9.3 -0.23457
9.31 -0.231029
9.32 -0.227485
9.33 -0.22393
9.34 -0.220363
9.35 -0.216788
9.36 -0.213213
9.37 -0.209657
9.38 -0.206143
9.39 -0.202695
9.4 -0.199342
9.41 -0.196115
9.42 -0.193045
9.43 -0.190163
9.44 -0.187514
9.45 -0.185096
9.46 -0.18292
9.47 -0.180984
9.48 -0.17928
9.49 -0.177786
9.5 -0.176477
9.51 -0.175296
9.52 -0.174174
9.53 -0.173042
9.54 -0.17182
9.55 -0.170423
9.56 -0.168756
9.57 -0.166679
9.58 -0.164129
9.59 -0.161016
9.6 -0.157257
9.61 -0.152777
9.62 -0.14751
9.63 -0.141351
9.64 -0.134264
9.65 -0.126276
9.66 -0.117387
9.67 -0.107608
9.68 -0.0969674
9.69 -0.0855083
9.7 -0.0732047
9.71 -0.060217
9.72 -0.0466221
9.73 -0.0325008
9.74 -0.0179364
9.75 -0.00301214
9.76 0.0122017
9.77 0.027622
9.78 0.0431651
9.79 0.0587737
9.8 0.0744011
9.81 0.0900111
9.82 0.105579
9.83 0.121083
9.84 0.136525
9.85 0.151911
9.86 0.167252
9.87 0.182564
9.88 0.197863
9.89 0.213165
9.9 0.228485
9.91 0.243826
9.92 0.259185
9.93 0.274546
9.94 0.289885
9.95 0.305163
9.96 0.320314
9.97 0.335272
9.98 0.349963
9.99 0.364299
10 0.378186
10.01 0.391524
10.02 0.404187
10.03 0.416015
10.04 0.426971
10.05 0.436965
10.06 0.445919
10.07 0.453768
10.08 0.460462
10.09 0.465874
10.1 0.470051
10.11 0.473048
10.12 0.474903
10.13 0.475672
10.14 0.475431
10.15 0.474258
10.16 0.472214
10.17 0.469511
10.18 0.46628
10.19 0.46266
10.2 0.458788
10.21 0.454801
10.22 0.450836
10.23 0.447028
10.24 0.443479
10.25 0.440276
10.26 0.437487
10.27 0.43516
10.28 0.433327
10.29 0.432045
10.3 0.431241
10.31 0.430876
10.32 0.430895
10.33 0.431225
10.34 0.431783
10.35 0.432474
10.36 0.433181
10.37 0.433789
10.38 0.43419
10.39 0.434281
10.4 0.433961
10.41 0.43314
10.42 0.43166
10.43 0.42951
10.44 0.426638
10.45 0.423003
10.46 0.418575
10.47 0.41334
10.48 0.407257
10.49 0.40032
10.5 0.392605
10.51 0.384142
10.52 0.374964
10.53 0.365111
10.54 0.354624
10.55 0.34349
10.56 0.331805
10.57 0.319619
10.58 0.306969
10.59 0.293885
10.6 0.280399
10.61 0.26652
10.62 0.252258
10.63 0.237658
10.64 0.222735
10.65 0.207501
10.66 0.191969
10.67 0.17615
10.68 0.160035
10.69 0.143658
10.7 0.127048
10.71 0.110226
10.72 0.0932218
10.73 0.0760655
10.74 0.0587915
10.75 0.0414403
10.76 0.0240656
10.77 0.0067133
10.78 -0.0105693
10.79 -0.0277346
10.8 -0.0447363
10.81 -0.0615098
10.82 -0.0780183
10.83 -0.0942342
10.84 -0.110128
10.85 -0.125676
10.86 -0.140861
10.87 -0.155669
10.88 -0.170064
10.89 -0.184091
10.9 -0.197763
10.91 -0.211097
10.92 -0.224116
10.93 -0.236844
10.94 -0.249295
10.95 -0.261506
10.96 -0.273516
10.97 -0.28535
10.98 -0.29703
10.99 -0.308571
11 -0.319984
11.01 -0.331258
11.02 -0.342403
11.03 -0.353406
11.04 -0.364246
11.05 -0.374896
11.06 -0.385322
11.07 -0.395466
11.08 -0.405275
11.09 -0.414716
11.1 -0.423735
11.11 -0.43228
11.12 -0.440297
11.13 -0.447735
11.14 -0.454471
11.15 -0.46052
11.16 -0.465848
11.17 -0.47042
11.18 -0.474208
11.19 -0.477192
11.2 -0.479317
11.21 -0.480555
11.22 -0.480963
11.23 -0.480546
11.24 -0.479313
11.25 -0.477279
11.26 -0.474461
11.27 -0.470805
11.28 -0.466398
11.29 -0.461278
11.3 -0.455467
11.31 -0.448989
11.32 -0.441865
11.33 -0.434096
11.34 -0.425676
11.35 -0.416672
11.36 -0.407102
11.37 -0.396981
11.38 -0.386323
11.39 -0.375144
11.4 -0.363414
11.41 -0.351181
11.42 -0.338479
11.43 -0.325326
11.44 -0.311745
11.45 -0.297763
11.46 -0.283401
11.47 -0.268673
11.48 -0.253653
11.49 -0.238382
11.5 -0.222907
11.51 -0.207278
11.52 -0.191548
11.53 -0.175774
11.54 -0.160024
11.55 -0.144357
11.56 -0.128835
11.57 -0.113516
11.58 -0.0984576
11.59 -0.0837215
11.6 -0.0694001
11.61 -0.0555079
11.62 -0.0420888
11.63 -0.0291816
11.64 -0.0168201
11.65 -0.00503207
11.66 0.0061202
11.67 0.0166286
11.68 0.0265156
11.69 0.0357789
11.7 0.0444222
11.71 0.0524543
11.72 0.0598876
11.73 0.0666774
11.74 0.0729151
11.75 0.0786266
11.76 0.0838404
11.77 0.0885867
11.78 0.0928968
11.79 0.0967823
11.8 0.100277
11.81 0.103437
11.82 0.10629
11.83 0.108865
11.84 0.111186
11.85 0.113276
11.86 0.115132
11.87 0.116792
11.88 0.118269
11.89 0.119569
11.9 0.120697
11.91 0.12165
11.92 0.122417
11.93 0.122981
11.94 0.123342
11.95 0.123482
11.96 0.123383
11.97 0.123019
11.98 0.122366
11.99 0.121362
12 0.119996
12.01 0.118242
12.02 0.116067
12.03 0.113438
12.04 0.11032
12.05 0.10666
12.06 0.102393
12.07 0.0975325
12.08 0.0920492
12.09 0.0859167
12.1 0.0791114
12.11 0.0716137
12.12 0.063346
12.13 0.0543357
12.14 0.0446005
12.15 0.034142
12.16 0.0229678
12.17 0.0110923
12.18 -0.00147712
12.19 -0.0147549
