# xPDFsuite Configuration #
[PDF]
wavelength = 0.1
dataformat = QA
inputfile = BiMsol6_insitu_700 C-00000.xy
backgroundfile = Quartz2mm-dist500-00000.xy
mode = xray
bgscale = 0.0042
composition = Bi2Fe4O9
outputtype = gr
qmaxinst = 24.998449118
qmin = 0.1
qmax = 21.4986662415
rmax = 80.0
rmin = 0.0
rstep = 0.01
rpoly = 0.9

[Misc]
inputdir = C:/Data/Seafile/CPH/Beamtime/Desy Oct 20/In situ data/Processed/BiMsol6/PDF
savedir = C:/Data/Seafile/CPH/Beamtime/Desy Oct 20/In situ data/PDF/BiMsol6
backgroundfilefull = C:/Data/Seafile/CPH/Beamtime/Desy Oct 20/In situ data/Processed/Standard_Empty_Cap/Quartz2mm-dist500-00000.xy

#### start data
#S 1
#L r($\AA$)  G($\AA^{-2}$)
0 0
0.01 0.00630368
0.02 0.0122539
0.03 0.0175482
0.04 0.021915
0.05 0.0251263
0.06 0.0270083
0.07 0.0273706
0.08 0.0261575
0.09 0.0235083
0.1 0.0195378
0.11 0.014424
0.12 0.0084007
0.13 0.00174683
0.14 -0.0052242
0.15 -0.0121167
0.16 -0.0185969
0.17 -0.0243516
0.18 -0.0290996
0.19 -0.032606
0.2 -0.0346292
0.21 -0.0350037
0.22 -0.0338241
0.23 -0.0311543
0.24 -0.0271346
0.25 -0.0219769
0.26 -0.0159573
0.27 -0.00938943
0.28 -0.00272693
0.29 0.00362655
0.3 0.00927891
0.31 0.0138571
0.32 0.0170255
0.33 0.0184443
0.34 0.0177806
0.35 0.015084
0.36 0.0103508
0.37 0.00367912
0.38 -0.00472914
0.39 -0.0145715
0.4 -0.0254972
0.41 -0.0369008
0.42 -0.0481878
0.43 -0.058753
0.44 -0.0679702
0.45 -0.0752149
0.46 -0.0798264
0.47 -0.0809538
0.48 -0.0784099
0.49 -0.0718487
0.5 -0.061044
0.51 -0.0459035
0.52 -0.0264791
0.53 -0.00270164
0.54 0.0248882
0.55 0.0555773
0.56 0.0887022
0.57 0.123487
0.58 0.159062
0.59 0.194482
0.6 0.228536
0.61 0.260278
0.62 0.288751
0.63 0.313061
0.64 0.332402
0.65 0.346081
0.66 0.353134
0.67 0.35317
0.68 0.346362
0.69 0.332716
0.7 0.312419
0.71 0.285839
0.72 0.25351
0.73 0.215638
0.74 0.17371
0.75 0.128694
0.76 0.0816165
0.77 0.0335428
0.78 -0.0144514
0.79 -0.0612024
0.8 -0.105539
0.81 -0.14666
0.82 -0.183794
0.83 -0.216306
0.84 -0.243711
0.85 -0.26569
0.86 -0.281514
0.87 -0.291735
0.88 -0.29665
0.89 -0.29663
0.9 -0.292173
0.91 -0.283888
0.92 -0.272379
0.93 -0.258424
0.94 -0.243048
0.95 -0.227039
0.96 -0.211155
0.97 -0.196102
0.98 -0.182509
0.99 -0.171137
1 -0.162307
1.01 -0.156243
1.02 -0.153095
1.03 -0.152892
1.04 -0.155543
1.05 -0.160914
1.06 -0.168803
1.07 -0.178584
1.08 -0.189812
1.09 -0.202003
1.1 -0.214664
1.11 -0.227306
1.12 -0.239394
1.13 -0.250491
1.14 -0.260279
1.15 -0.268496
1.16 -0.274963
1.17 -0.279588
1.18 -0.282334
1.19 -0.283154
1.2 -0.282406
1.21 -0.280328
1.22 -0.277205
1.23 -0.273361
1.24 -0.269135
1.25 -0.264892
1.26 -0.261005
1.27 -0.257761
1.28 -0.255402
1.29 -0.254114
1.3 -0.254017
1.31 -0.255167
1.32 -0.257661
1.33 -0.26125
1.34 -0.265759
1.35 -0.27096
1.36 -0.276581
1.37 -0.282318
1.38 -0.28782
1.39 -0.292715
1.4 -0.296716
1.41 -0.299553
1.42 -0.301001
1.43 -0.300891
1.44 -0.299118
1.45 -0.295463
1.46 -0.290166
1.47 -0.283368
1.48 -0.275271
1.49 -0.266138
1.5 -0.256281
1.51 -0.246056
1.52 -0.235899
1.53 -0.226217
1.54 -0.217387
1.55 -0.209758
1.56 -0.203639
1.57 -0.199283
1.58 -0.197086
1.59 -0.196992
1.6 -0.198977
1.61 -0.202965
1.62 -0.208797
1.63 -0.216235
1.64 -0.225007
1.65 -0.234723
1.66 -0.24486
1.67 -0.254962
1.68 -0.264564
1.69 -0.273206
1.7 -0.28045
1.71 -0.285702
1.72 -0.288698
1.73 -0.289229
1.74 -0.287112
1.75 -0.282254
1.76 -0.274646
1.77 -0.26431
1.78 -0.251284
1.79 -0.236082
1.8 -0.219043
1.81 -0.20056
1.82 -0.181071
1.83 -0.161037
1.84 -0.140958
1.85 -0.12136
1.86 -0.10267
1.87 -0.0852728
1.88 -0.069495
1.89 -0.0555966
1.9 -0.0437935
1.91 -0.0343812
1.92 -0.0271423
1.93 -0.0219936
1.94 -0.0187764
1.95 -0.0172649
1.96 -0.0171767
1.97 -0.0182346
1.98 -0.0200079
1.99 -0.0220742
2 -0.0240692
2.01 -0.0256505
2.02 -0.0265118
2.03 -0.0263916
2.04 -0.0249482
2.05 -0.0221896
2.06 -0.0180831
2.07 -0.0126729
2.08 -0.00607898
2.09 0.00150665
2.1 0.00985039
2.11 0.0185863
2.12 0.027308
2.13 0.0356256
2.14 0.0431389
2.15 0.0494528
2.16 0.0541921
2.17 0.0567749
2.18 0.0570877
2.19 0.0549327
2.2 0.0501697
2.21 0.0427365
2.22 0.0326526
2.23 0.0199118
2.24 0.00467152
2.25 -0.0126133
2.26 -0.0316054
2.27 -0.0519152
2.28 -0.0731139
2.29 -0.094747
2.3 -0.1163
2.31 -0.137267
2.32 -0.157216
2.33 -0.175753
2.34 -0.192532
2.35 -0.207267
2.36 -0.219659
2.37 -0.229439
2.38 -0.236752
2.39 -0.241633
2.4 -0.244186
2.41 -0.244588
2.42 -0.243073
2.43 -0.239816
2.44 -0.235283
2.45 -0.229878
2.46 -0.22397
2.47 -0.217926
2.48 -0.212094
2.49 -0.206819
2.5 -0.202474
2.51 -0.19923
2.52 -0.197256
2.53 -0.196664
2.54 -0.197505
2.55 -0.199769
2.56 -0.203486
2.57 -0.208462
2.58 -0.214466
2.59 -0.221287
2.6 -0.228684
2.61 -0.236404
2.62 -0.244181
2.63 -0.25171
2.64 -0.25875
2.65 -0.265088
2.66 -0.27054
2.67 -0.274961
2.68 -0.278246
2.69 -0.280255
2.7 -0.28099
2.71 -0.280549
2.72 -0.279008
2.73 -0.276475
2.74 -0.273084
2.75 -0.268994
2.76 -0.264334
2.77 -0.25936
2.78 -0.254245
2.79 -0.249151
2.8 -0.244227
2.81 -0.239596
2.82 -0.235381
2.83 -0.231662
2.84 -0.228442
2.85 -0.225721
2.86 -0.223468
2.87 -0.221627
2.88 -0.220118
2.89 -0.218857
2.9 -0.217698
2.91 -0.216518
2.92 -0.215201
2.93 -0.213632
2.94 -0.211709
2.95 -0.209323
2.96 -0.206382
2.97 -0.202879
2.98 -0.198796
2.99 -0.194139
3 -0.188935
3.01 -0.183235
3.02 -0.17707
3.03 -0.170565
3.04 -0.163821
3.05 -0.156934
3.06 -0.149999
3.07 -0.143106
3.08 -0.136339
3.09 -0.129779
3.1 -0.123459
3.11 -0.117399
3.12 -0.111598
3.13 -0.106035
3.14 -0.100665
3.15 -0.0954288
3.16 -0.0902236
3.17 -0.0849467
3.18 -0.0794896
3.19 -0.0737385
3.2 -0.0675796
3.21 -0.0608899
3.22 -0.0535097
3.23 -0.0454065
3.24 -0.0365127
3.25 -0.0267805
3.26 -0.0161834
3.27 -0.00471738
3.28 0.00765916
3.29 0.0208715
3.3 0.0348184
3.31 0.0494192
3.32 0.06458
3.33 0.0801978
3.34 0.0961664
3.35 0.112387
3.36 0.12872
3.37 0.145068
3.38 0.161348
3.39 0.177488
3.4 0.193434
3.41 0.209134
3.42 0.224569
3.43 0.239755
3.44 0.25471
3.45 0.269466
3.46 0.284064
3.47 0.298551
3.48 0.312978
3.49 0.327404
3.5 0.341869
3.51 0.356405
3.52 0.371028
3.53 0.385737
3.54 0.40051
3.55 0.415297
3.56 0.430023
3.57 0.444594
3.58 0.458897
3.59 0.4728
3.6 0.486156
3.61 0.498713
3.62 0.510353
3.63 0.520913
3.64 0.530228
3.65 0.53814
3.66 0.544506
3.67 0.549127
3.68 0.551825
3.69 0.552658
3.7 0.551586
3.71 0.548598
3.72 0.543717
3.73 0.536994
3.74 0.528358
3.75 0.518064
3.76 0.506294
3.77 0.493214
3.78 0.479004
3.79 0.463858
3.8 0.447959
3.81 0.431507
3.82 0.414761
3.83 0.397909
3.84 0.381128
3.85 0.364577
3.86 0.348396
3.87 0.332751
3.88 0.317723
3.89 0.303356
3.9 0.28969
3.91 0.276742
3.92 0.264506
3.93 0.252968
3.94 0.242132
3.95 0.231869
3.96 0.22211
3.97 0.212779
3.98 0.203797
3.99 0.195083
4 0.186568
4.01 0.178166
4.02 0.169806
4.03 0.161434
4.04 0.153008
4.05 0.144497
4.06 0.135879
4.07 0.127134
4.08 0.118279
4.09 0.109326
4.1 0.100298
4.11 0.091222
4.12 0.0821311
4.13 0.073065
4.14 0.0640678
4.15 0.0551759
4.16 0.0464263
4.17 0.0378533
4.18 0.0294883
4.19 0.0213587
4.2 0.0135193
4.21 0.00596159
4.22 -0.00130186
4.23 -0.00826161
4.24 -0.0149118
4.25 -0.0212498
4.26 -0.0272604
4.27 -0.0329405
4.28 -0.0383156
4.29 -0.043391
4.3 -0.0481729
4.31 -0.0526678
4.32 -0.0568829
4.33 -0.0607988
4.34 -0.0644481
4.35 -0.0678437
4.36 -0.0709951
4.37 -0.0739132
4.38 -0.07661
4.39 -0.079092
4.4 -0.0813688
4.41 -0.0834744
4.42 -0.0854279
4.43 -0.0872502
4.44 -0.0889633
4.45 -0.0905902
4.46 -0.0921506
4.47 -0.0936743
4.48 -0.0951849
4.49 -0.0967024
4.5 -0.0982448
4.51 -0.0998269
4.52 -0.101461
4.53 -0.103159
4.54 -0.104917
4.55 -0.106733
4.56 -0.108597
4.57 -0.110498
4.58 -0.112419
4.59 -0.114339
4.6 -0.116231
4.61 -0.11807
4.62 -0.119829
4.63 -0.121482
4.64 -0.123005
4.65 -0.12437
4.66 -0.12554
4.67 -0.126515
4.68 -0.127285
4.69 -0.127844
4.7 -0.12819
4.71 -0.128328
4.72 -0.128256
4.73 -0.127994
4.74 -0.127573
4.75 -0.127016
4.76 -0.126351
4.77 -0.125605
4.78 -0.124809
4.79 -0.123992
4.8 -0.12319
4.81 -0.122427
4.82 -0.121728
4.83 -0.121114
4.84 -0.120601
4.85 -0.120209
4.86 -0.119948
4.87 -0.119816
4.88 -0.119812
4.89 -0.119934
4.9 -0.120176
4.91 -0.120531
4.92 -0.121
4.93 -0.121562
4.94 -0.122207
4.95 -0.122926
4.96 -0.12371
4.97 -0.124554
4.98 -0.125456
4.99 -0.126412
5 -0.12742
5.01 -0.128478
5.02 -0.129588
5.03 -0.130752
5.04 -0.131971
5.05 -0.133251
5.06 -0.134587
5.07 -0.135974
5.08 -0.137407
5.09 -0.138876
5.1 -0.140371
5.11 -0.141876
5.12 -0.143369
5.13 -0.144829
5.14 -0.146232
5.15 -0.147553
5.16 -0.148767
5.17 -0.149848
5.18 -0.150756
5.19 -0.151477
5.2 -0.151997
5.21 -0.152303
5.22 -0.152387
5.23 -0.152244
5.24 -0.151873
5.25 -0.15127
5.26 -0.150472
5.27 -0.149499
5.28 -0.148378
5.29 -0.147137
5.3 -0.145811
5.31 -0.144429
5.32 -0.143033
5.33 -0.141656
5.34 -0.140325
5.35 -0.139065
5.36 -0.137892
5.37 -0.13682
5.38 -0.135861
5.39 -0.134999
5.4 -0.134219
5.41 -0.1335
5.42 -0.132812
5.43 -0.132122
5.44 -0.131383
5.45 -0.130548
5.46 -0.129573
5.47 -0.128415
5.48 -0.127034
5.49 -0.125391
5.5 -0.123456
5.51 -0.121168
5.52 -0.118551
5.53 -0.115604
5.54 -0.112337
5.55 -0.10877
5.56 -0.104934
5.57 -0.100862
5.58 -0.0966097
5.59 -0.0922504
5.6 -0.0878475
5.61 -0.0834669
5.62 -0.079175
5.63 -0.0750362
5.64 -0.0711393
5.65 -0.06752
5.66 -0.0642176
5.67 -0.0612626
5.68 -0.0586726
5.69 -0.056452
5.7 -0.0546062
5.71 -0.0531159
5.72 -0.051915
5.73 -0.0509514
5.74 -0.0501631
5.75 -0.0494796
5.76 -0.0488252
5.77 -0.0481079
5.78 -0.0472438
5.79 -0.0461585
5.8 -0.0447828
5.81 -0.0430563
5.82 -0.0409296
5.83 -0.0383513
5.84 -0.0352753
5.85 -0.0317372
5.86 -0.0277513
5.87 -0.0233475
5.88 -0.0185706
5.89 -0.013479
5.9 -0.00812831
5.91 -0.00262223
5.92 0.00294526
5.93 0.00848486
5.94 0.0139078
5.95 0.0191291
5.96 0.0240624
5.97 0.0286059
5.98 0.0327346
5.99 0.03641
6 0.0396098
6.01 0.0423287
6.02 0.0445784
6.03 0.0463581
6.04 0.0477358
6.05 0.0487924
6.06 0.0496026
6.07 0.0502496
6.08 0.0508231
6.09 0.0514169
6.1 0.0521449
6.11 0.0530898
6.12 0.0543307
6.13 0.055936
6.14 0.0579608
6.15 0.0604449
6.16 0.0634427
6.17 0.066952
6.18 0.0709288
6.19 0.0753374
6.2 0.0801252
6.21 0.0852245
6.22 0.0905548
6.23 0.0960295
6.24 0.101524
6.25 0.106933
6.26 0.112155
6.27 0.117087
6.28 0.121637
6.29 0.125689
6.3 0.129155
6.31 0.132012
6.32 0.134221
6.33 0.13576
6.34 0.136627
6.35 0.136835
6.36 0.136353
6.37 0.135296
6.38 0.133735
6.39 0.131745
6.4 0.12941
6.41 0.12682
6.42 0.124064
6.43 0.121246
6.44 0.118464
6.45 0.1158
6.46 0.113327
6.47 0.111106
6.48 0.109187
6.49 0.107638
6.5 0.106456
6.51 0.105635
6.52 0.105164
6.53 0.105016
6.54 0.105156
6.55 0.10554
6.56 0.106114
6.57 0.106793
6.58 0.107512
6.59 0.1082
6.6 0.108792
6.61 0.109223
6.62 0.109413
6.63 0.109316
6.64 0.108901
6.65 0.108137
6.66 0.107005
6.67 0.105498
6.68 0.10361
6.69 0.101331
6.7 0.0987208
6.71 0.0958143
6.72 0.0926519
6.73 0.0892799
6.74 0.0857486
6.75 0.0821069
6.76 0.0784186
6.77 0.0747401
6.78 0.0711207
6.79 0.0676056
6.8 0.0642351
6.81 0.0610454
6.82 0.0580877
6.83 0.0553609
6.84 0.052877
6.85 0.050641
6.86 0.0486516
6.87 0.0469014
6.88 0.0453902
6.89 0.044096
6.9 0.0429843
6.91 0.0420304
6.92 0.0412079
6.93 0.0404895
6.94 0.0398481
6.95 0.0392598
6.96 0.0386916
6.97 0.0381204
6.98 0.0375255
6.99 0.0368887
7 0.0361944
7.01 0.0354253
7.02 0.0345684
7.03 0.033621
7.04 0.0325776
7.05 0.0314342
7.06 0.0301885
7.07 0.0288392
7.08 0.0273754
7.09 0.0258068
7.1 0.0241355
7.11 0.0223627
7.12 0.0204896
7.13 0.0185179
7.14 0.0164455
7.15 0.0142714
7.16 0.0120063
7.17 0.00965388
7.18 0.00721927
7.19 0.00470885
7.2 0.00213065
7.21 -0.000509632
7.22 -0.00319432
7.23 -0.00590719
7.24 -0.00863112
7.25 -0.0113467
7.26 -0.0140323
7.27 -0.0166619
7.28 -0.0192017
7.29 -0.0216297
7.3 -0.0239178
7.31 -0.0260376
7.32 -0.0279612
7.33 -0.0296615
7.34 -0.0310908
7.35 -0.0322349
7.36 -0.0330836
7.37 -0.0336221
7.38 -0.0338397
7.39 -0.0337312
7.4 -0.0332915
7.41 -0.0325023
7.42 -0.0314106
7.43 -0.0300377
7.44 -0.0284109
7.45 -0.026564
7.46 -0.0245366
7.47 -0.0223676
7.48 -0.020117
7.49 -0.0178449
7.5 -0.0156074
7.51 -0.0134618
7.52 -0.0114653
7.53 -0.0096753
7.54 -0.00817786
7.55 -0.00699646
7.56 -0.00617274
7.57 -0.0057413
7.58 -0.00572865
7.59 -0.00615225
7.6 -0.00704579
7.61 -0.00840429
7.62 -0.0101859
7.63 -0.0123641
7.64 -0.0149026
7.65 -0.0177555
7.66 -0.0208686
7.67 -0.0241955
7.68 -0.0276402
7.69 -0.0311301
7.7 -0.0345918
7.71 -0.0379521
7.72 -0.0411403
7.73 -0.0440757
7.74 -0.0466842
7.75 -0.0489337
7.76 -0.050785
7.77 -0.0522106
7.78 -0.0531949
7.79 -0.0537356
7.8 -0.0538022
7.81 -0.05346
7.82 -0.0527552
7.83 -0.0517382
7.84 -0.0504686
7.85 -0.0490136
7.86 -0.0474448
7.87 -0.0458475
7.88 -0.0443056
7.89 -0.0428928
7.9 -0.0416773
7.91 -0.0407195
7.92 -0.0400702
7.93 -0.0398018
7.94 -0.0399186
7.95 -0.0404178
7.96 -0.0412908
7.97 -0.0425138
7.98 -0.0440484
7.99 -0.045847
8 -0.0478479
8.01 -0.0499511
8.02 -0.0520726
8.03 -0.0541238
8.04 -0.0560153
8.05 -0.0576595
8.06 -0.0589416
8.07 -0.0597927
8.08 -0.060166
8.09 -0.0600161
8.1 -0.0593138
8.11 -0.0580476
8.12 -0.0562172
8.13 -0.0538077
8.14 -0.0509259
8.15 -0.0476392
8.16 -0.0440301
8.17 -0.0401946
8.18 -0.0362389
8.19 -0.0322838
8.2 -0.0284635
8.21 -0.024893
8.22 -0.0216826
8.23 -0.0189336
8.24 -0.0167347
8.25 -0.0151616
8.26 -0.0143478
8.27 -0.0142492
8.28 -0.0148717
8.29 -0.0161983
8.3 -0.0181891
8.31 -0.0207825
8.32 -0.02392
8.33 -0.0274854
8.34 -0.0313294
8.35 -0.0353229
8.36 -0.0393304
8.37 -0.0432136
8.38 -0.0468364
8.39 -0.0500127
8.4 -0.0526527
8.41 -0.0546583
8.42 -0.0559462
8.43 -0.0564541
8.44 -0.0561421
8.45 -0.0549571
8.46 -0.0528904
8.47 -0.0500412
8.48 -0.0464706
8.49 -0.0422604
8.5 -0.0375096
8.51 -0.0323317
8.52 -0.026834
8.53 -0.0211866
8.54 -0.0155278
8.55 -0.00998745
8.56 -0.00468827
8.57 0.00025772
8.58 0.00473424
8.59 0.00862596
8.6 0.0119156
8.61 0.0145679
8.62 0.0165695
8.63 0.0179281
8.64 0.0186718
8.65 0.018804
8.66 0.0184317
8.67 0.0176526
8.68 0.0165575
8.69 0.0152435
8.7 0.0138103
8.71 0.0123585
8.72 0.0109988
8.73 0.00981508
8.74 0.00887927
8.75 0.0082496
8.76 0.00796877
8.77 0.0080629
8.78 0.00856965
8.79 0.00946378
8.8 0.0107015
8.81 0.0122405
8.82 0.0140268
8.83 0.0159968
8.84 0.0180803
8.85 0.0201977
8.86 0.0222641
8.87 0.0242086
8.88 0.0259661
8.89 0.0274802
8.9 0.0287051
8.91 0.029585
8.92 0.0301034
8.93 0.0302754
8.94 0.0301129
8.95 0.0296409
8.96 0.0288964
8.97 0.0279265
8.98 0.0267745
8.99 0.0255275
9 0.0242504
9.01 0.0230075
9.02 0.0218603
9.03 0.020865
9.04 0.0200828
9.05 0.0195591
9.06 0.019305
9.07 0.0193326
9.08 0.019641
9.09 0.0202169
9.1 0.021035
9.11 0.0220761
9.12 0.0232685
9.13 0.0245557
9.14 0.0258786
9.15 0.0271762
9.16 0.0283877
9.17 0.0294469
9.18 0.0302888
9.19 0.0308822
9.2 0.0311942
9.21 0.0312033
9.22 0.0308997
9.23 0.0302862
9.24 0.0293521
9.25 0.0281513
9.26 0.0267305
9.27 0.0251387
9.28 0.023432
9.29 0.0216713
9.3 0.0199224
9.31 0.0182606
9.32 0.0167442
9.33 0.0154272
9.34 0.0143564
9.35 0.0135693
9.36 0.0130925
9.37 0.0129687
9.38 0.0131815
9.39 0.0137069
9.4 0.0145196
9.41 0.0155831
9.42 0.0168516
9.43 0.0182726
9.44 0.0197847
9.45 0.0213097
9.46 0.0227822
9.47 0.0241384
9.48 0.0253183
9.49 0.0262677
9.5 0.0269173
9.51 0.0272353
9.52 0.027211
9.53 0.0268334
9.54 0.0261033
9.55 0.0250337
9.56 0.0236463
9.57 0.0219536
9.58 0.0200354
9.59 0.0179451
9.6 0.0157411
9.61 0.0134852
9.62 0.0112401
9.63 0.00907595
9.64 0.00705895
9.65 0.00523649
9.66 0.00365329
9.67 0.00234564
9.68 0.00134038
9.69 0.00065425
9.7 0.000330684
9.71 0.000326156
9.72 0.000623548
9.73 0.00119736
9.74 0.00201433
9.75 0.0030347
9.76 0.00421935
9.77 0.00551432
9.78 0.00686001
9.79 0.00820738
9.8 0.00950958
9.81 0.0107235
9.82 0.0118108
9.83 0.0127203
9.84 0.0134401
9.85 0.0139567
9.86 0.0142625
9.87 0.0143576
9.88 0.0142498
9.89 0.0139469
9.9 0.0134678
9.91 0.0128544
9.92 0.0121384
9.93 0.0113543
9.94 0.0105386
9.95 0.009728
9.96 0.00896606
9.97 0.00828802
9.98 0.00772381
9.99 0.00730074
10 0.00704172
10.01 0.00696479
10.02 0.00708868
10.03 0.00743281
10.04 0.00798022
10.05 0.00872588
10.06 0.00965968
10.07 0.0107667
10.08 0.0120278
10.09 0.0134284
10.1 0.014932
10.11 0.0165046
10.12 0.0181145
10.13 0.0197288
10.14 0.0213141
10.15 0.0228348
10.16 0.024246
10.17 0.0255229
10.18 0.0266356
10.19 0.0275566
10.2 0.0282613
10.21 0.0287284
10.22 0.0289211
10.23 0.0288314
10.24 0.0284637
10.25 0.0278155
10.26 0.0268897
10.27 0.0256944
10.28 0.0242416
10.29 0.0225289
10.3 0.0206101
10.31 0.018516
10.32 0.0162818
10.33 0.0139469
10.34 0.0115535
10.35 0.00914868
10.36 0.00678597
10.37 0.0045122
10.38 0.00237266
10.39 0.000410297
10.4 -0.00133553
10.41 -0.0028302
10.42 -0.00401089
10.43 -0.00488572
10.44 -0.00544419
10.45 -0.00568327
10.46 -0.005609
10.47 -0.00523663
10.48 -0.00457884
10.49 -0.00367027
10.5 -0.00257241
10.51 -0.00133513
10.52 -1.36764e-05
10.53 0.00133279
10.54 0.00264291
10.55 0.00383872
10.56 0.00486265
10.57 0.00566101
10.58 0.00618445
10.59 0.0063913
10.6 0.00624911
10.61 0.00572152
10.62 0.00478268
10.63 0.00346758
10.64 0.00179405
10.65 -0.000207817
10.66 -0.00249632
10.67 -0.00501914
10.68 -0.00772407
10.69 -0.0105216
10.7 -0.013332
10.71 -0.0160774
10.72 -0.0186798
10.73 -0.0210636
10.74 -0.0231487
10.75 -0.0248421
10.76 -0.0261199
10.77 -0.026943
10.78 -0.0272853
10.79 -0.0271352
10.8 -0.0264955
10.81 -0.0253495
10.82 -0.0237563
10.83 -0.0217835
10.84 -0.0194928
10.85 -0.0169562
10.86 -0.0142535
10.87 -0.0114704
10.88 -0.00870715
10.89 -0.00605811
10.9 -0.00360773
10.91 -0.00143434
10.92 0.000392298
10.93 0.00181319
10.94 0.00274857
10.95 0.0031731
10.96 0.00309605
10.97 0.00252011
10.98 0.00146345
10.99 -4.09565e-05
11 -0.00194792
11.01 -0.00422713
11.02 -0.00676295
11.03 -0.00947636
11.04 -0.0122836
11.05 -0.0150987
11.06 -0.0178361
11.07 -0.0203996
11.08 -0.0227013
11.09 -0.024685
11.1 -0.026295
11.11 -0.027487
11.12 -0.0282302
11.13 -0.0285068
11.14 -0.0282624
11.15 -0.0275592
11.16 -0.0264264
11.17 -0.0249015
11.18 -0.0230318
11.19 -0.0208727
11.2 -0.0184781
11.21 -0.0159194
11.22 -0.0132791
11.23 -0.0106232
11.24 -0.00801437
11.25 -0.00551067
11.26 -0.00316341
11.27 -0.00103952
11.28 0.000840651
11.29 0.00245822
11.3 0.00380044
11.31 0.00486409
11.32 0.00565499
11.33 0.00617886
11.34 0.00644974
11.35 0.00651705
11.36 0.0064133
11.37 0.00617353
11.38 0.00583375
11.39 0.00542953
11.4 0.00499467
11.41 0.00456468
11.42 0.00416558
11.43 0.00381755
11.44 0.00353524
11.45 0.00332755
11.46 0.00319951
11.47 0.00315307
11.48 0.00317254
11.49 0.00324549
11.5 0.00335636
11.51 0.00348741
11.52 0.00361977
11.53 0.0037316
11.54 0.00380323
11.55 0.00381974
11.56 0.00376812
11.57 0.00363872
11.58 0.00342561
11.59 0.00312575
11.6 0.00273437
11.61 0.00226738
11.62 0.00173517
11.63 0.00115109
11.64 0.000530782
11.65 -0.000108513
11.66 -0.00074749
11.67 -0.00136536
11.68 -0.00194507
11.69 -0.00247102
11.7 -0.00292982
11.71 -0.00331069
11.72 -0.00360566
11.73 -0.0037998
11.74 -0.00390271
11.75 -0.00391711
11.76 -0.00384856
11.77 -0.00370514
11.78 -0.00349693
11.79 -0.00323331
11.8 -0.0029285
11.81 -0.00259844
11.82 -0.00225546
11.83 -0.00191089
11.84 -0.00157465
