# xPDFsuite Configuration #
[PDF]
wavelength = 0.1
dataformat = QA
inputfile = BiMsol6_insitu_700 C-00348.xy
backgroundfile = Quartz2mm-dist500-00000.xy
mode = xray
bgscale = 0.0042
composition = Bi2Fe4O9
outputtype = gr
qmaxinst = 24.998449118
qmin = 0.1
qmax = 21.4986662415
rmax = 80.0
rmin = 0.0
rstep = 0.01
rpoly = 0.9

[Misc]
inputdir = C:/Data/Seafile/CPH/Beamtime/Desy Oct 20/In situ data/Processed/BiMsol6/PDF
savedir = C:/Data/Seafile/CPH/Beamtime/Desy Oct 20/In situ data/PDF/BiMsol6
backgroundfilefull = C:/Data/Seafile/CPH/Beamtime/Desy Oct 20/In situ data/Processed/Standard_Empty_Cap/Quartz2mm-dist500-00000.xy

#### start data
#S 1
#L r($\AA$)  G($\AA^{-2}$)
0 0
0.01 0.00656958
0.02 0.0127727
0.03 0.0182956
0.04 0.0228563
0.05 0.0262179
0.06 0.0281989
0.07 0.0286002
0.08 0.0273617
0.09 0.024626
0.1 0.0205095
0.11 0.0151942
0.12 0.00891997
0.13 0.0019739
0.14 -0.0053231
0.15 -0.01256
0.16 -0.0193907
0.17 -0.0254893
0.18 -0.0305627
0.19 -0.034364
0.2 -0.0366389
0.21 -0.0372099
0.22 -0.0361684
0.23 -0.0335737
0.24 -0.0295642
0.25 -0.0243526
0.26 -0.0182186
0.27 -0.0114777
0.28 -0.00459757
0.29 0.00200523
0.3 0.00792516
0.31 0.0127743
0.32 0.0162014
0.33 0.017849
0.34 0.0173642
0.35 0.0147847
0.36 0.0100942
0.37 0.00338048
0.38 -0.00516212
0.39 -0.0152352
0.4 -0.0264963
0.41 -0.0383304
0.42 -0.0501306
0.43 -0.0612791
0.44 -0.0711326
0.45 -0.0790459
0.46 -0.0843342
0.47 -0.0861149
0.48 -0.0841718
0.49 -0.0781289
0.5 -0.0677303
0.51 -0.0528548
0.52 -0.033527
0.53 -0.00963791
0.54 0.0182894
0.55 0.0495478
0.56 0.0834837
0.57 0.119324
0.58 0.156198
0.59 0.193152
0.6 0.228979
0.61 0.262682
0.62 0.293276
0.63 0.319833
0.64 0.341504
0.65 0.357555
0.66 0.366972
0.67 0.36931
0.68 0.364695
0.69 0.353087
0.7 0.33463
0.71 0.309653
0.72 0.278658
0.73 0.241783
0.74 0.200529
0.75 0.155854
0.76 0.108779
0.77 0.0603769
0.78 0.0117346
0.79 -0.0359768
0.8 -0.0815574
0.81 -0.124151
0.82 -0.162947
0.83 -0.197264
0.84 -0.226573
0.85 -0.250506
0.86 -0.268285
0.87 -0.280412
0.88 -0.287145
0.89 -0.288818
0.9 -0.285902
0.91 -0.278985
0.92 -0.268648
0.93 -0.255656
0.94 -0.241053
0.95 -0.225639
0.96 -0.210194
0.97 -0.195449
0.98 -0.182065
0.99 -0.170838
1 -0.162138
1.01 -0.156232
1.02 -0.153311
1.03 -0.153442
1.04 -0.156571
1.05 -0.162599
1.06 -0.171364
1.07 -0.182239
1.08 -0.194784
1.09 -0.208515
1.1 -0.222927
1.11 -0.237511
1.12 -0.251717
1.13 -0.265056
1.14 -0.277163
1.15 -0.287727
1.16 -0.296518
1.17 -0.303391
1.18 -0.308253
1.19 -0.310986
1.2 -0.311916
1.21 -0.311241
1.22 -0.309215
1.23 -0.306136
1.24 -0.302331
1.25 -0.298135
1.26 -0.293939
1.27 -0.290067
1.28 -0.28679
1.29 -0.284333
1.3 -0.282861
1.31 -0.282487
1.32 -0.283361
1.33 -0.285311
1.34 -0.288227
1.35 -0.291941
1.36 -0.296238
1.37 -0.300869
1.38 -0.305544
1.39 -0.309933
1.4 -0.313758
1.41 -0.316763
1.42 -0.318726
1.43 -0.319468
1.44 -0.318865
1.45 -0.316696
1.46 -0.313125
1.47 -0.308243
1.48 -0.302196
1.49 -0.295187
1.5 -0.287469
1.51 -0.27933
1.52 -0.271136
1.53 -0.263247
1.54 -0.255992
1.55 -0.249681
1.56 -0.244593
1.57 -0.240962
1.58 -0.239144
1.59 -0.239115
1.6 -0.240873
1.61 -0.244367
1.62 -0.249476
1.63 -0.256005
1.64 -0.263728
1.65 -0.272317
1.66 -0.281314
1.67 -0.290323
1.68 -0.298934
1.69 -0.306741
1.7 -0.313352
1.71 -0.318238
1.72 -0.321155
1.73 -0.321908
1.74 -0.320326
1.75 -0.316315
1.76 -0.309862
1.77 -0.300976
1.78 -0.289687
1.79 -0.27645
1.8 -0.261568
1.81 -0.245395
1.82 -0.228327
1.83 -0.210787
1.84 -0.193238
1.85 -0.176167
1.86 -0.159974
1.87 -0.145025
1.88 -0.131634
1.89 -0.120056
1.9 -0.110511
1.91 -0.103302
1.92 -0.0982372
1.93 -0.0952568
1.94 -0.0942297
1.95 -0.0949597
1.96 -0.0971935
1.97 -0.10069
1.98 -0.105044
1.99 -0.109842
2 -0.114728
2.01 -0.119358
2.02 -0.123414
2.03 -0.126612
2.04 -0.128581
2.05 -0.129267
2.06 -0.128578
2.07 -0.126491
2.08 -0.123051
2.09 -0.11837
2.1 -0.112575
2.11 -0.105933
2.12 -0.0987927
2.13 -0.0914695
2.14 -0.0842992
2.15 -0.0776236
2.16 -0.0717786
2.17 -0.0672377
2.18 -0.0641902
2.19 -0.0628574
2.2 -0.0634168
2.21 -0.0659868
2.22 -0.0706223
2.23 -0.0774032
2.24 -0.0862856
2.25 -0.09697
2.26 -0.109249
2.27 -0.122868
2.28 -0.137535
2.29 -0.15293
2.3 -0.168721
2.31 -0.184499
2.32 -0.199928
2.33 -0.214699
2.34 -0.228534
2.35 -0.241196
2.36 -0.252439
2.37 -0.26204
2.38 -0.270045
2.39 -0.276439
2.4 -0.281263
2.41 -0.284609
2.42 -0.286614
2.43 -0.287372
2.44 -0.287188
2.45 -0.286333
2.46 -0.285052
2.47 -0.283596
2.48 -0.282203
2.49 -0.281112
2.5 -0.28058
2.51 -0.280738
2.52 -0.281712
2.53 -0.283588
2.54 -0.286412
2.55 -0.290187
2.56 -0.294943
2.57 -0.300561
2.58 -0.306891
2.59 -0.313797
2.6 -0.321122
2.61 -0.328697
2.62 -0.336344
2.63 -0.343858
2.64 -0.351067
2.65 -0.357817
2.66 -0.363974
2.67 -0.369422
2.68 -0.374069
2.69 -0.377787
2.7 -0.380542
2.71 -0.382365
2.72 -0.383263
2.73 -0.383259
2.74 -0.382391
2.75 -0.380705
2.76 -0.378174
2.77 -0.374945
2.78 -0.371069
2.79 -0.366591
2.8 -0.361546
2.81 -0.355956
2.82 -0.349805
2.83 -0.343083
2.84 -0.335807
2.85 -0.327949
2.86 -0.319473
2.87 -0.310341
2.88 -0.300509
2.89 -0.289853
2.9 -0.27841
2.91 -0.266163
2.92 -0.253103
2.93 -0.239236
2.94 -0.224585
2.95 -0.209164
2.96 -0.193024
2.97 -0.176306
2.98 -0.159111
2.99 -0.141556
3 -0.123769
3.01 -0.105884
3.02 -0.0880597
3.03 -0.0704443
3.04 -0.0531671
3.05 -0.0363469
3.06 -0.0200872
3.07 -0.00447255
3.08 0.0104101
3.09 0.0244804
3.1 0.0377931
3.11 0.0503673
3.12 0.0622471
3.13 0.0734991
3.14 0.0842105
3.15 0.0944586
3.16 0.1044
3.17 0.114174
3.18 0.12391
3.19 0.133733
3.2 0.143761
3.21 0.154107
3.22 0.1649
3.23 0.17617
3.24 0.187956
3.25 0.200273
3.26 0.213109
3.27 0.226427
3.28 0.24019
3.29 0.254288
3.3 0.268596
3.31 0.28299
3.32 0.297339
3.33 0.311505
3.34 0.325342
3.35 0.338655
3.36 0.351356
3.37 0.363331
3.38 0.374487
3.39 0.384745
3.4 0.394051
3.41 0.402312
3.42 0.409528
3.43 0.415772
3.44 0.421088
3.45 0.425533
3.46 0.429186
3.47 0.432136
3.48 0.434426
3.49 0.436243
3.5 0.437694
3.51 0.438889
3.52 0.439927
3.53 0.440903
3.54 0.441903
3.55 0.443008
3.56 0.444267
3.57 0.445718
3.58 0.447384
3.59 0.449273
3.6 0.451382
3.61 0.453716
3.62 0.456226
3.63 0.45888
3.64 0.461639
3.65 0.464467
3.66 0.467325
3.67 0.470177
3.68 0.472986
3.69 0.475728
3.7 0.478384
3.71 0.480941
3.72 0.483394
3.73 0.485741
3.74 0.487974
3.75 0.490109
3.76 0.492154
3.77 0.494115
3.78 0.495994
3.79 0.497789
3.8 0.499487
3.81 0.501063
3.82 0.502496
3.83 0.503749
3.84 0.504772
3.85 0.505507
3.86 0.505888
3.87 0.505796
3.88 0.505159
3.89 0.503903
3.9 0.501939
3.91 0.499176
3.92 0.495528
3.93 0.490892
3.94 0.4851
3.95 0.478185
3.96 0.470096
3.97 0.460793
3.98 0.45025
3.99 0.438455
4 0.425324
4.01 0.410912
4.02 0.395312
4.03 0.37857
4.04 0.360748
4.05 0.341914
4.06 0.322141
4.07 0.301438
4.08 0.279996
4.09 0.257909
4.1 0.235274
4.11 0.212186
4.12 0.188741
4.13 0.165022
4.14 0.141135
4.15 0.117184
4.16 0.093254
4.17 0.0694277
4.18 0.0457863
4.19 0.0224087
4.2 -0.000580675
4.21 -0.0231363
4.22 -0.0451851
4.23 -0.0666538
4.24 -0.0874703
4.25 -0.107564
4.26 -0.126824
4.27 -0.145159
4.28 -0.162564
4.29 -0.178982
4.3 -0.194365
4.31 -0.208673
4.32 -0.221873
4.33 -0.233829
4.34 -0.244632
4.35 -0.254305
4.36 -0.262869
4.37 -0.27036
4.38 -0.276825
4.39 -0.282292
4.4 -0.286812
4.41 -0.290548
4.42 -0.293594
4.43 -0.296056
4.44 -0.298039
4.45 -0.299652
4.46 -0.300987
4.47 -0.302176
4.48 -0.303319
4.49 -0.304499
4.5 -0.305788
4.51 -0.307241
4.52 -0.308906
4.53 -0.310824
4.54 -0.312979
4.55 -0.315357
4.56 -0.317928
4.57 -0.320651
4.58 -0.323469
4.59 -0.326314
4.6 -0.329102
4.61 -0.331755
4.62 -0.334196
4.63 -0.336351
4.64 -0.338152
4.65 -0.339533
4.66 -0.340402
4.67 -0.340772
4.68 -0.340629
4.69 -0.339972
4.7 -0.338821
4.71 -0.337209
4.72 -0.335162
4.73 -0.332763
4.74 -0.330112
4.75 -0.327294
4.76 -0.324404
4.77 -0.321539
4.78 -0.318797
4.79 -0.316307
4.8 -0.31414
4.81 -0.312372
4.82 -0.31107
4.83 -0.310287
4.84 -0.31006
4.85 -0.310446
4.86 -0.31145
4.87 -0.313023
4.88 -0.315138
4.89 -0.317751
4.9 -0.320808
4.91 -0.324246
4.92 -0.328017
4.93 -0.332002
4.94 -0.33612
4.95 -0.340289
4.96 -0.344431
4.97 -0.348469
4.98 -0.352324
4.99 -0.355919
5 -0.359216
5.01 -0.362169
5.02 -0.364743
5.03 -0.36691
5.04 -0.368649
5.05 -0.369898
5.06 -0.370684
5.07 -0.371007
5.08 -0.370862
5.09 -0.370242
5.1 -0.36914
5.11 -0.367526
5.12 -0.365359
5.13 -0.362658
5.14 -0.359395
5.15 -0.355538
5.16 -0.351047
5.17 -0.345881
5.18 -0.339924
5.19 -0.333162
5.2 -0.325566
5.21 -0.317084
5.22 -0.307667
5.23 -0.29727
5.24 -0.285828
5.25 -0.273231
5.26 -0.259552
5.27 -0.244776
5.28 -0.228899
5.29 -0.211926
5.3 -0.193875
5.31 -0.174693
5.32 -0.154463
5.33 -0.133276
5.34 -0.111188
5.35 -0.0882643
5.36 -0.0645764
5.37 -0.0401935
5.38 -0.0151539
5.39 0.0103854
5.4 0.0363341
5.41 0.062599
5.42 0.0890844
5.43 0.115692
5.44 0.142317
5.45 0.16884
5.46 0.195154
5.47 0.221151
5.48 0.246716
5.49 0.271734
5.5 0.296082
5.51 0.319531
5.52 0.34203
5.53 0.363448
5.54 0.383649
5.55 0.402497
5.56 0.419858
5.57 0.4355
5.58 0.449264
5.59 0.46113
5.6 0.470988
5.61 0.47874
5.62 0.4843
5.63 0.487602
5.64 0.488346
5.65 0.486738
5.66 0.482799
5.67 0.476559
5.68 0.46807
5.69 0.457407
5.7 0.444588
5.71 0.4297
5.72 0.413043
5.73 0.394784
5.74 0.375107
5.75 0.354202
5.76 0.332272
5.77 0.309461
5.78 0.286058
5.79 0.262276
5.8 0.238304
5.81 0.214318
5.82 0.190479
5.83 0.166945
5.84 0.143875
5.85 0.121341
5.86 0.0994207
5.87 0.0781716
5.88 0.0576326
5.89 0.0378254
5.9 0.01882
5.91 0.000568346
5.92 -0.0169682
5.93 -0.0338099
5.94 -0.0499781
5.95 -0.0654922
5.96 -0.0803524
5.97 -0.0945183
5.98 -0.108043
5.99 -0.120909
6 -0.133082
6.01 -0.144519
6.02 -0.155159
6.03 -0.164865
6.04 -0.173571
6.05 -0.181228
6.06 -0.187743
6.07 -0.193026
6.08 -0.19699
6.09 -0.199538
6.1 -0.200454
6.11 -0.199838
6.12 -0.197659
6.13 -0.193905
6.14 -0.18859
6.15 -0.181749
6.16 -0.173355
6.17 -0.163527
6.18 -0.152455
6.19 -0.140276
6.2 -0.127145
6.21 -0.113228
6.22 -0.0987078
6.23 -0.0837433
6.24 -0.0685906
6.25 -0.0534356
6.26 -0.0384568
6.27 -0.0238204
6.28 -0.00967694
6.29 0.00380346
6.3 0.0164903
6.31 0.0283472
6.32 0.0393223
6.33 0.0493902
6.34 0.0585511
6.35 0.0668306
6.36 0.0741966
6.37 0.080808
6.38 0.0867656
6.39 0.0921745
6.4 0.0971495
6.41 0.101811
6.42 0.106281
6.43 0.110693
6.44 0.115176
6.45 0.119835
6.46 0.124763
6.47 0.130041
6.48 0.135734
6.49 0.14194
6.5 0.148659
6.51 0.155894
6.52 0.163644
6.53 0.171895
6.54 0.180622
6.55 0.189802
6.56 0.199409
6.57 0.209358
6.58 0.219599
6.59 0.230084
6.6 0.240764
6.61 0.251597
6.62 0.262549
6.63 0.273578
6.64 0.284653
6.65 0.295755
6.66 0.306866
6.67 0.317975
6.68 0.329071
6.69 0.340145
6.7 0.351188
6.71 0.362187
6.72 0.373126
6.73 0.383982
6.74 0.394724
6.75 0.405297
6.76 0.415647
6.77 0.425719
6.78 0.43544
6.79 0.444727
6.8 0.453487
6.81 0.461615
6.82 0.468916
6.83 0.475348
6.84 0.480799
6.85 0.485154
6.86 0.488303
6.87 0.490141
6.88 0.490478
6.89 0.489221
6.9 0.486378
6.91 0.481889
6.92 0.47571
6.93 0.467812
6.94 0.458184
6.95 0.446634
6.96 0.433381
6.97 0.418472
6.98 0.401959
6.99 0.383913
7 0.364413
7.01 0.343485
7.02 0.321224
7.03 0.297826
7.04 0.273402
7.05 0.248066
7.06 0.221933
7.07 0.195118
7.08 0.167687
7.09 0.139815
7.1 0.111616
7.11 0.0831949
7.12 0.0546512
7.13 0.0260815
7.14 -0.00241564
7.15 -0.0307333
7.16 -0.0587935
7.17 -0.0865148
7.18 -0.113818
7.19 -0.140628
7.2 -0.16687
7.21 -0.192406
7.22 -0.217201
7.23 -0.241204
7.24 -0.26435
7.25 -0.286578
7.26 -0.307828
7.27 -0.328016
7.28 -0.347019
7.29 -0.364887
7.3 -0.381582
7.31 -0.397074
7.32 -0.41134
7.33 -0.424365
7.34 -0.436043
7.35 -0.446432
7.36 -0.455593
7.37 -0.463548
7.38 -0.470326
7.39 -0.475969
7.4 -0.480503
7.41 -0.483905
7.42 -0.486344
7.43 -0.487883
7.44 -0.488593
7.45 -0.488544
7.46 -0.487807
7.47 -0.486416
7.48 -0.484466
7.49 -0.48205
7.5 -0.479232
7.51 -0.476068
7.52 -0.472612
7.53 -0.468906
7.54 -0.464971
7.55 -0.460861
7.56 -0.456597
7.57 -0.452192
7.58 -0.447652
7.59 -0.442975
7.6 -0.438142
7.61 -0.433134
7.62 -0.427937
7.63 -0.422525
7.64 -0.416866
7.65 -0.410927
7.66 -0.404674
7.67 -0.398027
7.68 -0.390986
7.69 -0.383521
7.7 -0.375604
7.71 -0.367211
7.72 -0.358324
7.73 -0.348908
7.74 -0.338948
7.75 -0.328489
7.76 -0.317546
7.77 -0.306145
7.78 -0.294325
7.79 -0.28213
7.8 -0.269592
7.81 -0.256812
7.82 -0.243872
7.83 -0.230854
7.84 -0.21785
7.85 -0.204952
7.86 -0.192272
7.87 -0.179934
7.88 -0.16802
7.89 -0.156625
7.9 -0.14584
7.91 -0.135747
7.92 -0.126424
7.93 -0.118015
7.94 -0.110527
7.95 -0.103973
7.96 -0.0983779
7.97 -0.0937515
7.98 -0.0900893
7.99 -0.087396
8 -0.0856943
8.01 -0.0848508
8.02 -0.0848077
8.03 -0.0854985
8.04 -0.0868499
8.05 -0.0887837
8.06 -0.0912522
8.07 -0.0941437
8.08 -0.0973613
8.09 -0.100832
8.1 -0.104489
8.11 -0.108273
8.12 -0.112135
8.13 -0.116036
8.14 -0.119943
8.15 -0.123841
8.16 -0.127724
8.17 -0.131596
8.18 -0.135467
8.19 -0.139355
8.2 -0.143285
8.21 -0.147276
8.22 -0.151346
8.23 -0.155512
8.24 -0.159781
8.25 -0.164152
8.26 -0.168622
8.27 -0.173149
8.28 -0.177694
8.29 -0.182199
8.3 -0.186594
8.31 -0.190795
8.32 -0.19468
8.33 -0.198123
8.34 -0.20102
8.35 -0.203248
8.36 -0.204677
8.37 -0.205181
8.38 -0.204636
8.39 -0.202785
8.4 -0.199634
8.41 -0.195102
8.42 -0.189119
8.43 -0.181632
8.44 -0.17261
8.45 -0.161976
8.46 -0.149706
8.47 -0.135952
8.48 -0.120778
8.49 -0.104265
8.5 -0.0865101
8.51 -0.0676277
8.52 -0.0476562
8.53 -0.0268233
8.54 -0.00528418
8.55 0.0168247
8.56 0.0393709
8.57 0.0622292
8.58 0.0852871
8.59 0.108434
8.6 0.131572
8.61 0.154632
8.62 0.177563
8.63 0.200328
8.64 0.222909
8.65 0.245281
8.66 0.267464
8.67 0.289478
8.68 0.311345
8.69 0.333087
8.7 0.354725
8.71 0.376274
8.72 0.397734
8.73 0.419106
8.74 0.440368
8.75 0.461481
8.76 0.482389
8.77 0.503016
8.78 0.523232
8.79 0.54292
8.8 0.561964
8.81 0.580219
8.82 0.59753
8.83 0.613732
8.84 0.628641
8.85 0.641935
8.86 0.653592
8.87 0.663459
8.88 0.671397
8.89 0.677283
8.9 0.681014
8.91 0.682358
8.92 0.68128
8.93 0.677872
8.94 0.67213
8.95 0.664077
8.96 0.653759
8.97 0.641243
8.98 0.626385
8.99 0.609547
9 0.590852
9.01 0.570431
9.02 0.548424
9.03 0.524972
9.04 0.500157
9.05 0.474129
9.06 0.447104
9.07 0.419208
9.08 0.390562
9.09 0.361274
9.1 0.331448
9.11 0.301137
9.12 0.270476
9.13 0.239549
9.14 0.208429
9.15 0.177186
9.16 0.145892
9.17 0.114625
9.18 0.0834779
9.19 0.0525341
9.2 0.0218866
9.21 -0.00836198
9.22 -0.0381001
9.23 -0.0672067
9.24 -0.0954654
9.25 -0.122778
9.26 -0.149016
9.27 -0.174031
9.28 -0.197672
9.29 -0.219792
9.3 -0.24019
9.31 -0.258617
9.32 -0.275097
9.33 -0.289524
9.34 -0.301809
9.35 -0.311883
9.36 -0.319698
9.37 -0.325033
9.38 -0.328009
9.39 -0.328726
9.4 -0.327232
9.41 -0.323596
9.42 -0.317905
9.43 -0.310224
9.44 -0.30055
9.45 -0.289198
9.46 -0.276306
9.47 -0.262016
9.48 -0.246467
9.49 -0.2298
9.5 -0.212085
9.51 -0.193497
9.52 -0.174192
9.53 -0.154277
9.54 -0.133848
9.55 -0.112989
9.56 -0.0917729
9.57 -0.0702466
9.58 -0.0485045
9.59 -0.0266002
9.6 -0.00458491
9.61 0.0174903
9.62 0.0395725
9.63 0.0615971
9.64 0.0834907
9.65 0.105183
9.66 0.126593
9.67 0.147629
9.68 0.16819
9.69 0.188166
9.7 0.207345
9.71 0.225672
9.72 0.243021
9.73 0.259262
9.74 0.274272
9.75 0.287931
9.76 0.300047
9.77 0.310488
9.78 0.319272
9.79 0.32634
9.8 0.331652
9.81 0.335191
9.82 0.336964
9.83 0.336825
9.84 0.335
9.85 0.331591
9.86 0.326702
9.87 0.320454
9.88 0.312983
9.89 0.304399
9.9 0.294848
9.91 0.28457
9.92 0.273723
9.93 0.26246
9.94 0.250926
9.95 0.239252
9.96 0.227562
9.97 0.215966
9.98 0.204538
9.99 0.193331
10 0.182378
10.01 0.171691
10.02 0.161271
10.03 0.151103
10.04 0.141121
10.05 0.131274
10.06 0.1215
10.07 0.111734
10.08 0.10191
10.09 0.0919516
10.1 0.0818009
10.11 0.0714179
10.12 0.0607703
10.13 0.04984
10.14 0.0386244
10.15 0.0271328
10.16 0.0153815
10.17 0.00344689
10.18 -0.00860726
10.19 -0.0207051
10.2 -0.032761
10.21 -0.0446828
10.22 -0.0563505
10.23 -0.0676598
10.24 -0.0785289
10.25 -0.088872
10.26 -0.0986126
10.27 -0.107686
10.28 -0.116038
10.29 -0.123555
10.3 -0.130305
10.31 -0.136294
10.32 -0.141546
10.33 -0.1461
10.34 -0.150013
10.35 -0.153323
10.36 -0.156127
10.37 -0.158547
10.38 -0.160678
10.39 -0.162618
10.4 -0.164463
10.41 -0.166305
10.42 -0.168246
10.43 -0.17036
10.44 -0.172706
10.45 -0.175333
10.46 -0.178274
10.47 -0.181549
10.48 -0.185178
10.49 -0.189153
10.5 -0.193424
10.51 -0.197954
10.52 -0.202695
10.53 -0.207592
10.54 -0.212586
10.55 -0.21761
10.56 -0.222591
10.57 -0.22747
10.58 -0.232191
10.59 -0.236704
10.6 -0.240968
10.61 -0.244939
10.62 -0.248581
10.63 -0.251907
10.64 -0.254917
10.65 -0.257622
10.66 -0.26004
10.67 -0.262198
10.68 -0.26411
10.69 -0.265834
10.7 -0.267417
10.71 -0.268898
10.72 -0.270319
10.73 -0.271719
10.74 -0.273131
10.75 -0.274593
10.76 -0.276123
10.77 -0.277739
10.78 -0.279448
10.79 -0.281254
10.8 -0.283152
10.81 -0.285139
10.82 -0.287194
10.83 -0.289294
10.84 -0.291418
10.85 -0.293542
10.86 -0.295644
10.87 -0.297701
10.88 -0.299682
10.89 -0.301578
10.9 -0.303373
10.91 -0.305058
10.92 -0.306628
10.93 -0.30808
10.94 -0.309408
10.95 -0.31062
10.96 -0.311727
10.97 -0.312738
10.98 -0.31366
10.99 -0.314501
11 -0.315262
11.01 -0.315937
11.02 -0.316529
11.03 -0.317029
11.04 -0.31742
11.05 -0.317681
11.06 -0.317785
11.07 -0.317684
11.08 -0.317332
11.09 -0.316697
11.1 -0.31573
11.11 -0.314382
11.12 -0.312602
11.13 -0.310341
11.14 -0.307489
11.15 -0.304054
11.16 -0.300004
11.17 -0.29531
11.18 -0.289955
11.19 -0.283926
11.2 -0.277194
11.21 -0.269757
11.22 -0.261688
11.23 -0.253021
11.24 -0.243802
11.25 -0.234086
11.26 -0.223934
11.27 -0.213388
11.28 -0.202558
11.29 -0.19153
11.3 -0.180381
11.31 -0.169186
11.32 -0.15802
11.33 -0.146957
11.34 -0.136072
11.35 -0.125408
11.36 -0.115005
11.37 -0.104893
11.38 -0.0950913
11.39 -0.0856063
11.4 -0.0764596
11.41 -0.0676128
11.42 -0.0590274
11.43 -0.0506648
11.44 -0.0424779
11.45 -0.0344134
11.46 -0.0264124
11.47 -0.0184047
11.48 -0.0103218
11.49 -0.00210054
11.5 0.00631954
11.51 0.0149951
11.52 0.0239773
11.53 0.033341
11.54 0.0431133
11.55 0.0533062
11.56 0.0639366
11.57 0.0750121
11.58 0.0865312
11.59 0.0984888
11.6 0.1109
11.61 0.123692
11.62 0.13683
11.63 0.150272
11.64 0.163974
11.65 0.177887
11.66 0.191967
11.67 0.206153
11.68 0.220386
11.69 0.234614
11.7 0.248789
11.71 0.262863
11.72 0.276793
11.73 0.290512
11.74 0.303999
11.75 0.31722
11.76 0.330142
11.77 0.342734
11.78 0.354967
11.79 0.366789
11.8 0.378162
11.81 0.389083
11.82 0.399518
11.83 0.409436
11.84 0.4188
11.85 0.42757
11.86 0.435633
11.87 0.443002
11.88 0.449634
11.89 0.455478
11.9 0.460484
11.91 0.464597
11.92 0.467722
11.93 0.469771
11.94 0.470763
11.95 0.470654
11.96 0.469405
11.97 0.466979
11.98 0.463352
11.99 0.458386
12 0.452166
12.01 0.444721
12.02 0.436066
12.03 0.426228
12.04 0.415245
12.05 0.403132
12.06 0.389907
12.07 0.375735
12.08 0.3607
12.09 0.344893
12.1 0.328414
12.11 0.311367
12.12 0.293834
12.13 0.275966
12.14 0.257892
12.15 0.239726
12.16 0.22158
12.17 0.203561
12.18 0.185782
12.19 0.168375
12.2 0.151406
12.21 0.134956
12.22 0.119096
12.23 0.103891
