# xPDFsuite Configuration #
[PDF]
wavelength = 0.1
dataformat = QA
inputfile = BiMsol6_insitu_700 C-00460.xy
backgroundfile = Quartz2mm-dist500-00000.xy
mode = xray
bgscale = 0.0042
composition = Bi2Fe4O9
outputtype = gr
qmaxinst = 24.998449118
qmin = 0.1
qmax = 21.4986662415
rmax = 80.0
rmin = 0.0
rstep = 0.01
rpoly = 0.9

[Misc]
inputdir = C:/Data/Seafile/CPH/Beamtime/Desy Oct 20/In situ data/Processed/BiMsol6/PDF
savedir = C:/Data/Seafile/CPH/Beamtime/Desy Oct 20/In situ data/PDF/BiMsol6
backgroundfilefull = C:/Data/Seafile/CPH/Beamtime/Desy Oct 20/In situ data/Processed/Standard_Empty_Cap/Quartz2mm-dist500-00000.xy

#### start data
#S 1
#L r($\AA$)  G($\AA^{-2}$)
0 0
0.01 0.00599316
0.02 0.011645
0.03 0.0166633
0.04 0.0207862
0.05 0.0237939
0.06 0.025519
0.07 0.0257787
0.08 0.0245203
0.09 0.0218799
0.1 0.0179695
0.11 0.0129626
0.12 0.00708658
0.13 0.000612262
0.14 -0.00615513
0.15 -0.0128337
0.16 -0.019101
0.17 -0.0246547
0.18 -0.0292243
0.19 -0.0325845
0.2 -0.0345042
0.21 -0.034827
0.22 -0.0336491
0.23 -0.0310367
0.24 -0.0271305
0.25 -0.0221407
0.26 -0.0163396
0.27 -0.0100388
0.28 -0.0036802
0.29 0.00234232
0.3 0.0076464
0.31 0.0118693
0.32 0.0146856
0.33 0.0157663
0.34 0.0147904
0.35 0.0118142
0.36 0.00684062
0.37 -2.67918e-05
0.38 -0.00858272
0.39 -0.0185228
0.4 -0.0294919
0.41 -0.040889
0.42 -0.0521242
0.43 -0.0625968
0.44 -0.0716854
0.45 -0.0787711
0.46 -0.0831984
0.47 -0.0841213
0.48 -0.0813596
0.49 -0.0745716
0.5 -0.0635341
0.51 -0.0481568
0.52 -0.0284923
0.53 -0.00447055
0.54 0.0233699
0.55 0.0543186
0.56 0.0877161
0.57 0.12279
0.58 0.158677
0.59 0.194435
0.6 0.228861
0.61 0.261008
0.62 0.289923
0.63 0.314711
0.64 0.334564
0.65 0.348788
0.66 0.356415
0.67 0.357045
0.68 0.350843
0.69 0.337804
0.7 0.318106
0.71 0.292105
0.72 0.260325
0.73 0.222953
0.74 0.181471
0.75 0.136838
0.76 0.0900722
0.77 0.0422344
0.78 -0.00560283
0.79 -0.0522809
0.8 -0.0966273
0.81 -0.137831
0.82 -0.175115
0.83 -0.207833
0.84 -0.235492
0.85 -0.257761
0.86 -0.273903
0.87 -0.284452
0.88 -0.289697
0.89 -0.289998
0.9 -0.285847
0.91 -0.27785
0.92 -0.266609
0.93 -0.252901
0.94 -0.237761
0.95 -0.221987
0.96 -0.206349
0.97 -0.191568
0.98 -0.178293
0.99 -0.167311
1 -0.158963
1.01 -0.15349
1.02 -0.151064
1.03 -0.151729
1.04 -0.15541
1.05 -0.16199
1.06 -0.171283
1.07 -0.182647
1.08 -0.195629
1.09 -0.209734
1.1 -0.224449
1.11 -0.23926
1.12 -0.253604
1.13 -0.266998
1.14 -0.27908
1.15 -0.289543
1.16 -0.298161
1.17 -0.304795
1.18 -0.309358
1.19 -0.311734
1.2 -0.312263
1.21 -0.311147
1.22 -0.308649
1.23 -0.305071
1.24 -0.300743
1.25 -0.296005
1.26 -0.291249
1.27 -0.286803
1.28 -0.282938
1.29 -0.279881
1.3 -0.277797
1.31 -0.276796
1.32 -0.27703
1.33 -0.278329
1.34 -0.280582
1.35 -0.283624
1.36 -0.287244
1.37 -0.291193
1.38 -0.295189
1.39 -0.298907
1.4 -0.302076
1.41 -0.304446
1.42 -0.305803
1.43 -0.305976
1.44 -0.30485
1.45 -0.302215
1.46 -0.298238
1.47 -0.293015
1.48 -0.286697
1.49 -0.279489
1.5 -0.271645
1.51 -0.263453
1.52 -0.25528
1.53 -0.247471
1.54 -0.240349
1.55 -0.234214
1.56 -0.229333
1.57 -0.225927
1.58 -0.224336
1.59 -0.224517
1.6 -0.226454
1.61 -0.230082
1.62 -0.235262
1.63 -0.241789
1.64 -0.249418
1.65 -0.257809
1.66 -0.266502
1.67 -0.275098
1.68 -0.283187
1.69 -0.290362
1.7 -0.296237
1.71 -0.300283
1.72 -0.302274
1.73 -0.302029
1.74 -0.299392
1.75 -0.294285
1.76 -0.286711
1.77 -0.276697
1.78 -0.26429
1.79 -0.24996
1.8 -0.234021
1.81 -0.216839
1.82 -0.198817
1.83 -0.18038
1.84 -0.161998
1.85 -0.14415
1.86 -0.127227
1.87 -0.111584
1.88 -0.0975224
1.89 -0.0852815
1.9 -0.0750623
1.91 -0.067145
1.92 -0.0613204
1.93 -0.057511
1.94 -0.0555699
1.95 -0.0552872
1.96 -0.0564003
1.97 -0.0586549
1.98 -0.0616468
1.99 -0.064976
2 -0.0682986
2.01 -0.0712893
2.02 -0.0736545
2.03 -0.0751403
2.04 -0.0754171
2.05 -0.0744743
2.06 -0.072265
2.07 -0.068813
2.08 -0.0642117
2.09 -0.0586207
2.1 -0.0522326
2.11 -0.0453664
2.12 -0.0383886
2.13 -0.0316465
2.14 -0.0254996
2.15 -0.0203051
2.16 -0.0164046
2.17 -0.0143167
2.18 -0.0141657
2.19 -0.0161417
2.2 -0.0203842
2.21 -0.0269638
2.22 -0.0358789
2.23 -0.0471511
2.24 -0.0606583
2.25 -0.0760105
2.26 -0.0929213
2.27 -0.111057
2.28 -0.130046
2.29 -0.149494
2.3 -0.168959
2.31 -0.18799
2.32 -0.206206
2.33 -0.223257
2.34 -0.238834
2.35 -0.252681
2.36 -0.264531
2.37 -0.274142
2.38 -0.281629
2.39 -0.287015
2.4 -0.290386
2.41 -0.291889
2.42 -0.291725
2.43 -0.290042
2.44 -0.287245
2.45 -0.283688
2.46 -0.279693
2.47 -0.275584
2.48 -0.271669
2.49 -0.268256
2.5 -0.265682
2.51 -0.264101
2.52 -0.263672
2.53 -0.264501
2.54 -0.266645
2.55 -0.270106
2.56 -0.274923
2.57 -0.280937
2.58 -0.287947
2.59 -0.295774
2.6 -0.30421
2.61 -0.313031
2.62 -0.322003
2.63 -0.330857
2.64 -0.339359
2.65 -0.347304
2.66 -0.354512
2.67 -0.360829
2.68 -0.366133
2.69 -0.370263
2.7 -0.37318
2.71 -0.374935
2.72 -0.375554
2.73 -0.37509
2.74 -0.373625
2.75 -0.371257
2.76 -0.368025
2.77 -0.364159
2.78 -0.359786
2.79 -0.355034
2.8 -0.350019
2.81 -0.344849
2.82 -0.339618
2.83 -0.334407
2.84 -0.329273
2.85 -0.324247
2.86 -0.319343
2.87 -0.314557
2.88 -0.309871
2.89 -0.305258
2.9 -0.300664
2.91 -0.296043
2.92 -0.291343
2.93 -0.286515
2.94 -0.281512
2.95 -0.276281
2.96 -0.270775
2.97 -0.264985
2.98 -0.25889
2.99 -0.25248
3 -0.245748
3.01 -0.23869
3.02 -0.231275
3.03 -0.223525
3.04 -0.215442
3.05 -0.207013
3.06 -0.198222
3.07 -0.189038
3.08 -0.17941
3.09 -0.169253
3.1 -0.158542
3.11 -0.147207
3.12 -0.135169
3.13 -0.122346
3.14 -0.108652
3.15 -0.0939198
3.16 -0.0781157
3.17 -0.06121
3.18 -0.0431582
3.19 -0.0239357
3.2 -0.00354131
3.21 0.018022
3.22 0.0407711
3.23 0.0645033
3.24 0.089095
3.25 0.114393
3.26 0.140216
3.27 0.166358
3.28 0.19258
3.29 0.218602
3.3 0.244164
3.31 0.269007
3.32 0.292877
3.33 0.315528
3.34 0.336714
3.35 0.356042
3.36 0.373502
3.37 0.388955
3.38 0.402297
3.39 0.413466
3.4 0.422438
3.41 0.429096
3.42 0.433529
3.43 0.435958
3.44 0.436516
3.45 0.435365
3.46 0.43269
3.47 0.428692
3.48 0.42348
3.49 0.417417
3.5 0.410719
3.51 0.403589
3.52 0.396218
3.53 0.388777
3.54 0.381427
3.55 0.37431
3.56 0.367509
3.57 0.361089
3.58 0.355087
3.59 0.349516
3.6 0.344365
3.61 0.339644
3.62 0.335265
3.63 0.331169
3.64 0.327293
3.65 0.323577
3.66 0.319963
3.67 0.316401
3.68 0.312851
3.69 0.309288
3.7 0.305711
3.71 0.302133
3.72 0.298587
3.73 0.295124
3.74 0.291831
3.75 0.288788
3.76 0.286086
3.77 0.283825
3.78 0.282107
3.79 0.281035
3.8 0.28073
3.81 0.281341
3.82 0.282874
3.83 0.285383
3.84 0.288908
3.85 0.293466
3.86 0.299052
3.87 0.305718
3.88 0.313357
3.89 0.321861
3.9 0.331135
3.91 0.341069
3.92 0.351539
3.93 0.362415
3.94 0.373554
3.95 0.384772
3.96 0.395922
3.97 0.406859
3.98 0.417444
3.99 0.427548
4 0.436999
4.01 0.445692
4.02 0.453567
4.03 0.460546
4.04 0.466567
4.05 0.471584
4.06 0.475552
4.07 0.478339
4.08 0.480051
4.09 0.480685
4.1 0.48025
4.11 0.478756
4.12 0.476221
4.13 0.472604
4.14 0.467931
4.15 0.462285
4.16 0.455687
4.17 0.448159
4.18 0.439723
4.19 0.430401
4.2 0.42012
4.21 0.409001
4.22 0.39707
4.23 0.384354
4.24 0.370883
4.25 0.356689
4.26 0.341775
4.27 0.326174
4.28 0.309976
4.29 0.293228
4.3 0.275979
4.31 0.258279
4.32 0.240183
4.33 0.221713
4.34 0.202956
4.35 0.18397
4.36 0.164801
4.37 0.145493
4.38 0.126087
4.39 0.106616
4.4 0.0871131
4.41 0.0676056
4.42 0.0481126
4.43 0.0286486
4.44 0.00922449
4.45 -0.0101513
4.46 -0.0294662
4.47 -0.0487162
4.48 -0.0678944
4.49 -0.0869898
4.5 -0.105987
4.51 -0.124867
4.52 -0.1436
4.53 -0.162135
4.54 -0.180448
4.55 -0.19849
4.56 -0.216208
4.57 -0.233544
4.58 -0.250435
4.59 -0.266769
4.6 -0.282492
4.61 -0.297558
4.62 -0.311903
4.63 -0.32547
4.64 -0.338207
4.65 -0.350057
4.66 -0.360907
4.67 -0.370827
4.68 -0.379812
4.69 -0.387869
4.7 -0.395018
4.71 -0.401291
4.72 -0.406679
4.73 -0.411264
4.74 -0.415154
4.75 -0.418421
4.76 -0.421146
4.77 -0.423409
4.78 -0.425292
4.79 -0.426853
4.8 -0.428209
4.81 -0.42943
4.82 -0.430579
4.83 -0.431709
4.84 -0.432865
4.85 -0.434083
4.86 -0.43539
4.87 -0.43679
4.88 -0.438283
4.89 -0.439861
4.9 -0.441505
4.91 -0.443193
4.92 -0.444894
4.93 -0.446571
4.94 -0.448189
4.95 -0.449714
4.96 -0.451113
4.97 -0.452353
4.98 -0.453395
4.99 -0.454203
5 -0.45477
5.01 -0.455075
5.02 -0.455102
5.03 -0.454836
5.04 -0.454262
5.05 -0.453332
5.06 -0.452056
5.07 -0.450422
5.08 -0.44841
5.09 -0.445994
5.1 -0.443148
5.11 -0.43982
5.12 -0.435945
5.13 -0.43152
5.14 -0.426501
5.15 -0.420842
5.16 -0.414499
5.17 -0.407427
5.18 -0.399514
5.19 -0.390767
5.2 -0.381182
5.21 -0.370742
5.22 -0.35944
5.23 -0.347283
5.24 -0.33427
5.25 -0.320384
5.26 -0.305754
5.27 -0.290442
5.28 -0.274525
5.29 -0.25809
5.3 -0.241235
5.31 -0.224047
5.32 -0.206663
5.33 -0.189207
5.34 -0.171789
5.35 -0.154516
5.36 -0.137487
5.37 -0.1208
5.38 -0.10458
5.39 -0.0888551
5.4 -0.0736736
5.41 -0.0590701
5.42 -0.0450639
5.43 -0.0316599
5.44 -0.0188876
5.45 -0.00671237
5.46 0.00492832
5.47 0.016074
5.48 0.0267684
5.49 0.0370565
5.5 0.0469813
5.51 0.0565499
5.52 0.0658336
5.53 0.0748534
5.54 0.0836196
5.55 0.09213
5.56 0.10037
5.57 0.108294
5.58 0.115851
5.59 0.123007
5.6 0.129702
5.61 0.135867
5.62 0.141431
5.63 0.146323
5.64 0.150387
5.65 0.153631
5.66 0.15601
5.67 0.157487
5.68 0.158039
5.69 0.157662
5.7 0.156327
5.71 0.154049
5.72 0.150951
5.73 0.147104
5.74 0.142599
5.75 0.137539
5.76 0.132039
5.77 0.126202
5.78 0.120196
5.79 0.114155
5.8 0.108201
5.81 0.10245
5.82 0.097007
5.83 0.0919778
5.84 0.0874674
5.85 0.0834903
5.86 0.0800754
5.87 0.0772314
5.88 0.0749466
5.89 0.0731906
5.9 0.071952
5.91 0.0711324
5.92 0.0706411
5.93 0.0703956
5.94 0.07031
5.95 0.0702995
5.96 0.0702821
5.97 0.0701724
5.98 0.069916
5.99 0.0694719
6 0.0688163
6.01 0.0679441
6.02 0.0668693
6.03 0.0656161
6.04 0.064251
6.05 0.0628521
6.06 0.0615035
6.07 0.0602988
6.08 0.0593376
6.09 0.0587261
6.1 0.0586174
6.11 0.0590626
6.12 0.06014
6.13 0.0619122
6.14 0.0644234
6.15 0.0676965
6.16 0.0717785
6.17 0.0766294
6.18 0.0821533
6.19 0.0882718
6.2 0.0948844
6.21 0.101872
6.22 0.109098
6.23 0.116408
6.24 0.12362
6.25 0.130574
6.26 0.137113
6.27 0.143087
6.28 0.148358
6.29 0.152754
6.3 0.156148
6.31 0.15852
6.32 0.15982
6.33 0.160025
6.34 0.159135
6.35 0.157181
6.36 0.154116
6.37 0.150121
6.38 0.14531
6.39 0.139797
6.4 0.133708
6.41 0.127177
6.42 0.120334
6.43 0.113327
6.44 0.106307
6.45 0.0993904
6.46 0.0926822
6.47 0.0862711
6.48 0.0802283
6.49 0.0746491
6.5 0.069536
6.51 0.0648878
6.52 0.0606953
6.53 0.0569328
6.54 0.053561
6.55 0.050538
6.56 0.0478119
6.57 0.0452899
6.58 0.042907
6.59 0.0406005
6.6 0.0383132
6.61 0.0359958
6.62 0.0336011
6.63 0.0311037
6.64 0.0284956
6.65 0.0257794
6.66 0.0229711
6.67 0.0200991
6.68 0.0172035
6.69 0.0143427
6.7 0.011576
6.71 0.00896537
6.72 0.00657427
6.73 0.00446503
6.74 0.00269632
6.75 0.00135267
6.76 0.000472213
6.77 6.86405e-05
6.78 0.000161975
6.79 0.000760003
6.8 0.00185806
6.81 0.00344311
6.82 0.00552772
6.83 0.00801874
6.84 0.010867
6.85 0.0140171
6.86 0.0174097
6.87 0.020984
6.88 0.0246833
6.89 0.0284415
6.9 0.0322016
6.91 0.0359203
6.92 0.0395629
6.93 0.0431046
6.94 0.0465308
6.95 0.0498245
6.96 0.053008
6.97 0.0560999
6.98 0.0591265
6.99 0.0621208
7 0.0651207
7.01 0.0681714
7.02 0.071322
7.03 0.0746085
7.04 0.0780668
7.05 0.0817271
7.06 0.0856124
7.07 0.0897377
7.08 0.0941332
7.09 0.0987706
7.1 0.10363
7.11 0.108684
7.12 0.113899
7.13 0.119231
7.14 0.124633
7.15 0.130043
7.16 0.1354
7.17 0.140646
7.18 0.145725
7.19 0.150584
7.2 0.155175
7.21 0.159422
7.22 0.163308
7.23 0.166814
7.24 0.169923
7.25 0.172625
7.26 0.174917
7.27 0.176791
7.28 0.178236
7.29 0.179301
7.3 0.180005
7.31 0.180363
7.32 0.180391
7.33 0.180103
7.34 0.179481
7.35 0.178541
7.36 0.177287
7.37 0.175703
7.38 0.173765
7.39 0.171442
7.4 0.168684
7.41 0.165397
7.42 0.161572
7.43 0.157147
7.44 0.152062
7.45 0.146257
7.46 0.139674
7.47 0.132196
7.48 0.123793
7.49 0.114471
7.5 0.10421
7.51 0.0930014
7.52 0.0808564
7.53 0.0677956
7.54 0.0537793
7.55 0.0389746
7.56 0.0234658
7.57 0.00735356
7.58 -0.0092462
7.59 -0.0262041
7.6 -0.0433832
7.61 -0.0606093
7.62 -0.0777149
7.63 -0.0945416
7.64 -0.110932
7.65 -0.126734
7.66 -0.1418
7.67 -0.155886
7.68 -0.168951
7.69 -0.180899
7.7 -0.191645
7.71 -0.201124
7.72 -0.209292
7.73 -0.216062
7.74 -0.221405
7.75 -0.225438
7.76 -0.228205
7.77 -0.229768
7.78 -0.230203
7.79 -0.229604
7.8 -0.22799
7.81 -0.225567
7.82 -0.222469
7.83 -0.218818
7.84 -0.214735
7.85 -0.210339
7.86 -0.205739
7.87 -0.20105
7.88 -0.196378
7.89 -0.191803
7.9 -0.187391
7.91 -0.183196
7.92 -0.179255
7.93 -0.175619
7.94 -0.172278
7.95 -0.16922
7.96 -0.166426
7.97 -0.163869
7.98 -0.161513
7.99 -0.159319
8 -0.157242
8.01 -0.155221
8.02 -0.15321
8.03 -0.151164
8.04 -0.149045
8.05 -0.14682
8.06 -0.144453
8.07 -0.141933
8.08 -0.139263
8.09 -0.13645
8.1 -0.133511
8.11 -0.130472
8.12 -0.127369
8.13 -0.124249
8.14 -0.121168
8.15 -0.118179
8.16 -0.115337
8.17 -0.112697
8.18 -0.11031
8.19 -0.108247
8.2 -0.106545
8.21 -0.105217
8.22 -0.10428
8.23 -0.103737
8.24 -0.103578
8.25 -0.10378
8.26 -0.104336
8.27 -0.105147
8.28 -0.106146
8.29 -0.107252
8.3 -0.108376
8.31 -0.109418
8.32 -0.110259
8.33 -0.110775
8.34 -0.110872
8.35 -0.11045
8.36 -0.109412
8.37 -0.107672
8.38 -0.105158
8.39 -0.101713
8.4 -0.0973771
8.41 -0.0921353
8.42 -0.0859849
8.43 -0.0789422
8.44 -0.071042
8.45 -0.0623036
8.46 -0.0527895
8.47 -0.0426444
8.48 -0.0319678
8.49 -0.0208685
8.5 -0.00946134
8.51 0.00213553
8.52 0.0137997
8.53 0.0253989
8.54 0.0368259
8.55 0.0479844
8.56 0.0587903
8.57 0.0691733
8.58 0.0790615
8.59 0.088389
8.6 0.0971796
8.61 0.105434
8.62 0.113167
8.63 0.120408
8.64 0.127201
8.65 0.133566
8.66 0.139593
8.67 0.145358
8.68 0.150923
8.69 0.156351
8.7 0.161694
8.71 0.167001
8.72 0.172309
8.73 0.177639
8.74 0.182996
8.75 0.188368
8.76 0.193727
8.77 0.199031
8.78 0.204208
8.79 0.209179
8.8 0.213866
8.81 0.218175
8.82 0.222011
8.83 0.225272
8.84 0.22785
8.85 0.22957
8.86 0.230417
8.87 0.230317
8.88 0.229208
8.89 0.227044
8.9 0.223793
8.91 0.219372
8.92 0.213802
8.93 0.207166
8.94 0.199507
8.95 0.190881
8.96 0.18136
8.97 0.171022
8.98 0.159884
8.99 0.148133
9 0.135865
9.01 0.123174
9.02 0.110153
9.03 0.0968843
9.04 0.0834399
9.05 0.0698932
9.06 0.0563057
9.07 0.0427172
9.08 0.0291554
9.09 0.0156367
9.1 0.0021671
9.11 -0.0112523
9.12 -0.0246379
9.13 -0.0380058
9.14 -0.0513732
9.15 -0.0647567
9.16 -0.0781695
9.17 -0.0916212
9.18 -0.105112
9.19 -0.118626
9.2 -0.13214
9.21 -0.14562
9.22 -0.159016
9.23 -0.17227
9.24 -0.185281
9.25 -0.197973
9.26 -0.21026
9.27 -0.222043
9.28 -0.233222
9.29 -0.243696
9.3 -0.253337
9.31 -0.26199
9.32 -0.269641
9.33 -0.276217
9.34 -0.281657
9.35 -0.285914
9.36 -0.288957
9.37 -0.290669
9.38 -0.291117
9.39 -0.290363
9.4 -0.288443
9.41 -0.285407
9.42 -0.281316
9.43 -0.27622
9.44 -0.270138
9.45 -0.263242
9.46 -0.255615
9.47 -0.247336
9.48 -0.238477
9.49 -0.229107
9.5 -0.219256
9.51 -0.208991
9.52 -0.198367
9.53 -0.187409
9.54 -0.17613
9.55 -0.164535
9.56 -0.152614
9.57 -0.140322
9.58 -0.127673
9.59 -0.114648
9.6 -0.101225
9.61 -0.0873859
9.62 -0.0731158
9.63 -0.0583804
9.64 -0.0431859
9.65 -0.0275705
9.66 -0.0115596
9.67 0.00480913
9.68 0.0214865
9.69 0.0384118
9.7 0.0555249
9.71 0.0727163
9.72 0.0898964
9.73 0.106972
9.74 0.123846
9.75 0.140424
9.76 0.156589
9.77 0.172235
9.78 0.187311
9.79 0.201751
9.8 0.2155
9.81 0.228516
9.82 0.240771
9.83 0.25217
9.84 0.262785
9.85 0.272641
9.86 0.281763
9.87 0.290188
9.88 0.297957
9.89 0.305094
9.9 0.311635
9.91 0.317674
9.92 0.323256
9.93 0.328419
9.94 0.333196
9.95 0.33761
9.96 0.341638
9.97 0.345305
9.98 0.348607
9.99 0.35152
10 0.35401
10.01 0.356036
10.02 0.357535
10.03 0.358414
10.04 0.358665
10.05 0.358238
10.06 0.357084
10.07 0.355164
10.08 0.352448
10.09 0.348847
10.1 0.344398
10.11 0.33914
10.12 0.333103
10.13 0.326331
10.14 0.318883
10.15 0.310825
10.16 0.302214
10.17 0.293209
10.18 0.28392
10.19 0.274459
10.2 0.264943
10.21 0.255487
10.22 0.246224
10.23 0.237266
10.24 0.228698
10.25 0.220598
10.26 0.213031
10.27 0.206045
10.28 0.199677
10.29 0.194003
10.3 0.188946
10.31 0.18448
10.32 0.180563
10.33 0.177139
10.34 0.174141
10.35 0.171507
10.36 0.169136
10.37 0.166919
10.38 0.164765
10.39 0.162585
10.4 0.160291
10.41 0.157804
10.42 0.155015
10.43 0.151883
10.44 0.148362
10.45 0.14441
10.46 0.140001
10.47 0.135117
10.48 0.129726
10.49 0.123824
10.5 0.117454
10.51 0.110633
10.52 0.103385
10.53 0.0957344
10.54 0.0877063
10.55 0.0792943
10.56 0.0705554
10.57 0.0615165
10.58 0.0521955
10.59 0.0426065
10.6 0.0327599
10.61 0.0226528
10.62 0.0122781
10.63 0.00165557
10.64 -0.0092163
10.65 -0.0203395
10.66 -0.0317154
10.67 -0.0433436
10.68 -0.0552427
10.69 -0.0673878
10.7 -0.0797593
10.71 -0.0923387
10.72 -0.105102
10.73 -0.118019
10.74 -0.131057
10.75 -0.144174
10.76 -0.157316
10.77 -0.170435
10.78 -0.183481
10.79 -0.196405
10.8 -0.209158
10.81 -0.221674
10.82 -0.233917
10.83 -0.245861
10.84 -0.257477
10.85 -0.268746
10.86 -0.279655
10.87 -0.290195
10.88 -0.30034
10.89 -0.310142
10.9 -0.319621
10.91 -0.328804
10.92 -0.33772
10.93 -0.346405
10.94 -0.35488
10.95 -0.363189
10.96 -0.371371
10.97 -0.379453
10.98 -0.387456
10.99 -0.395392
11 -0.403265
11.01 -0.411062
11.02 -0.418774
11.03 -0.426373
11.04 -0.433825
11.05 -0.441083
11.06 -0.448097
11.07 -0.454786
11.08 -0.461076
11.09 -0.466916
11.1 -0.472239
11.11 -0.476978
11.12 -0.481066
11.13 -0.484444
11.14 -0.486968
11.15 -0.488666
11.16 -0.489509
11.17 -0.489469
11.18 -0.488531
11.19 -0.486689
11.2 -0.483906
11.21 -0.480177
11.22 -0.475591
11.23 -0.47018
11.24 -0.463983
11.25 -0.457044
11.26 -0.44941
11.27 -0.441069
11.28 -0.43213
11.29 -0.422652
11.3 -0.41268
11.31 -0.402257
11.32 -0.391419
11.33 -0.380188
11.34 -0.368577
11.35 -0.356637
11.36 -0.344384
11.37 -0.331829
11.38 -0.318978
11.39 -0.305833
11.4 -0.29237
11.41 -0.278605
11.42 -0.264542
11.43 -0.250182
11.44 -0.235523
11.45 -0.220568
11.46 -0.205312
11.47 -0.189745
11.48 -0.173905
11.49 -0.157807
11.5 -0.141469
11.51 -0.124912
11.52 -0.10816
11.53 -0.0912278
11.54 -0.074154
11.55 -0.0569745
11.56 -0.0397189
11.57 -0.0224171
11.58 -0.005098
11.59 0.0122095
11.6 0.0294719
11.61 0.0466657
11.62 0.0637669
11.63 0.080753
11.64 0.0976024
11.65 0.114294
11.66 0.130794
11.67 0.14708
11.68 0.163141
11.69 0.178951
11.7 0.194486
11.71 0.209718
11.72 0.224615
11.73 0.239101
11.74 0.253176
11.75 0.266805
11.76 0.279945
11.77 0.292555
11.78 0.304594
11.79 0.315982
11.8 0.326668
11.81 0.336651
11.82 0.345897
11.83 0.354372
11.84 0.362052
11.85 0.368913
11.86 0.374851
11.87 0.379939
11.88 0.384182
11.89 0.387589
11.9 0.390168
11.91 0.391939
11.92 0.392887
11.93 0.39302
11.94 0.392423
11.95 0.391123
11.96 0.389149
11.97 0.386525
11.98 0.383273
11.99 0.379354
12 0.374827
12.01 0.369707
12.02 0.363992
12.03 0.357672
12.04 0.35073
12.05 0.343119
12.06 0.334773
12.07 0.32571
12.08 0.315892
12.09 0.305283
12.1 0.293843
12.11 0.281537
12.12 0.268257
12.13 0.254026
12.14 0.238861
12.15 0.222761
12.16 0.205738
12.17 0.187817
12.18 0.169024
12.19 0.149363
12.2 0.128992
12.21 0.108002
12.22 0.086497
12.23 0.0645966
12.24 0.0424301
