# xPDFsuite Configuration #
[PDF]
wavelength = 0.1
dataformat = QA
inputfile = BiMsol6_insitu_700 C-00576.xy
backgroundfile = Quartz2mm-dist500-00000.xy
mode = xray
bgscale = 0.0042
composition = Bi2Fe4O9
outputtype = gr
qmaxinst = 24.998449118
qmin = 0.1
qmax = 21.4986662415
rmax = 80.0
rmin = 0.0
rstep = 0.01
rpoly = 0.9

[Misc]
inputdir = C:/Data/Seafile/CPH/Beamtime/Desy Oct 20/In situ data/Processed/BiMsol6/PDF
savedir = C:/Data/Seafile/CPH/Beamtime/Desy Oct 20/In situ data/PDF/BiMsol6
backgroundfilefull = C:/Data/Seafile/CPH/Beamtime/Desy Oct 20/In situ data/Processed/Standard_Empty_Cap/Quartz2mm-dist500-00000.xy

#### start data
#S 1
#L r($\AA$)  G($\AA^{-2}$)
0 0
0.01 0.00607692
0.02 0.0118085
0.03 0.0168993
0.04 0.0210841
0.05 0.0241406
0.06 0.0258992
0.07 0.0261746
0.08 0.0249132
0.09 0.0222521
0.1 0.0183042
0.11 0.0132445
0.12 0.00730232
0.13 0.000751002
0.14 -0.00610174
0.15 -0.0128697
0.16 -0.0192269
0.17 -0.0248678
0.18 -0.0295187
0.19 -0.0329512
0.2 -0.0349312
0.21 -0.0352995
0.22 -0.0341518
0.23 -0.0315533
0.24 -0.0276442
0.25 -0.022635
0.26 -0.0167984
0.27 -0.010446
0.28 -0.00402222
0.29 0.00207715
0.3 0.00746791
0.31 0.0117854
0.32 0.0147024
0.33 0.0158881
0.34 0.0150196
0.35 0.0121513
0.36 0.00728462
0.37 0.000521574
0.38 -0.00793395
0.39 -0.0177791
0.4 -0.028661
0.41 -0.0399805
0.42 -0.0511495
0.43 -0.0615698
0.44 -0.0706227
0.45 -0.0776926
0.46 -0.0821284
0.47 -0.0830903
0.48 -0.0804004
0.49 -0.0737212
0.5 -0.0628339
0.51 -0.0476524
0.52 -0.0282331
0.53 -0.00451307
0.54 0.0229681
0.55 0.0535014
0.56 0.0864276
0.57 0.120977
0.58 0.156288
0.59 0.191424
0.6 0.225187
0.61 0.256643
0.62 0.284849
0.63 0.308922
0.64 0.328068
0.65 0.341605
0.66 0.348585
0.67 0.348623
0.68 0.341894
0.69 0.328408
0.7 0.308354
0.71 0.282098
0.72 0.250171
0.73 0.212778
0.74 0.171392
0.75 0.12697
0.76 0.0805253
0.77 0.0331132
0.78 -0.0142038
0.79 -0.0602757
0.8 -0.103946
0.81 -0.144424
0.82 -0.18095
0.83 -0.212897
0.84 -0.23979
0.85 -0.261312
0.86 -0.276749
0.87 -0.286647
0.88 -0.291306
0.89 -0.291092
0.9 -0.286506
0.91 -0.278153
0.92 -0.266637
0.93 -0.252736
0.94 -0.237467
0.95 -0.221619
0.96 -0.20595
0.97 -0.191166
0.98 -0.1779
0.99 -0.166922
1 -0.158554
1.01 -0.153025
1.02 -0.150493
1.03 -0.150991
1.04 -0.154435
1.05 -0.160701
1.06 -0.169594
1.07 -0.180483
1.08 -0.192918
1.09 -0.206412
1.1 -0.220462
1.11 -0.234566
1.12 -0.248176
1.13 -0.260827
1.14 -0.272173
1.15 -0.281923
1.16 -0.289867
1.17 -0.295878
1.18 -0.299882
1.19 -0.301779
1.2 -0.301906
1.21 -0.300471
1.22 -0.297732
1.23 -0.293991
1.24 -0.28957
1.25 -0.284803
1.26 -0.28007
1.27 -0.275683
1.28 -0.2719
1.29 -0.268933
1.3 -0.266937
1.31 -0.266011
1.32 -0.266291
1.33 -0.267604
1.34 -0.269836
1.35 -0.272819
1.36 -0.276342
1.37 -0.280164
1.38 -0.284006
1.39 -0.287554
1.4 -0.290549
1.41 -0.292754
1.42 -0.293964
1.43 -0.294022
1.44 -0.29282
1.45 -0.290165
1.46 -0.286223
1.47 -0.281091
1.48 -0.274916
1.49 -0.2679
1.5 -0.260285
1.51 -0.252348
1.52 -0.244434
1.53 -0.236869
1.54 -0.229953
1.55 -0.223962
1.56 -0.219142
1.57 -0.21569
1.58 -0.213913
1.59 -0.213761
1.6 -0.215208
1.61 -0.21818
1.62 -0.222541
1.63 -0.228087
1.64 -0.234583
1.65 -0.241702
1.66 -0.249024
1.67 -0.256178
1.68 -0.26279
1.69 -0.268491
1.7 -0.272937
1.71 -0.275651
1.72 -0.276447
1.73 -0.275178
1.74 -0.271723
1.75 -0.266031
1.76 -0.258125
1.77 -0.248051
1.78 -0.235878
1.79 -0.222042
1.8 -0.206841
1.81 -0.190613
1.82 -0.173725
1.83 -0.15656
1.84 -0.139539
1.85 -0.123077
1.86 -0.107502
1.87 -0.0931099
1.88 -0.0801452
1.89 -0.0687936
1.9 -0.0592034
1.91 -0.0515842
1.92 -0.0457256
1.93 -0.0415331
1.94 -0.0388545
1.95 -0.0374878
1.96 -0.0371908
1.97 -0.037726
1.98 -0.0387484
1.99 -0.0399312
2 -0.0409984
2.01 -0.0416992
2.02 -0.0418193
2.03 -0.0411872
2.04 -0.0395863
2.05 -0.0370662
2.06 -0.0336505
2.07 -0.0294241
2.08 -0.024531
2.09 -0.0191687
2.1 -0.0135848
2.11 -0.00810776
2.12 -0.00305975
2.13 0.00123855
2.14 0.00446929
2.15 0.00633012
2.16 0.00654637
2.17 0.00465563
2.18 0.000655622
2.19 -0.00555179
2.2 -0.0140146
2.21 -0.0247136
2.22 -0.0375617
2.23 -0.0524863
2.24 -0.0692789
2.25 -0.0875153
2.26 -0.106868
2.27 -0.126978
2.28 -0.147462
2.29 -0.16793
2.3 -0.187917
2.31 -0.207049
2.32 -0.225
2.33 -0.241477
2.34 -0.256239
2.35 -0.269099
2.36 -0.279861
2.37 -0.288365
2.38 -0.294803
2.39 -0.299258
2.4 -0.301869
2.41 -0.302827
2.42 -0.302364
2.43 -0.300671
2.44 -0.298141
2.45 -0.295108
2.46 -0.291872
2.47 -0.288721
2.48 -0.285919
2.49 -0.28372
2.5 -0.282399
2.51 -0.282039
2.52 -0.282736
2.53 -0.284539
2.54 -0.287447
2.55 -0.291415
2.56 -0.29642
2.57 -0.302282
2.58 -0.308801
2.59 -0.315796
2.6 -0.323074
2.61 -0.330434
2.62 -0.337678
2.63 -0.344569
2.64 -0.35096
2.65 -0.356711
2.66 -0.361707
2.67 -0.365865
2.68 -0.369133
2.69 -0.371432
2.7 -0.372788
2.71 -0.373293
2.72 -0.373013
2.73 -0.372033
2.74 -0.370451
2.75 -0.368374
2.76 -0.36588
2.77 -0.363131
2.78 -0.360226
2.79 -0.357253
2.8 -0.354285
2.81 -0.351378
2.82 -0.348578
2.83 -0.345909
2.84 -0.343363
2.85 -0.340925
2.86 -0.338568
2.87 -0.336254
2.88 -0.333939
2.89 -0.331567
2.9 -0.329091
2.91 -0.32647
2.92 -0.323669
2.93 -0.32066
2.94 -0.317426
2.95 -0.313949
2.96 -0.310224
2.97 -0.306281
2.98 -0.302136
2.99 -0.297809
3 -0.293318
3.01 -0.288678
3.02 -0.283882
3.03 -0.278933
3.04 -0.273812
3.05 -0.268478
3.06 -0.262871
3.07 -0.256909
3.08 -0.250475
3.09 -0.243397
3.1 -0.235575
3.11 -0.226854
3.12 -0.217071
3.13 -0.206059
3.14 -0.193652
3.15 -0.179551
3.16 -0.163681
3.17 -0.145978
3.18 -0.126358
3.19 -0.104768
3.2 -0.0811972
3.21 -0.0556347
3.22 -0.0280286
3.23 0.00130234
3.24 0.0321815
3.25 0.06439
3.26 0.0976697
3.27 0.131728
3.28 0.166253
3.29 0.200837
3.3 0.235106
3.31 0.268697
3.32 0.301256
3.33 0.332439
3.34 0.361908
3.35 0.389145
3.36 0.414093
3.37 0.43655
3.38 0.456357
3.39 0.473406
3.4 0.487636
3.41 0.498861
3.42 0.507152
3.43 0.512753
3.44 0.515791
3.45 0.516427
3.46 0.514845
3.47 0.511249
3.48 0.505675
3.49 0.49857
3.5 0.490155
3.51 0.480637
3.52 0.470213
3.53 0.459058
3.54 0.447302
3.55 0.435087
3.56 0.422547
3.57 0.409755
3.58 0.396765
3.59 0.383608
3.6 0.370299
3.61 0.356826
3.62 0.343197
3.63 0.329404
3.64 0.315443
3.65 0.301316
3.66 0.287036
3.67 0.272627
3.68 0.25814
3.69 0.243653
3.7 0.229254
3.71 0.215052
3.72 0.201171
3.73 0.187754
3.74 0.175026
3.75 0.163128
3.76 0.152212
3.77 0.142446
3.78 0.133989
3.79 0.126993
3.8 0.121644
3.81 0.118172
3.82 0.116521
3.83 0.116756
3.84 0.118911
3.85 0.122992
3.86 0.128978
3.87 0.136966
3.88 0.146778
3.89 0.158243
3.9 0.171235
3.91 0.185612
3.92 0.201217
3.93 0.217899
3.94 0.235537
3.95 0.253854
3.96 0.27268
3.97 0.291849
3.98 0.311202
3.99 0.33059
4 0.34986
4.01 0.368872
4.02 0.38752
4.03 0.405708
4.04 0.423345
4.05 0.440353
4.06 0.456655
4.07 0.472103
4.08 0.486715
4.09 0.500437
4.1 0.513214
4.11 0.524994
4.12 0.535722
4.13 0.545275
4.14 0.553592
4.15 0.560683
4.16 0.566493
4.17 0.57097
4.18 0.574065
4.19 0.575733
4.2 0.575768
4.21 0.574299
4.22 0.571311
4.23 0.566799
4.24 0.560767
4.25 0.55323
4.26 0.544146
4.27 0.533536
4.28 0.521555
4.29 0.508266
4.3 0.49374
4.31 0.478057
4.32 0.461298
4.33 0.443454
4.34 0.424705
4.35 0.405146
4.36 0.384853
4.37 0.363896
4.38 0.342338
4.39 0.320214
4.4 0.297555
4.41 0.274439
4.42 0.250896
4.43 0.226947
4.44 0.202613
4.45 0.17791
4.46 0.152825
4.47 0.127403
4.48 0.101681
4.49 0.0756915
4.5 0.0494796
4.51 0.0231001
4.52 -0.00337955
4.53 -0.0298671
4.54 -0.0562571
4.55 -0.0824402
4.56 -0.108296
4.57 -0.133695
4.58 -0.158502
4.59 -0.182509
4.6 -0.205591
4.61 -0.227643
4.62 -0.248542
4.63 -0.268176
4.64 -0.28645
4.65 -0.303263
4.66 -0.318428
4.67 -0.332069
4.68 -0.344187
4.69 -0.354807
4.7 -0.363983
4.71 -0.371791
4.72 -0.37825
4.73 -0.383526
4.74 -0.387815
4.75 -0.391269
4.76 -0.394043
4.77 -0.396296
4.78 -0.398183
4.79 -0.399847
4.8 -0.401461
4.81 -0.403143
4.82 -0.404995
4.83 -0.407093
4.84 -0.409494
4.85 -0.41225
4.86 -0.415365
4.87 -0.418798
4.88 -0.422506
4.89 -0.426428
4.9 -0.430485
4.91 -0.434588
4.92 -0.438621
4.93 -0.442477
4.94 -0.446053
4.95 -0.44925
4.96 -0.451977
4.97 -0.454154
4.98 -0.455682
4.99 -0.45649
5 -0.456588
5.01 -0.455965
5.02 -0.454621
5.03 -0.452574
5.04 -0.449856
5.05 -0.446452
5.06 -0.442472
5.07 -0.437986
5.08 -0.433057
5.09 -0.427746
5.1 -0.42211
5.11 -0.416195
5.12 -0.41004
5.13 -0.403698
5.14 -0.397191
5.15 -0.390532
5.16 -0.383719
5.17 -0.376745
5.18 -0.369574
5.19 -0.362188
5.2 -0.354565
5.21 -0.346674
5.22 -0.338489
5.23 -0.329984
5.24 -0.321137
5.25 -0.311918
5.26 -0.302364
5.27 -0.292498
5.28 -0.282353
5.29 -0.271979
5.3 -0.261436
5.31 -0.2508
5.32 -0.240173
5.33 -0.229655
5.34 -0.219346
5.35 -0.209352
5.36 -0.199776
5.37 -0.190726
5.38 -0.182359
5.39 -0.174698
5.4 -0.167808
5.41 -0.16174
5.42 -0.156525
5.43 -0.152176
5.44 -0.148744
5.45 -0.146184
5.46 -0.144406
5.47 -0.143348
5.48 -0.142932
5.49 -0.143072
5.5 -0.143671
5.51 -0.144655
5.52 -0.14587
5.53 -0.147212
5.54 -0.148583
5.55 -0.149891
5.56 -0.151054
5.57 -0.151986
5.58 -0.152616
5.59 -0.152917
5.6 -0.152856
5.61 -0.152416
5.62 -0.151586
5.63 -0.150368
5.64 -0.14873
5.65 -0.146724
5.66 -0.14437
5.67 -0.141681
5.68 -0.138673
5.69 -0.135353
5.7 -0.13171
5.71 -0.12773
5.72 -0.123421
5.73 -0.118761
5.74 -0.11372
5.75 -0.108265
5.76 -0.102355
5.77 -0.0958956
5.78 -0.0888769
5.79 -0.0812697
5.8 -0.0730396
5.81 -0.0641606
5.82 -0.0546167
5.83 -0.0443831
5.84 -0.0334409
5.85 -0.0218773
5.86 -0.00973956
5.87 0.00290885
5.88 0.0159891
5.89 0.0294084
5.9 0.0430718
5.91 0.0568363
5.92 0.0705731
5.93 0.0841579
5.94 0.0974681
5.95 0.110386
5.96 0.122789
5.97 0.134527
5.98 0.145571
5.99 0.155863
6 0.165364
6.01 0.174057
6.02 0.181944
6.03 0.188996
6.04 0.19529
6.05 0.200924
6.06 0.20598
6.07 0.210546
6.08 0.214721
6.09 0.218601
6.1 0.222279
6.11 0.225872
6.12 0.229459
6.13 0.233105
6.14 0.236857
6.15 0.240739
6.16 0.244765
6.17 0.248907
6.18 0.253112
6.19 0.257309
6.2 0.261409
6.21 0.265306
6.22 0.268881
6.23 0.271934
6.24 0.27437
6.25 0.276052
6.26 0.276851
6.27 0.276644
6.28 0.275324
6.29 0.272735
6.3 0.268787
6.31 0.263521
6.32 0.256926
6.33 0.249018
6.34 0.239838
6.35 0.229455
6.36 0.217855
6.37 0.205271
6.38 0.191853
6.39 0.177746
6.4 0.163109
6.41 0.148101
6.42 0.13288
6.43 0.11762
6.44 0.102474
6.45 0.0875683
6.46 0.0730122
6.47 0.0588929
6.48 0.0452764
6.49 0.0322586
6.5 0.0198174
6.51 0.00793148
6.52 -0.00342904
6.53 -0.014312
6.54 -0.0247803
6.55 -0.0349012
6.56 -0.0447552
6.57 -0.0544576
6.58 -0.0640947
6.59 -0.0737475
6.6 -0.0834885
6.61 -0.0933784
6.62 -0.103482
6.63 -0.113821
6.64 -0.124393
6.65 -0.135186
6.66 -0.146168
6.67 -0.157289
6.68 -0.168482
6.69 -0.179653
6.7 -0.190699
6.71 -0.201514
6.72 -0.211987
6.73 -0.222004
6.74 -0.231452
6.75 -0.240165
6.76 -0.248046
6.77 -0.255034
6.78 -0.261052
6.79 -0.266032
6.8 -0.269923
6.81 -0.272678
6.82 -0.274156
6.83 -0.274476
6.84 -0.273642
6.85 -0.271672
6.86 -0.268591
6.87 -0.264432
6.88 -0.259171
6.89 -0.252858
6.9 -0.245592
6.91 -0.237409
6.92 -0.228343
6.93 -0.218423
6.94 -0.207674
6.95 -0.196018
6.96 -0.183559
6.97 -0.170301
6.98 -0.156241
6.99 -0.141375
7 -0.125693
7.01 -0.109144
7.02 -0.0917054
7.03 -0.073427
7.04 -0.0543093
7.05 -0.0343594
7.06 -0.0135926
7.07 0.00796642
7.08 0.0303554
7.09 0.053453
7.1 0.0771873
7.11 0.101486
7.12 0.126264
7.13 0.151428
7.14 0.176881
7.15 0.202503
7.16 0.228154
7.17 0.253711
7.18 0.27905
7.19 0.304046
7.2 0.328575
7.21 0.352452
7.22 0.375588
7.23 0.397889
7.24 0.419255
7.25 0.439592
7.26 0.458817
7.27 0.476817
7.28 0.493442
7.29 0.508742
7.3 0.52267
7.31 0.535183
7.32 0.546249
7.33 0.555837
7.34 0.563802
7.35 0.57019
7.36 0.575039
7.37 0.578339
7.38 0.580079
7.39 0.580253
7.4 0.578826
7.41 0.575667
7.42 0.570931
7.43 0.564622
7.44 0.556747
7.45 0.547315
7.46 0.536344
7.47 0.523752
7.48 0.509606
7.49 0.494017
7.5 0.477033
7.51 0.458708
7.52 0.43911
7.53 0.418308
7.54 0.396282
7.55 0.373262
7.56 0.349356
7.57 0.324682
7.58 0.299365
7.59 0.273538
7.6 0.247327
7.61 0.220898
7.62 0.194419
7.63 0.16804
7.64 0.14191
7.65 0.116174
7.66 0.0909761
7.67 0.0665434
7.68 0.0429454
7.69 0.0202976
7.7 -0.00129148
7.71 -0.0217252
7.72 -0.0409195
7.73 -0.0587388
7.74 -0.0750921
7.75 -0.0900341
7.76 -0.103544
7.77 -0.115614
7.78 -0.126254
7.79 -0.135486
7.8 -0.143214
7.81 -0.149608
7.82 -0.154755
7.83 -0.158726
7.84 -0.161601
7.85 -0.163466
7.86 -0.16438
7.87 -0.164414
7.88 -0.163733
7.89 -0.162427
7.9 -0.160583
7.91 -0.158284
7.92 -0.155603
7.93 -0.152586
7.94 -0.149316
7.95 -0.145846
7.96 -0.142213
7.97 -0.138441
7.98 -0.134548
7.99 -0.130537
8 -0.126398
8.01 -0.122133
8.02 -0.117725
8.03 -0.113158
8.04 -0.108412
8.05 -0.103469
8.06 -0.0982952
8.07 -0.092886
8.08 -0.0872461
8.09 -0.0813795
8.1 -0.0752993
8.11 -0.0690282
8.12 -0.0625978
8.13 -0.0560483
8.14 -0.0494511
8.15 -0.0428709
8.16 -0.03638
8.17 -0.030056
8.18 -0.0239804
8.19 -0.018264
8.2 -0.0129935
8.21 -0.00822775
8.22 -0.00403525
8.23 -0.000474509
8.24 0.0024082
8.25 0.00457841
8.26 0.00594031
8.27 0.00658148
8.28 0.00652628
8.29 0.00581704
8.3 0.00451353
8.31 0.00269164
8.32 0.000423672
8.33 -0.00217192
8.34 -0.00495652
8.35 -0.00781158
8.36 -0.0106172
8.37 -0.0132559
8.38 -0.0156161
8.39 -0.017545
8.4 -0.0189871
8.41 -0.019879
8.42 -0.0201738
8.43 -0.0198465
8.44 -0.0188952
8.45 -0.0173164
8.46 -0.0151506
8.47 -0.0125143
8.48 -0.0095011
8.49 -0.00622214
8.5 -0.0028028
8.51 0.00062101
8.52 0.00387895
8.53 0.00682181
8.54 0.00931235
8.55 0.0112187
8.56 0.0124216
8.57 0.012818
8.58 0.0122918
8.59 0.0107307
8.6 0.00818007
8.61 0.00463597
8.62 0.000120337
8.63 -0.00531989
8.64 -0.0116143
8.65 -0.0187282
8.66 -0.0264918
8.67 -0.0347559
8.68 -0.0433844
8.69 -0.0522368
8.7 -0.0611732
8.71 -0.0700534
8.72 -0.0787237
8.73 -0.0870824
8.74 -0.0950382
8.75 -0.10252
8.76 -0.109479
8.77 -0.115888
8.78 -0.121706
8.79 -0.126978
8.8 -0.131773
8.81 -0.136158
8.82 -0.140212
8.83 -0.144026
8.84 -0.147699
8.85 -0.151342
8.86 -0.155068
8.87 -0.158966
8.88 -0.16312
8.89 -0.167595
8.9 -0.172441
8.91 -0.177713
8.92 -0.183412
8.93 -0.189497
8.94 -0.195925
8.95 -0.202636
8.96 -0.209548
8.97 -0.216567
8.98 -0.223571
8.99 -0.230432
9 -0.23703
9.01 -0.243248
9.02 -0.248973
9.03 -0.254102
9.04 -0.258507
9.05 -0.262101
9.06 -0.264885
9.07 -0.266833
9.08 -0.267948
9.09 -0.26825
9.1 -0.267787
9.11 -0.266556
9.12 -0.264723
9.13 -0.262395
9.14 -0.259686
9.15 -0.256714
9.16 -0.253599
9.17 -0.250463
9.18 -0.247434
9.19 -0.24461
9.2 -0.242072
9.21 -0.239883
9.22 -0.238087
9.23 -0.236707
9.24 -0.235779
9.25 -0.235247
9.26 -0.235056
9.27 -0.235141
9.28 -0.235425
9.29 -0.235819
9.3 -0.236223
9.31 -0.236518
9.32 -0.236607
9.33 -0.236398
9.34 -0.235808
9.35 -0.234768
9.36 -0.233224
9.37 -0.231095
9.38 -0.228394
9.39 -0.225149
9.4 -0.221389
9.41 -0.217162
9.42 -0.212531
9.43 -0.207568
9.44 -0.202356
9.45 -0.197019
9.46 -0.191654
9.47 -0.186355
9.48 -0.181206
9.49 -0.176285
9.5 -0.171676
9.51 -0.167417
9.52 -0.163514
9.53 -0.159964
9.54 -0.15674
9.55 -0.153796
9.56 -0.151063
9.57 -0.148454
9.58 -0.14584
9.59 -0.143101
9.6 -0.140108
9.61 -0.136731
9.62 -0.132836
9.63 -0.128248
9.64 -0.122837
9.65 -0.11654
9.66 -0.109271
9.67 -0.100968
9.68 -0.091587
9.69 -0.0811111
9.7 -0.0694233
9.71 -0.0566846
9.72 -0.0429548
9.73 -0.0283125
9.74 -0.0128536
9.75 0.00331136
9.76 0.0200838
9.77 0.0373214
9.78 0.0548551
9.79 0.0725544
9.8 0.0902946
9.81 0.107959
9.82 0.125443
9.83 0.14262
9.84 0.159433
9.85 0.17583
9.86 0.191775
9.87 0.207243
9.88 0.222227
9.89 0.236714
9.9 0.250704
9.91 0.26426
9.92 0.277411
9.93 0.290186
9.94 0.302614
9.95 0.314718
9.96 0.326488
9.97 0.337953
9.98 0.349113
9.99 0.359952
10 0.370442
10.01 0.380544
10.02 0.390192
10.03 0.399292
10.04 0.407817
10.05 0.4157
10.06 0.422872
10.07 0.429269
10.08 0.434831
10.09 0.439433
10.1 0.443076
10.11 0.445771
10.12 0.447514
10.13 0.448319
10.14 0.448218
10.15 0.447247
10.16 0.445419
10.17 0.442903
10.18 0.439801
10.19 0.43622
10.2 0.432278
10.21 0.428096
10.22 0.423795
10.23 0.419512
10.24 0.41536
10.25 0.411437
10.26 0.407826
10.27 0.404595
10.28 0.401796
10.29 0.399508
10.3 0.397686
10.31 0.396315
10.32 0.395359
10.33 0.394765
10.34 0.394465
10.35 0.394384
10.36 0.394413
10.37 0.39444
10.38 0.39436
10.39 0.394069
10.4 0.393465
10.41 0.392453
10.42 0.390882
10.43 0.388723
10.44 0.385919
10.45 0.382423
10.46 0.378202
10.47 0.373237
10.48 0.367488
10.49 0.360949
10.5 0.353692
10.51 0.345748
10.52 0.337152
10.53 0.327944
10.54 0.318167
10.55 0.307815
10.56 0.296977
10.57 0.285699
10.58 0.274011
10.59 0.261941
10.6 0.249507
10.61 0.236709
10.62 0.223541
10.63 0.210033
10.64 0.196182
10.65 0.181983
10.66 0.167431
10.67 0.152523
10.68 0.137226
10.69 0.121567
10.7 0.105567
10.71 0.0892439
10.72 0.0726249
10.73 0.0557445
10.74 0.0386414
10.75 0.0213641
10.76 0.00399171
10.77 -0.0134102
10.78 -0.0307722
10.79 -0.0480226
10.8 -0.0650902
10.81 -0.0818801
10.82 -0.0983307
10.83 -0.114395
10.84 -0.130027
10.85 -0.145189
10.86 -0.159855
10.87 -0.174005
10.88 -0.187596
10.89 -0.200696
10.9 -0.213333
10.91 -0.225544
10.92 -0.237378
10.93 -0.248886
10.94 -0.260114
10.95 -0.271136
10.96 -0.282025
10.97 -0.292834
10.98 -0.303612
10.99 -0.314401
11 -0.325228
11.01 -0.336116
11.02 -0.34706
11.03 -0.358044
11.04 -0.369037
11.05 -0.379996
11.06 -0.390863
11.07 -0.401555
11.08 -0.411978
11.09 -0.422057
11.1 -0.431698
11.11 -0.440808
11.12 -0.449295
11.13 -0.457072
11.14 -0.46396
11.15 -0.469966
11.16 -0.475037
11.17 -0.479128
11.18 -0.482208
11.19 -0.484261
11.2 -0.48524
11.21 -0.485135
11.22 -0.48405
11.23 -0.482024
11.24 -0.479109
11.25 -0.475359
11.26 -0.470839
11.27 -0.465549
11.28 -0.459618
11.29 -0.45312
11.3 -0.44611
11.31 -0.438637
11.32 -0.430744
11.33 -0.422447
11.34 -0.413754
11.35 -0.404704
11.36 -0.395298
11.37 -0.385525
11.38 -0.375371
11.39 -0.364813
11.4 -0.353785
11.41 -0.342284
11.42 -0.330297
11.43 -0.317801
11.44 -0.304781
11.45 -0.291228
11.46 -0.27713
11.47 -0.262466
11.48 -0.247312
11.49 -0.231705
11.5 -0.215695
11.51 -0.199343
11.52 -0.18272
11.53 -0.165899
11.54 -0.148987
11.55 -0.132084
11.56 -0.115286
11.57 -0.0986901
11.58 -0.0823886
11.59 -0.0664767
11.6 -0.051088
11.61 -0.0362516
11.62 -0.0220275
11.63 -0.00846376
11.64 0.00440383
11.65 0.0165525
11.66 0.0279241
11.67 0.0385344
11.68 0.0484371
11.69 0.0576587
11.7 0.0662339
11.71 0.0742038
11.72 0.0816132
11.73 0.0884588
11.74 0.0948526
11.75 0.100842
11.76 0.106472
11.77 0.11178
11.78 0.116802
11.79 0.121552
11.8 0.126049
11.81 0.13032
11.82 0.13437
11.83 0.138197
11.84 0.141791
11.85 0.14514
11.86 0.148196
11.87 0.150966
11.88 0.15343
11.89 0.155568
11.9 0.157361
11.91 0.158792
11.92 0.159831
11.93 0.160453
11.94 0.160679
11.95 0.160507
11.96 0.159934
11.97 0.158964
11.98 0.157598
11.99 0.155801
12 0.153608
12.01 0.151025
12.02 0.148049
12.03 0.144675
12.04 0.140891
12.05 0.136665
12.06 0.131948
12.07 0.126747
12.08 0.121028
12.09 0.114753
12.1 0.10788
12.11 0.100367
12.12 0.0921057
12.13 0.0830882
12.14 0.0732988
12.15 0.0627063
12.16 0.051288
12.17 0.0390313
