# xPDFsuite Configuration #
[PDF]
wavelength = 0.1
dataformat = QA
inputfile = BiMsol6_insitu_700 C-00725.xy
backgroundfile = Quartz2mm-dist500-00000.xy
mode = xray
bgscale = 0.0042
composition = Bi2Fe4O9
outputtype = gr
qmaxinst = 24.998449118
qmin = 0.1
qmax = 21.4986662415
rmax = 80.0
rmin = 0.0
rstep = 0.01
rpoly = 0.9

[Misc]
inputdir = C:/Data/Seafile/CPH/Beamtime/Desy Oct 20/In situ data/Processed/BiMsol6/PDF
savedir = C:/Data/Seafile/CPH/Beamtime/Desy Oct 20/In situ data/PDF/BiMsol6
backgroundfilefull = C:/Data/Seafile/CPH/Beamtime/Desy Oct 20/In situ data/Processed/Standard_Empty_Cap/Quartz2mm-dist500-00000.xy

#### start data
#S 1
#L r($\AA$)  G($\AA^{-2}$)
0 0
0.01 0.00619128
0.02 0.0120313
0.03 0.0172194
0.04 0.0214859
0.05 0.0246044
0.06 0.0264024
0.07 0.0266912
0.08 0.025416
0.09 0.022716
0.1 0.0187057
0.11 0.0135629
0.12 0.00752055
0.13 0.000856385
0.14 -0.00611709
0.15 -0.013007
0.16 -0.0194817
0.17 -0.0252304
0.18 -0.0299744
0.19 -0.0334811
0.2 -0.0355117
0.21 -0.0359036
0.22 -0.0347528
0.23 -0.0321248
0.24 -0.0281608
0.25 -0.0230735
0.26 -0.017139
0.27 -0.0106718
0.28 -0.00412302
0.29 0.00210584
0.3 0.00762501
0.31 0.0120643
0.32 0.0150913
0.33 0.0163697
0.34 0.0155711
0.35 0.0127483
0.36 0.00790103
0.37 0.00113037
0.38 -0.0073595
0.39 -0.0172643
0.4 -0.0282306
0.41 -0.0396542
0.42 -0.0509421
0.43 -0.0614916
0.44 -0.0706792
0.45 -0.0778844
0.46 -0.0824512
0.47 -0.0835347
0.48 -0.0809539
0.49 -0.0743687
0.5 -0.0635586
0.51 -0.0484369
0.52 -0.0290601
0.53 -0.00536565
0.54 0.0221039
0.55 0.0526357
0.56 0.0855671
0.57 0.120124
0.58 0.155442
0.59 0.19058
0.6 0.224334
0.61 0.25577
0.62 0.283942
0.63 0.307966
0.64 0.327048
0.65 0.340509
0.66 0.347399
0.67 0.347341
0.68 0.340513
0.69 0.326931
0.7 0.306789
0.71 0.280457
0.72 0.248475
0.73 0.211054
0.74 0.169669
0.75 0.125281
0.76 0.0789057
0.77 0.0315977
0.78 -0.0155812
0.79 -0.0614821
0.8 -0.104953
0.81 -0.145211
0.82 -0.181505
0.83 -0.213214
0.84 -0.239872
0.85 -0.261174
0.86 -0.276415
0.87 -0.28615
0.88 -0.290685
0.89 -0.290394
0.9 -0.285779
0.91 -0.277449
0.92 -0.26601
0.93 -0.252238
0.94 -0.237142
0.95 -0.221502
0.96 -0.206066
0.97 -0.19153
0.98 -0.178513
0.99 -0.167768
1 -0.159604
1.01 -0.154236
1.02 -0.151807
1.03 -0.15234
1.04 -0.155742
1.05 -0.161878
1.06 -0.170545
1.07 -0.18112
1.08 -0.193156
1.09 -0.206174
1.1 -0.219681
1.11 -0.233191
1.12 -0.246171
1.13 -0.258179
1.14 -0.268894
1.15 -0.278047
1.16 -0.285449
1.17 -0.290998
1.18 -0.294641
1.19 -0.296308
1.2 -0.296341
1.21 -0.294958
1.22 -0.292424
1.23 -0.289039
1.24 -0.285126
1.25 -0.281016
1.26 -0.27707
1.27 -0.273572
1.28 -0.27076
1.29 -0.268817
1.3 -0.267867
1.31 -0.267978
1.32 -0.269248
1.33 -0.271471
1.34 -0.274503
1.35 -0.278151
1.36 -0.28218
1.37 -0.286328
1.38 -0.290289
1.39 -0.293743
1.4 -0.296439
1.41 -0.298144
1.42 -0.298666
1.43 -0.297862
1.44 -0.295648
1.45 -0.291844
1.46 -0.286662
1.47 -0.280234
1.48 -0.272742
1.49 -0.26442
1.5 -0.255543
1.51 -0.246426
1.52 -0.237448
1.53 -0.228953
1.54 -0.221258
1.55 -0.214654
1.56 -0.209394
1.57 -0.205679
1.58 -0.203826
1.59 -0.203763
1.6 -0.205443
1.61 -0.208778
1.62 -0.213605
1.63 -0.2197
1.64 -0.226803
1.65 -0.234559
1.66 -0.242519
1.67 -0.250292
1.68 -0.257484
1.69 -0.263711
1.7 -0.268617
1.71 -0.271713
1.72 -0.272814
1.73 -0.271779
1.74 -0.268496
1.75 -0.262925
1.76 -0.255102
1.77 -0.245092
1.78 -0.232982
1.79 -0.21923
1.8 -0.20415
1.81 -0.188095
1.82 -0.171446
1.83 -0.154592
1.84 -0.137968
1.85 -0.121981
1.86 -0.106952
1.87 -0.0931651
1.88 -0.0808471
1.89 -0.0701632
1.9 -0.0612367
1.91 -0.0542437
1.92 -0.0489451
1.93 -0.0452167
1.94 -0.0428778
1.95 -0.0416997
1.96 -0.0414172
1.97 -0.0417603
1.98 -0.0423737
1.99 -0.0429355
2 -0.0431721
2.01 -0.0428428
2.02 -0.0417507
2.03 -0.0397485
2.04 -0.0366416
2.05 -0.032536
2.06 -0.0274985
2.07 -0.0216611
2.08 -0.0152164
2.09 -0.00841076
2.1 -0.00155089
2.11 0.00498304
2.12 0.0108403
2.13 0.0156682
2.14 0.0191246
2.15 0.0208913
2.16 0.0206874
2.17 0.0180202
2.18 0.0129369
2.19 0.00536767
2.2 -0.00470104
2.21 -0.0172075
2.22 -0.0320157
2.23 -0.0490004
2.24 -0.0678881
2.25 -0.0881889
2.26 -0.109518
2.27 -0.131459
2.28 -0.15358
2.29 -0.175447
2.3 -0.196529
2.31 -0.216445
2.32 -0.234861
2.33 -0.251483
2.34 -0.266075
2.35 -0.278472
2.36 -0.288498
2.37 -0.296027
2.38 -0.301319
2.39 -0.304512
2.4 -0.305803
2.41 -0.305441
2.42 -0.303717
2.43 -0.300893
2.44 -0.297413
2.45 -0.293652
2.46 -0.289942
2.47 -0.286598
2.48 -0.283897
2.49 -0.282104
2.5 -0.2815
2.51 -0.282118
2.52 -0.28402
2.53 -0.28721
2.54 -0.291635
2.55 -0.297192
2.56 -0.303791
2.57 -0.311177
2.58 -0.319087
2.59 -0.327278
2.6 -0.3355
2.61 -0.343507
2.62 -0.351053
2.63 -0.357841
2.64 -0.363746
2.65 -0.368626
2.66 -0.372382
2.67 -0.374956
2.68 -0.376336
2.69 -0.37648
2.7 -0.375489
2.71 -0.373536
2.72 -0.370763
2.73 -0.367335
2.74 -0.363428
2.75 -0.359226
2.76 -0.354921
2.77 -0.35071
2.78 -0.346749
2.79 -0.343166
2.8 -0.340066
2.81 -0.337519
2.82 -0.335601
2.83 -0.33432
2.84 -0.333607
2.85 -0.333403
2.86 -0.333624
2.87 -0.334165
2.88 -0.334908
2.89 -0.33572
2.9 -0.336449
2.91 -0.336967
2.92 -0.337157
2.93 -0.336913
2.94 -0.336146
2.95 -0.334761
2.96 -0.332683
2.97 -0.329935
2.98 -0.326511
2.99 -0.322424
3 -0.317701
3.01 -0.312377
3.02 -0.306443
3.03 -0.299987
3.04 -0.293054
3.05 -0.28567
3.06 -0.277844
3.07 -0.269571
3.08 -0.260807
3.09 -0.251467
3.1 -0.241517
3.11 -0.230864
3.12 -0.219396
3.13 -0.206988
3.14 -0.193506
3.15 -0.178699
3.16 -0.162479
3.17 -0.144763
3.18 -0.125445
3.19 -0.104441
3.2 -0.0816987
3.21 -0.0571611
3.22 -0.0307224
3.23 -0.00262296
3.24 0.0270238
3.25 0.0580615
3.26 0.0902925
3.27 0.123481
3.28 0.157383
3.29 0.191633
3.3 0.225875
3.31 0.25977
3.32 0.29297
3.33 0.325134
3.34 0.35591
3.35 0.384785
3.36 0.411633
3.37 0.436207
3.38 0.458298
3.39 0.477741
3.4 0.494416
3.41 0.508069
3.42 0.518699
3.43 0.526492
3.44 0.531517
3.45 0.533882
3.46 0.533726
3.47 0.531217
3.48 0.526312
3.49 0.519481
3.5 0.510937
3.51 0.500889
3.52 0.489541
3.53 0.477087
3.54 0.463668
3.55 0.44946
3.56 0.43466
3.57 0.419388
3.58 0.403743
3.59 0.387808
3.6 0.371648
3.61 0.355304
3.62 0.338836
3.63 0.322284
3.64 0.305681
3.65 0.289063
3.66 0.272474
3.67 0.255969
3.68 0.239627
3.69 0.223518
3.7 0.207736
3.71 0.192385
3.72 0.177585
3.73 0.163465
3.74 0.150254
3.75 0.138056
3.76 0.126999
3.77 0.117226
3.78 0.108876
3.79 0.102077
3.8 0.0969949
3.81 0.093839
3.82 0.0925325
3.83 0.0931231
3.84 0.095634
3.85 0.100063
3.86 0.106385
3.87 0.114691
3.88 0.124808
3.89 0.136571
3.9 0.149862
3.91 0.164548
3.92 0.180485
3.93 0.19754
3.94 0.21561
3.95 0.234434
3.96 0.253855
3.97 0.273725
3.98 0.293899
3.99 0.314244
4 0.334627
4.01 0.354918
4.02 0.37501
4.03 0.394809
4.04 0.414228
4.05 0.433184
4.06 0.451598
4.07 0.469324
4.08 0.486352
4.09 0.502609
4.1 0.518022
4.11 0.532516
4.12 0.546013
4.13 0.558361
4.14 0.569467
4.15 0.57931
4.16 0.587803
4.17 0.594866
4.18 0.600418
4.19 0.604388
4.2 0.606517
4.21 0.606927
4.22 0.605587
4.23 0.60247
4.24 0.597567
4.25 0.590885
4.26 0.582363
4.27 0.572017
4.28 0.560025
4.29 0.546462
4.3 0.531415
4.31 0.51498
4.32 0.497263
4.33 0.478267
4.34 0.458219
4.35 0.437251
4.36 0.415472
4.37 0.392987
4.38 0.369891
4.39 0.346257
4.4 0.322154
4.41 0.297686
4.42 0.272908
4.43 0.247862
4.44 0.222586
4.45 0.197108
4.46 0.171438
4.47 0.145611
4.48 0.119653
4.49 0.0935863
4.5 0.0674407
4.51 0.0412514
4.52 0.0150641
4.53 -0.0110556
4.54 -0.0370409
4.55 -0.0628139
4.56 -0.0882863
4.57 -0.113361
4.58 -0.137933
4.59 -0.161835
4.6 -0.184966
4.61 -0.207236
4.62 -0.228539
4.63 -0.248775
4.64 -0.267853
4.65 -0.285678
4.66 -0.302072
4.67 -0.317125
4.68 -0.33082
4.69 -0.34316
4.7 -0.354169
4.71 -0.363893
4.72 -0.372317
4.73 -0.379562
4.74 -0.385787
4.75 -0.391102
4.76 -0.395626
4.77 -0.399483
4.78 -0.402794
4.79 -0.405648
4.8 -0.408217
4.81 -0.4106
4.82 -0.412887
4.83 -0.415151
4.84 -0.417448
4.85 -0.419823
4.86 -0.422298
4.87 -0.424868
4.88 -0.427516
4.89 -0.430213
4.9 -0.432915
4.91 -0.435573
4.92 -0.438108
4.93 -0.440466
4.94 -0.442584
4.95 -0.444404
4.96 -0.445873
4.97 -0.446945
4.98 -0.447561
4.99 -0.447681
5 -0.447322
5.01 -0.446482
5.02 -0.445167
5.03 -0.443392
5.04 -0.44118
5.05 -0.438521
5.06 -0.435483
5.07 -0.432104
5.08 -0.428414
5.09 -0.424439
5.1 -0.420197
5.11 -0.415695
5.12 -0.410923
5.13 -0.405898
5.14 -0.400605
5.15 -0.395023
5.16 -0.389124
5.17 -0.382877
5.18 -0.37621
5.19 -0.369109
5.2 -0.361556
5.21 -0.353527
5.22 -0.345008
5.23 -0.335996
5.24 -0.32649
5.25 -0.316489
5.26 -0.306084
5.27 -0.295338
5.28 -0.284329
5.29 -0.273151
5.3 -0.261912
5.31 -0.250743
5.32 -0.239787
5.33 -0.229173
5.34 -0.219034
5.35 -0.209496
5.36 -0.20068
5.37 -0.192707
5.38 -0.185764
5.39 -0.17983
5.4 -0.174955
5.41 -0.171161
5.42 -0.16845
5.43 -0.166796
5.44 -0.166213
5.45 -0.166599
5.46 -0.167806
5.47 -0.16972
5.48 -0.172212
5.49 -0.175145
5.5 -0.178376
5.51 -0.181761
5.52 -0.18513
5.53 -0.188351
5.54 -0.191304
5.55 -0.193884
5.56 -0.196003
5.57 -0.197557
5.58 -0.19849
5.59 -0.198807
5.6 -0.198504
5.61 -0.197591
5.62 -0.196091
5.63 -0.194042
5.64 -0.19144
5.65 -0.18839
5.66 -0.184949
5.67 -0.181166
5.68 -0.177081
5.69 -0.172727
5.7 -0.168115
5.71 -0.163244
5.72 -0.158121
5.73 -0.152721
5.74 -0.147004
5.75 -0.140919
5.76 -0.134404
5.77 -0.127334
5.78 -0.119666
5.79 -0.111339
5.8 -0.102283
5.81 -0.092442
5.82 -0.0817678
5.83 -0.0702016
5.84 -0.0576884
5.85 -0.0443169
5.86 -0.0301258
5.87 -0.0151773
5.88 0.000443249
5.89 0.0166289
5.9 0.0332778
5.91 0.0502019
5.92 0.0672289
5.93 0.0841918
5.94 0.100921
5.95 0.11725
5.96 0.133001
5.97 0.147958
5.98 0.16205
5.99 0.175173
6 0.187245
6.01 0.198214
6.02 0.208054
6.03 0.216686
6.04 0.224185
6.05 0.230663
6.06 0.236205
6.07 0.240916
6.08 0.244916
6.09 0.248326
6.1 0.251255
6.11 0.253892
6.12 0.256359
6.13 0.258766
6.14 0.261205
6.15 0.263747
6.16 0.266449
6.17 0.269329
6.18 0.272363
6.19 0.275507
6.2 0.278692
6.21 0.281826
6.22 0.284794
6.23 0.287412
6.24 0.289558
6.25 0.29108
6.26 0.291825
6.27 0.291648
6.28 0.290412
6.29 0.287929
6.3 0.284074
6.31 0.278854
6.32 0.27223
6.33 0.264188
6.34 0.254749
6.35 0.24396
6.36 0.231776
6.37 0.218436
6.38 0.204087
6.39 0.188879
6.4 0.172977
6.41 0.156552
6.42 0.139775
6.43 0.122835
6.44 0.10592
6.45 0.0891796
6.46 0.072746
6.47 0.0567306
6.48 0.0412215
6.49 0.0263393
6.5 0.0120797
6.51 -0.00156534
6.52 -0.0146149
6.53 -0.0271096
6.54 -0.039109
6.55 -0.0506776
6.56 -0.0618953
6.57 -0.072891
6.58 -0.0837591
6.59 -0.0945908
6.6 -0.105469
6.61 -0.116466
6.62 -0.127657
6.63 -0.139075
6.64 -0.150726
6.65 -0.162605
6.66 -0.174685
6.67 -0.186917
6.68 -0.199233
6.69 -0.211538
6.7 -0.223721
6.71 -0.23567
6.72 -0.247266
6.73 -0.258385
6.74 -0.268903
6.75 -0.278643
6.76 -0.287495
6.77 -0.295394
6.78 -0.302253
6.79 -0.307998
6.8 -0.312573
6.81 -0.315926
6.82 -0.317904
6.83 -0.318634
6.84 -0.31812
6.85 -0.316379
6.86 -0.313436
6.87 -0.309323
6.88 -0.304007
6.89 -0.297538
6.9 -0.290013
6.91 -0.281463
6.92 -0.271912
6.93 -0.261381
6.94 -0.249878
6.95 -0.237296
6.96 -0.223737
6.97 -0.20919
6.98 -0.193636
6.99 -0.177055
7 -0.159424
7.01 -0.140669
7.02 -0.120751
7.03 -0.0997353
7.04 -0.0776231
7.05 -0.0544278
7.06 -0.0301766
7.07 -0.00491192
7.08 0.0213982
7.09 0.0485817
7.1 0.0765289
7.11 0.105127
7.12 0.13425
7.13 0.163758
7.14 0.193503
7.15 0.223307
7.16 0.252991
7.17 0.282389
7.18 0.311339
7.19 0.339682
7.2 0.367268
7.21 0.393862
7.22 0.419384
7.23 0.443744
7.24 0.46685
7.25 0.488622
7.26 0.508996
7.27 0.527883
7.28 0.545157
7.29 0.56093
7.3 0.575194
7.31 0.587951
7.32 0.599208
7.33 0.608977
7.34 0.617152
7.35 0.623814
7.36 0.629023
7.37 0.632784
7.38 0.635097
7.39 0.635952
7.4 0.635313
7.41 0.633032
7.42 0.629232
7.43 0.623882
7.44 0.616954
7.45 0.608417
7.46 0.598244
7.47 0.586297
7.48 0.572601
7.49 0.557233
7.5 0.540209
7.51 0.521558
7.52 0.501326
7.53 0.479569
7.54 0.456233
7.55 0.431594
7.56 0.405779
7.57 0.378932
7.58 0.351213
7.59 0.322798
7.6 0.293854
7.61 0.264607
7.62 0.235286
7.63 0.206092
7.64 0.177223
7.65 0.148874
7.66 0.121226
7.67 0.0945666
7.68 0.0689704
7.69 0.0445659
7.7 0.0214662
7.71 -0.000236797
7.72 -0.0204729
7.73 -0.0391206
7.74 -0.0561201
7.75 -0.0715771
7.76 -0.0855115
7.77 -0.09796
7.78 -0.108975
7.79 -0.11862
7.8 -0.126848
7.81 -0.133861
7.82 -0.139766
7.83 -0.144651
7.84 -0.148603
7.85 -0.151704
7.86 -0.154008
7.87 -0.155561
7.88 -0.156486
7.89 -0.156832
7.9 -0.15664
7.91 -0.155943
7.92 -0.154762
7.93 -0.153073
7.94 -0.150912
7.95 -0.148295
7.96 -0.14522
7.97 -0.141683
7.98 -0.137683
7.99 -0.133207
8 -0.128229
8.01 -0.1228
8.02 -0.116937
8.03 -0.110664
8.04 -0.104011
8.05 -0.097021
8.06 -0.0897227
8.07 -0.0821935
8.08 -0.0745101
8.09 -0.0667443
8.1 -0.0589721
8.11 -0.051273
8.12 -0.043731
8.13 -0.0364567
8.14 -0.0295092
8.15 -0.0229604
8.16 -0.0168753
8.17 -0.0113105
8.18 -0.00631315
8.19 -0.00196136
8.2 0.00173043
8.21 0.00478483
8.22 0.00720732
8.23 0.00901626
8.24 0.0102424
8.25 0.0109263
8.26 0.0110744
8.27 0.0108108
8.28 0.0102062
8.29 0.00933575
8.3 0.0082774
8.31 0.0071094
8.32 0.00591071
8.33 0.00476435
8.34 0.0037359
8.35 0.00288111
8.36 0.00224558
8.37 0.00186336
8.38 0.00175601
8.39 0.00196219
8.4 0.00244465
8.41 0.0031788
8.42 0.00412949
8.43 0.00524976
8.44 0.00648214
8.45 0.00775876
8.46 0.00899383
8.47 0.0101055
8.48 0.0110124
8.49 0.0116333
8.5 0.0118896
8.51 0.0117076
8.52 0.0109649
8.53 0.00963909
8.54 0.00769541
8.55 0.00510157
8.56 0.00183824
8.57 -0.00210052
8.58 -0.00672918
8.59 -0.0120538
8.6 -0.0179828
8.61 -0.0244686
8.62 -0.0314545
8.63 -0.038876
8.64 -0.0466629
8.65 -0.05476
8.66 -0.0630666
8.67 -0.0715006
8.68 -0.0799923
8.69 -0.0884773
8.7 -0.0968985
8.71 -0.105204
8.72 -0.113341
8.73 -0.121294
8.74 -0.129051
8.75 -0.136606
8.76 -0.143967
8.77 -0.151146
8.78 -0.158158
8.79 -0.165041
8.8 -0.171836
8.81 -0.178576
8.82 -0.185298
8.83 -0.192032
8.84 -0.198809
8.85 -0.205656
8.86 -0.212579
8.87 -0.219581
8.88 -0.226652
8.89 -0.233773
8.9 -0.240914
8.91 -0.248029
8.92 -0.255061
8.93 -0.26195
8.94 -0.268629
8.95 -0.27503
8.96 -0.281078
8.97 -0.286701
8.98 -0.291765
8.99 -0.296257
9 -0.300122
9.01 -0.303314
9.02 -0.305798
9.03 -0.307552
9.04 -0.308529
9.05 -0.30873
9.06 -0.308224
9.07 -0.307049
9.08 -0.305253
9.09 -0.302896
9.1 -0.300047
9.11 -0.296747
9.12 -0.293126
9.13 -0.289272
9.14 -0.285267
9.15 -0.281192
9.16 -0.27712
9.17 -0.273124
9.18 -0.269272
9.19 -0.2656
9.2 -0.262141
9.21 -0.258912
9.22 -0.255921
9.23 -0.25316
9.24 -0.250631
9.25 -0.248285
9.26 -0.246081
9.27 -0.243976
9.28 -0.241921
9.29 -0.239869
9.3 -0.237768
9.31 -0.235562
9.32 -0.233217
9.33 -0.230701
9.34 -0.227991
9.35 -0.225073
9.36 -0.221943
9.37 -0.21859
9.38 -0.215045
9.39 -0.211342
9.4 -0.207516
9.41 -0.203608
9.42 -0.199663
9.43 -0.195729
9.44 -0.191865
9.45 -0.188112
9.46 -0.18451
9.47 -0.181089
9.48 -0.177875
9.49 -0.174879
9.5 -0.172118
9.51 -0.16957
9.52 -0.167201
9.53 -0.164969
9.54 -0.162824
9.55 -0.160706
9.56 -0.158541
9.57 -0.156231
9.58 -0.153697
9.59 -0.150853
9.6 -0.147612
9.61 -0.14389
9.62 -0.139608
9.63 -0.134647
9.64 -0.128942
9.65 -0.122475
9.66 -0.115207
9.67 -0.107111
9.68 -0.0981722
9.69 -0.0883901
9.7 -0.077682
9.71 -0.0661696
9.72 -0.0538905
9.73 -0.0408897
9.74 -0.0272194
9.75 -0.0129376
9.76 0.00191883
9.77 0.0172828
9.78 0.0330547
9.79 0.0491712
9.8 0.0655718
9.81 0.0821993
9.82 0.0990003
9.83 0.115934
9.84 0.132941
9.85 0.149981
9.86 0.167017
9.87 0.184016
9.88 0.200946
9.89 0.217771
9.9 0.23445
9.91 0.250957
9.92 0.267256
9.93 0.283307
9.94 0.299066
9.95 0.314483
9.96 0.329464
9.97 0.343972
9.98 0.357955
9.99 0.371349
10 0.384088
10.01 0.39611
10.02 0.407326
10.03 0.417622
10.04 0.427016
10.05 0.435464
10.06 0.442934
10.07 0.449402
10.08 0.454858
10.09 0.459223
10.1 0.462567
10.11 0.464959
10.12 0.466447
10.13 0.467092
10.14 0.466967
10.15 0.466145
10.16 0.464681
10.17 0.462741
10.18 0.460428
10.19 0.457846
10.2 0.455097
10.21 0.452278
10.22 0.449489
10.23 0.446821
10.24 0.444343
10.25 0.442109
10.26 0.440163
10.27 0.438531
10.28 0.437229
10.29 0.436286
10.3 0.435645
10.31 0.435273
10.32 0.435123
10.33 0.435139
10.34 0.435257
10.35 0.435402
10.36 0.435487
10.37 0.435431
10.38 0.435155
10.39 0.434584
10.4 0.433644
10.41 0.432267
10.42 0.43033
10.43 0.427829
10.44 0.424721
10.45 0.420972
10.46 0.416553
10.47 0.411445
10.48 0.405601
10.49 0.399002
10.5 0.391698
10.51 0.383697
10.52 0.375008
10.53 0.365646
10.54 0.355626
10.55 0.344903
10.56 0.333553
10.57 0.321604
10.58 0.309076
10.59 0.295988
10.6 0.28236
10.61 0.268193
10.62 0.253492
10.63 0.238322
10.64 0.222707
10.65 0.206678
10.66 0.190265
10.67 0.173504
10.68 0.156411
10.69 0.139055
10.7 0.121492
10.71 0.103774
10.72 0.0859572
10.73 0.068098
10.74 0.0502578
10.75 0.0325088
10.76 0.0149066
10.77 -0.00249277
10.78 -0.0196368
10.79 -0.0364779
10.8 -0.0529743
10.81 -0.0690589
10.82 -0.0847186
10.83 -0.0999521
10.84 -0.114752
10.85 -0.129121
10.86 -0.14307
10.87 -0.156613
10.88 -0.169747
10.89 -0.18255
10.9 -0.195061
10.91 -0.207323
10.92 -0.219382
10.93 -0.231283
10.94 -0.243065
10.95 -0.254776
10.96 -0.266456
10.97 -0.278131
10.98 -0.289822
10.99 -0.301538
11 -0.313281
11.01 -0.325043
11.02 -0.336798
11.03 -0.348516
11.04 -0.360157
11.05 -0.371671
11.06 -0.383005
11.07 -0.394079
11.08 -0.404816
11.09 -0.415163
11.1 -0.42505
11.11 -0.43441
11.12 -0.443176
11.13 -0.451285
11.14 -0.458596
11.15 -0.465128
11.16 -0.470842
11.17 -0.475705
11.18 -0.479688
11.19 -0.482772
11.2 -0.484903
11.21 -0.486056
11.22 -0.486298
11.23 -0.48564
11.24 -0.484097
11.25 -0.481689
11.26 -0.478437
11.27 -0.47429
11.28 -0.469342
11.29 -0.463637
11.3 -0.457204
11.31 -0.450068
11.32 -0.442259
11.33 -0.43378
11.34 -0.424633
11.35 -0.414895
11.36 -0.40459
11.37 -0.393744
11.38 -0.382381
11.39 -0.370529
11.4 -0.358175
11.41 -0.345379
11.42 -0.332187
11.43 -0.318631
11.44 -0.304746
11.45 -0.29057
11.46 -0.276137
11.47 -0.261481
11.48 -0.246667
11.49 -0.231739
11.5 -0.216743
11.51 -0.201722
11.52 -0.186722
11.53 -0.171792
11.54 -0.156976
11.55 -0.142311
11.56 -0.127831
11.57 -0.11357
11.58 -0.099556
11.59 -0.0858203
11.6 -0.0724157
11.61 -0.0593329
11.62 -0.0465896
11.63 -0.0342012
11.64 -0.0221816
11.65 -0.0105437
11.66 0.000673425
11.67 0.0114617
11.68 0.0218288
11.69 0.0317616
11.7 0.0412461
11.71 0.0502677
11.72 0.0588099
11.73 0.066799
11.74 0.0742745
11.75 0.0812211
11.76 0.0876246
11.77 0.0934729
11.78 0.0987565
11.79 0.103438
11.8 0.107512
11.81 0.111019
11.82 0.113968
11.83 0.116376
11.84 0.118265
11.85 0.119662
11.86 0.120558
11.87 0.12104
11.88 0.121158
11.89 0.12096
11.9 0.120495
11.91 0.119814
11.92 0.118961
11.93 0.117984
11.94 0.116936
11.95 0.115851
11.96 0.114755
11.97 0.113664
11.98 0.112585
11.99 0.11151
12 0.110418
12.01 0.109276
12.02 0.108038
12.03 0.106647
12.04 0.105038
12.05 0.103121
12.06 0.100782
12.07 0.0979582
12.08 0.0945574
12.09 0.0904885
12.1 0.0856634
12.11 0.0799993
12.12 0.0733376
12.13 0.0656582
12.14 0.0569431
12.15 0.0471605
12.16 0.0362959
12.17 0.0243529
12.18 0.0113322
