# xPDFsuite Configuration #
[PDF]
wavelength = 0.1
dataformat = QA
inputfile = BiMsol6_insitu_700 C-00476.xy
backgroundfile = Quartz2mm-dist500-00000.xy
mode = xray
bgscale = 0.0042
composition = Bi2Fe4O9
outputtype = gr
qmaxinst = 24.998449118
qmin = 0.1
qmax = 21.4986662415
rmax = 80.0
rmin = 0.0
rstep = 0.01
rpoly = 0.9

[Misc]
inputdir = C:/Data/Seafile/CPH/Beamtime/Desy Oct 20/In situ data/Processed/BiMsol6/PDF
savedir = C:/Data/Seafile/CPH/Beamtime/Desy Oct 20/In situ data/PDF/BiMsol6
backgroundfilefull = C:/Data/Seafile/CPH/Beamtime/Desy Oct 20/In situ data/Processed/Standard_Empty_Cap/Quartz2mm-dist500-00000.xy

#### start data
#S 1
#L r($\AA$)  G($\AA^{-2}$)
0 0
0.01 0.00629579
0.02 0.0122345
0.03 0.0175107
0.04 0.0218502
0.05 0.0250231
0.06 0.026854
0.07 0.0271513
0.08 0.0258598
0.09 0.0231209
0.1 0.0190516
0.11 0.0138326
0.12 0.00770101
0.13 0.000939456
0.14 -0.00613404
0.15 -0.0131202
0.16 -0.0196821
0.17 -0.0255038
0.18 -0.0303025
0.19 -0.033842
0.2 -0.0358804
0.21 -0.036253
0.22 -0.0350585
0.23 -0.0323643
0.24 -0.0283151
0.25 -0.0231283
0.26 -0.0170856
0.27 -0.0105083
0.28 -0.00385572
0.29 0.00246348
0.3 0.00805253
0.31 0.0125349
0.32 0.0155726
0.33 0.0168241
0.34 0.0159558
0.35 0.0130237
0.36 0.0080287
0.37 0.00107584
0.38 -0.00762504
0.39 -0.017762
0.4 -0.0289722
0.41 -0.040638
0.42 -0.0521539
0.43 -0.0629037
0.44 -0.0722507
0.45 -0.0795611
0.46 -0.084165
0.47 -0.0851988
0.48 -0.0824794
0.49 -0.07566
0.5 -0.064516
0.51 -0.0489595
0.52 -0.0290487
0.53 -0.00472009
0.54 0.0234715
0.55 0.054797
0.56 0.0885793
0.57 0.124027
0.58 0.160257
0.59 0.196307
0.6 0.230949
0.61 0.263226
0.62 0.292172
0.63 0.316886
0.64 0.336553
0.65 0.35048
0.66 0.357698
0.67 0.357818
0.68 0.351023
0.69 0.337327
0.7 0.316928
0.71 0.290204
0.72 0.257701
0.73 0.219635
0.74 0.177513
0.75 0.132311
0.76 0.0850665
0.77 0.036855
0.78 -0.0112413
0.79 -0.058052
0.8 -0.102403
0.81 -0.143496
0.82 -0.180565
0.83 -0.212978
0.84 -0.240261
0.85 -0.262103
0.86 -0.27779
0.87 -0.287886
0.88 -0.292705
0.89 -0.292627
0.9 -0.288167
0.91 -0.279945
0.92 -0.26858
0.93 -0.254863
0.94 -0.239819
0.95 -0.224242
0.96 -0.208892
0.97 -0.194474
0.98 -0.181616
0.99 -0.171081
1 -0.163175
1.01 -0.158112
1.02 -0.156031
1.03 -0.156949
1.04 -0.160762
1.05 -0.167324
1.06 -0.17642
1.07 -0.18741
1.08 -0.199832
1.09 -0.213196
1.1 -0.226994
1.11 -0.24073
1.12 -0.253855
1.13 -0.265925
1.14 -0.276616
1.15 -0.285662
1.16 -0.292879
1.17 -0.29817
1.18 -0.301493
1.19 -0.30279
1.2 -0.302425
1.21 -0.300633
1.22 -0.297699
1.23 -0.293945
1.24 -0.28971
1.25 -0.285353
1.26 -0.28125
1.27 -0.277697
1.28 -0.274942
1.29 -0.273175
1.3 -0.272525
1.31 -0.273058
1.32 -0.274877
1.33 -0.277755
1.34 -0.281533
1.35 -0.285999
1.36 -0.290899
1.37 -0.295946
1.38 -0.300812
1.39 -0.305146
1.4 -0.308672
1.41 -0.311137
1.42 -0.312326
1.43 -0.31208
1.44 -0.310298
1.45 -0.306777
1.46 -0.30174
1.47 -0.295317
1.48 -0.287698
1.49 -0.279129
1.5 -0.2699
1.51 -0.260344
1.52 -0.250863
1.53 -0.241837
1.54 -0.23361
1.55 -0.226502
1.56 -0.220793
1.57 -0.216713
1.58 -0.214616
1.59 -0.214443
1.6 -0.216161
1.61 -0.219691
1.62 -0.224876
1.63 -0.23149
1.64 -0.239269
1.65 -0.247848
1.66 -0.256746
1.67 -0.265545
1.68 -0.273819
1.69 -0.281153
1.7 -0.287152
1.71 -0.291283
1.72 -0.293322
1.73 -0.293098
1.74 -0.290462
1.75 -0.285349
1.76 -0.277774
1.77 -0.267777
1.78 -0.255425
1.79 -0.241195
1.8 -0.22541
1.81 -0.208443
1.82 -0.190697
1.83 -0.172596
1.84 -0.154606
1.85 -0.13719
1.86 -0.120722
1.87 -0.105537
1.88 -0.091914
1.89 -0.0800687
1.9 -0.0701766
1.91 -0.0624834
1.92 -0.056766
1.93 -0.0529294
1.94 -0.050813
1.95 -0.0501992
1.96 -0.050823
1.97 -0.0524256
1.98 -0.0546197
1.99 -0.0570332
2 -0.0593489
2.01 -0.0612737
2.02 -0.0625512
2.03 -0.0629684
2.04 -0.0622504
2.05 -0.0604267
2.06 -0.0574925
2.07 -0.0535099
2.08 -0.0486062
2.09 -0.0429688
2.1 -0.0368267
2.11 -0.0305117
2.12 -0.0243732
2.13 -0.0187483
2.14 -0.0139763
2.15 -0.0103855
2.16 -0.00827947
2.17 -0.00814199
2.18 -0.010025
2.19 -0.0140615
2.2 -0.0203325
2.21 -0.0288509
2.22 -0.0395594
2.23 -0.0524171
2.24 -0.0672453
2.25 -0.0836343
2.26 -0.101273
2.27 -0.119814
2.28 -0.138884
2.29 -0.158098
2.3 -0.177011
2.31 -0.195232
2.32 -0.21243
2.33 -0.228309
2.34 -0.242618
2.35 -0.255165
2.36 -0.265749
2.37 -0.274208
2.38 -0.280713
2.39 -0.285338
2.4 -0.288218
2.41 -0.289533
2.42 -0.28951
2.43 -0.288338
2.44 -0.286398
2.45 -0.284016
2.46 -0.281482
2.47 -0.279077
2.48 -0.277057
2.49 -0.275666
2.5 -0.275168
2.51 -0.275633
2.52 -0.277144
2.53 -0.279734
2.54 -0.28339
2.55 -0.288052
2.56 -0.293677
2.57 -0.30007
2.58 -0.307022
2.59 -0.314339
2.6 -0.321818
2.61 -0.329252
2.62 -0.336433
2.63 -0.343112
2.64 -0.349155
2.65 -0.354427
2.66 -0.358821
2.67 -0.362266
2.68 -0.364723
2.69 -0.366125
2.7 -0.366522
2.71 -0.36603
2.72 -0.364738
2.73 -0.362753
2.74 -0.360195
2.75 -0.357191
2.76 -0.35385
2.77 -0.350341
2.78 -0.346778
2.79 -0.343256
2.8 -0.339853
2.81 -0.336626
2.82 -0.333622
2.83 -0.330852
2.84 -0.32829
2.85 -0.325899
2.86 -0.323629
2.87 -0.321417
2.88 -0.31919
2.89 -0.316854
2.9 -0.31433
2.91 -0.311548
2.92 -0.308442
2.93 -0.304959
2.94 -0.301056
2.95 -0.296685
2.96 -0.291818
2.97 -0.286493
2.98 -0.280724
2.99 -0.274535
3 -0.267958
3.01 -0.261026
3.02 -0.253743
3.03 -0.246162
3.04 -0.238309
3.05 -0.230186
3.06 -0.221783
3.07 -0.213073
3.08 -0.203997
3.09 -0.194459
3.1 -0.184405
3.11 -0.173736
3.12 -0.162343
3.13 -0.15011
3.14 -0.136915
3.15 -0.122543
3.16 -0.106929
3.17 -0.0900178
3.18 -0.0717405
3.19 -0.0520526
3.2 -0.0309393
3.21 -0.00839087
3.22 0.015629
3.23 0.0408847
3.24 0.0672388
3.25 0.0945187
3.26 0.12252
3.27 0.151009
3.28 0.179727
3.29 0.20835
3.3 0.236585
3.31 0.264141
3.32 0.290736
3.33 0.316097
3.34 0.339956
3.35 0.361893
3.36 0.381887
3.37 0.399787
3.38 0.415482
3.39 0.428902
3.4 0.440017
3.41 0.448699
3.42 0.455034
3.43 0.45924
3.44 0.461444
3.45 0.461797
3.46 0.460469
3.47 0.457645
3.48 0.453386
3.49 0.448052
3.5 0.441829
3.51 0.434891
3.52 0.427398
3.53 0.419491
3.54 0.411279
3.55 0.40287
3.56 0.39435
3.57 0.38577
3.58 0.377159
3.59 0.368531
3.6 0.359888
3.61 0.35122
3.62 0.342513
3.63 0.333758
3.64 0.324948
3.65 0.316083
3.66 0.307178
3.67 0.29826
3.68 0.289382
3.69 0.280607
3.7 0.272016
3.71 0.263701
3.72 0.25577
3.73 0.248339
3.74 0.241601
3.75 0.235654
3.76 0.230606
3.77 0.226573
3.78 0.223658
3.79 0.221954
3.8 0.22157
3.81 0.222637
3.82 0.225064
3.83 0.228845
3.84 0.233951
3.85 0.240328
3.86 0.247897
3.87 0.256642
3.88 0.266375
3.89 0.276925
3.9 0.288148
3.91 0.299894
3.92 0.312012
3.93 0.324355
3.94 0.33677
3.95 0.349108
3.96 0.361252
3.97 0.373101
3.98 0.384568
3.99 0.395585
4 0.406059
4.01 0.415963
4.02 0.4253
4.03 0.434058
4.04 0.442236
4.05 0.449836
4.06 0.456859
4.07 0.463251
4.08 0.469071
4.09 0.474313
4.1 0.478959
4.11 0.482982
4.12 0.486345
4.13 0.488952
4.14 0.490738
4.15 0.491675
4.16 0.491689
4.17 0.4907
4.18 0.488631
4.19 0.485406
4.2 0.480809
4.21 0.474908
4.22 0.467663
4.23 0.459045
4.24 0.449039
4.25 0.437652
4.26 0.424845
4.27 0.410647
4.28 0.395218
4.29 0.378645
4.3 0.361027
4.31 0.342477
4.32 0.323116
4.33 0.303015
4.34 0.282377
4.35 0.261338
4.36 0.240017
4.37 0.218524
4.38 0.196957
4.39 0.175405
4.4 0.153943
4.41 0.132618
4.42 0.111459
4.43 0.0904778
4.44 0.0696751
4.45 0.0490373
4.46 0.0285515
4.47 0.00817486
4.48 -0.0121293
4.49 -0.0323927
4.5 -0.0526422
4.51 -0.0728971
4.52 -0.0931659
4.53 -0.113442
4.54 -0.1337
4.55 -0.153901
4.56 -0.173987
4.57 -0.193887
4.58 -0.213516
4.59 -0.232737
4.6 -0.251443
4.61 -0.269534
4.62 -0.286894
4.63 -0.303411
4.64 -0.318977
4.65 -0.333477
4.66 -0.346727
4.67 -0.358773
4.68 -0.369576
4.69 -0.379121
4.7 -0.387414
4.71 -0.394485
4.72 -0.400314
4.73 -0.405014
4.74 -0.408742
4.75 -0.411613
4.76 -0.413755
4.77 -0.415305
4.78 -0.416401
4.79 -0.417168
4.8 -0.417786
4.81 -0.418379
4.82 -0.419057
4.83 -0.419914
4.84 -0.421025
4.85 -0.422464
4.86 -0.424265
4.87 -0.426412
4.88 -0.42889
4.89 -0.431662
4.9 -0.434673
4.91 -0.437855
4.92 -0.441127
4.93 -0.444382
4.94 -0.447524
4.95 -0.450462
4.96 -0.453103
4.97 -0.455366
4.98 -0.457152
4.99 -0.458379
5 -0.459034
5.01 -0.459086
5.02 -0.458519
5.03 -0.45733
5.04 -0.455529
5.05 -0.453082
5.06 -0.450073
5.07 -0.44655
5.08 -0.442557
5.09 -0.438134
5.1 -0.433324
5.11 -0.428151
5.12 -0.422632
5.13 -0.416817
5.14 -0.410713
5.15 -0.40432
5.16 -0.397628
5.17 -0.390617
5.18 -0.383223
5.19 -0.375429
5.2 -0.367203
5.21 -0.358505
5.22 -0.349293
5.23 -0.339532
5.24 -0.329176
5.25 -0.318164
5.26 -0.306542
5.27 -0.294318
5.28 -0.281515
5.29 -0.268168
5.3 -0.254329
5.31 -0.240038
5.32 -0.225404
5.33 -0.210536
5.34 -0.195536
5.35 -0.180513
5.36 -0.165577
5.37 -0.150845
5.38 -0.136463
5.39 -0.122508
5.4 -0.10907
5.41 -0.0962263
5.42 -0.0840405
5.43 -0.072561
5.44 -0.0618705
5.45 -0.0519732
5.46 -0.0428277
5.47 -0.0344156
5.48 -0.0267059
5.49 -0.0196565
5.5 -0.0132184
5.51 -0.00739052
5.52 -0.00204437
5.53 0.00287942
5.54 0.00743736
5.55 0.0116808
5.56 0.0156541
5.57 0.0193818
5.58 0.0228915
5.59 0.026211
5.6 0.0293444
5.61 0.032287
5.62 0.0350264
5.63 0.0375442
5.64 0.0397892
5.65 0.0417591
5.66 0.0434336
5.67 0.0447939
5.68 0.0458269
5.69 0.0465278
5.7 0.0468873
5.71 0.0469156
5.72 0.0466664
5.73 0.0461812
5.74 0.0455122
5.75 0.0447212
5.76 0.0438784
5.77 0.0430699
5.78 0.0423825
5.79 0.041895
5.8 0.0416839
5.81 0.0418197
5.82 0.0423635
5.83 0.0433817
5.84 0.0449384
5.85 0.0470104
5.86 0.0495969
5.87 0.0526796
5.88 0.0562233
5.89 0.0601771
5.9 0.0644981
5.91 0.0690781
5.92 0.0738176
5.93 0.0786222
5.94 0.083396
5.95 0.0880448
5.96 0.0924737
5.97 0.0965732
5.98 0.100302
5.99 0.103614
6 0.10648
6.01 0.108889
6.02 0.110853
6.03 0.112373
6.04 0.113523
6.05 0.114391
6.06 0.11506
6.07 0.115626
6.08 0.116192
6.09 0.116864
6.1 0.11778
6.11 0.119021
6.12 0.120673
6.13 0.122805
6.14 0.125468
6.15 0.128694
6.16 0.132523
6.17 0.136928
6.18 0.141826
6.19 0.147147
6.2 0.152794
6.21 0.158652
6.22 0.164588
6.23 0.170431
6.24 0.17602
6.25 0.181197
6.26 0.185806
6.27 0.189699
6.28 0.192741
6.29 0.194755
6.3 0.19562
6.31 0.195329
6.32 0.193842
6.33 0.191144
6.34 0.18725
6.35 0.182203
6.36 0.175967
6.37 0.168751
6.38 0.160687
6.39 0.15191
6.4 0.142568
6.41 0.132816
6.42 0.122808
6.43 0.112717
6.44 0.102705
6.45 0.0929047
6.46 0.0834325
6.47 0.0743856
6.48 0.0658395
6.49 0.0579019
6.5 0.0505604
6.51 0.043801
6.52 0.0376006
6.53 0.0319156
6.54 0.0266853
6.55 0.0218434
6.56 0.0173084
6.57 0.0129555
6.58 0.00869073
6.59 0.00442288
6.6 6.76324e-05
6.61 -0.00444904
6.62 -0.00921013
6.63 -0.0142517
6.64 -0.0195874
6.65 -0.0252197
6.66 -0.0311313
6.67 -0.037286
6.68 -0.0436321
6.69 -0.0500984
6.7 -0.0565805
6.71 -0.062982
6.72 -0.0692
6.73 -0.0751283
6.74 -0.0806613
6.75 -0.085654
6.76 -0.090014
6.77 -0.0936826
6.78 -0.0965921
6.79 -0.0986893
6.8 -0.0999377
6.81 -0.10031
6.82 -0.09972
6.83 -0.0982796
6.84 -0.0960234
6.85 -0.0929986
6.86 -0.089264
6.87 -0.0848869
6.88 -0.0799106
6.89 -0.074427
6.9 -0.0685436
6.91 -0.0623335
6.92 -0.0558644
6.93 -0.0491958
6.94 -0.0423776
6.95 -0.0354391
6.96 -0.0284194
6.97 -0.0213297
6.98 -0.0141688
6.99 -0.00692401
7 0.000427702
7.01 0.00792701
7.02 0.015622
7.03 0.023547
7.04 0.0317478
7.05 0.0402694
7.06 0.0491538
7.07 0.0584375
7.08 0.0681962
7.09 0.0784117
7.1 0.0890841
7.11 0.100207
7.12 0.111763
7.13 0.12372
7.14 0.136045
7.15 0.148685
7.16 0.161541
7.17 0.174533
7.18 0.187575
7.19 0.200572
7.2 0.213426
7.21 0.226005
7.22 0.238213
7.23 0.24996
7.24 0.26115
7.25 0.271695
7.26 0.281516
7.27 0.290513
7.28 0.298563
7.29 0.305685
7.3 0.311839
7.31 0.31699
7.32 0.321117
7.33 0.324204
7.34 0.326161
7.35 0.327038
7.36 0.326881
7.37 0.325704
7.38 0.323524
7.39 0.320362
7.4 0.316225
7.41 0.311059
7.42 0.304986
7.43 0.298026
7.44 0.290202
7.45 0.281536
7.46 0.272046
7.47 0.261697
7.48 0.250528
7.49 0.238596
7.5 0.22592
7.51 0.212522
7.52 0.198425
7.53 0.183652
7.54 0.168171
7.55 0.152094
7.56 0.135464
7.57 0.118332
7.58 0.100755
7.59 0.0827976
7.6 0.0645194
7.61 0.0460144
7.62 0.027389
7.63 0.00873937
7.64 -0.00983246
7.65 -0.0282195
7.66 -0.0463108
7.67 -0.0639346
7.68 -0.0810089
7.69 -0.0974229
7.7 -0.113067
7.71 -0.127835
7.72 -0.141628
7.73 -0.154303
7.74 -0.165743
7.75 -0.17596
7.76 -0.184904
7.77 -0.192537
7.78 -0.198842
7.79 -0.203813
7.8 -0.207337
7.81 -0.20956
7.82 -0.210557
7.83 -0.210393
7.84 -0.20915
7.85 -0.206922
7.86 -0.203787
7.87 -0.19984
7.88 -0.195274
7.89 -0.190211
7.9 -0.184779
7.91 -0.179099
7.92 -0.173291
7.93 -0.167473
7.94 -0.16176
7.95 -0.156239
7.96 -0.150982
7.97 -0.146049
7.98 -0.141484
7.99 -0.137323
8 -0.133604
8.01 -0.130284
8.02 -0.127339
8.03 -0.124736
8.04 -0.122429
8.05 -0.120366
8.06 -0.118498
8.07 -0.116745
8.08 -0.115038
8.09 -0.113318
8.1 -0.111529
8.11 -0.109623
8.12 -0.107558
8.13 -0.10529
8.14 -0.102821
8.15 -0.100151
8.16 -0.0972919
8.17 -0.0942686
8.18 -0.0911157
8.19 -0.0878756
8.2 -0.0846106
8.21 -0.0813831
8.22 -0.0782539
8.23 -0.0752829
8.24 -0.0725272
8.25 -0.0700388
8.26 -0.0678981
8.27 -0.0661024
8.28 -0.0646673
8.29 -0.0635939
8.3 -0.0628683
8.31 -0.0624611
8.32 -0.0623398
8.33 -0.0624353
8.34 -0.0626566
8.35 -0.062919
8.36 -0.0631298
8.37 -0.0631918
8.38 -0.0630061
8.39 -0.0624274
8.4 -0.0613909
8.41 -0.0598183
8.42 -0.0576407
8.43 -0.0548039
8.44 -0.0512707
8.45 -0.0469898
8.46 -0.0419463
8.47 -0.0362182
8.48 -0.0298515
8.49 -0.0229104
8.5 -0.015476
8.51 -0.00764391
8.52 0.000495666
8.53 0.00878996
8.54 0.0171125
8.55 0.0253417
8.56 0.0333595
8.57 0.0410549
8.58 0.0483091
8.59 0.0549998
8.6 0.0610963
8.61 0.0665494
8.62 0.0713289
8.63 0.0754244
8.64 0.0788443
8.65 0.0815628
8.66 0.0836685
8.67 0.0852418
8.68 0.0863547
8.69 0.0870865
8.7 0.0875209
8.71 0.0877389
8.72 0.087822
8.73 0.0878609
8.74 0.0879171
8.75 0.0880391
8.76 0.0882601
8.77 0.0885969
8.78 0.0890557
8.79 0.0896086
8.8 0.0902106
8.81 0.090806
8.82 0.0913259
8.83 0.0916904
8.84 0.0918076
8.85 0.0915422
8.86 0.0908285
8.87 0.0895767
8.88 0.0877043
8.89 0.0851387
8.9 0.0818202
8.91 0.0776508
8.92 0.0726127
8.93 0.0667443
8.94 0.060061
8.95 0.0525969
8.96 0.0444035
8.97 0.0355479
8.98 0.0260556
8.99 0.0160966
9 0.00577301
9.01 -0.00480935
9.02 -0.0155444
9.03 -0.026329
9.04 -0.0370588
9.05 -0.0476333
9.06 -0.0579843
9.07 -0.0680538
9.08 -0.0777993
9.09 -0.0871946
9.1 -0.0962293
9.11 -0.104873
9.12 -0.113183
9.13 -0.121198
9.14 -0.128961
9.15 -0.136523
9.16 -0.143937
9.17 -0.151254
9.18 -0.158529
9.19 -0.165811
9.2 -0.173131
9.21 -0.180511
9.22 -0.187956
9.23 -0.195458
9.24 -0.202993
9.25 -0.210511
9.26 -0.217954
9.27 -0.225251
9.28 -0.23232
9.29 -0.239071
9.3 -0.245392
9.31 -0.251143
9.32 -0.256266
9.33 -0.260669
9.34 -0.264269
9.35 -0.266994
9.36 -0.268788
9.37 -0.269522
9.38 -0.269224
9.39 -0.267921
9.4 -0.26563
9.41 -0.262384
9.42 -0.258233
9.43 -0.253224
9.44 -0.247385
9.45 -0.240884
9.46 -0.23381
9.47 -0.226258
9.48 -0.218319
9.49 -0.210078
9.5 -0.201603
9.51 -0.192977
9.52 -0.18426
9.53 -0.175487
9.54 -0.16668
9.55 -0.157842
9.56 -0.148961
9.57 -0.14
9.58 -0.13092
9.59 -0.121668
9.6 -0.112184
9.61 -0.1024
9.62 -0.0922513
9.63 -0.0816404
9.64 -0.0705025
9.65 -0.0588122
9.66 -0.0465315
9.67 -0.0336363
9.68 -0.0201181
9.69 -0.00598501
9.7 0.00880069
9.71 0.0241217
9.72 0.0399135
9.73 0.0560979
9.74 0.0725837
9.75 0.0892696
9.76 0.106045
9.77 0.12278
9.78 0.139354
9.79 0.155657
9.8 0.171582
9.81 0.187034
9.82 0.201927
9.83 0.216116
9.84 0.229598
9.85 0.242345
9.86 0.254334
9.87 0.265559
9.88 0.276029
9.89 0.285737
9.9 0.294697
9.91 0.303008
9.92 0.310718
9.93 0.317881
9.94 0.324547
9.95 0.330766
9.96 0.336548
9.97 0.34196
9.98 0.347036
9.99 0.35179
10 0.356225
10.01 0.36033
10.02 0.364076
10.03 0.367404
10.04 0.370303
10.05 0.372726
10.06 0.374621
10.07 0.375935
10.08 0.376618
10.09 0.376561
10.1 0.375753
10.11 0.374187
10.12 0.371849
10.13 0.368734
10.14 0.364853
10.15 0.360221
10.16 0.354832
10.17 0.34882
10.18 0.342262
10.19 0.335244
10.2 0.327867
10.21 0.320235
10.22 0.312458
10.23 0.30467
10.24 0.296987
10.25 0.289515
10.26 0.282353
10.27 0.275588
10.28 0.269299
10.29 0.263605
10.3 0.258489
10.31 0.253973
10.32 0.250058
10.33 0.246727
10.34 0.243947
10.35 0.241694
10.36 0.239888
10.37 0.238422
10.38 0.237206
10.39 0.236142
10.4 0.23513
10.41 0.234065
10.42 0.232818
10.43 0.231298
10.44 0.229415
10.45 0.227087
10.46 0.22424
10.47 0.220814
10.48 0.216725
10.49 0.21192
10.5 0.206419
10.51 0.200212
10.52 0.193301
10.53 0.185694
10.54 0.177411
10.55 0.168417
10.56 0.158804
10.57 0.148621
10.58 0.137907
10.59 0.126706
10.6 0.115061
10.61 0.102999
10.62 0.0905512
10.63 0.077788
10.64 0.0647451
10.65 0.051456
10.66 0.0379523
10.67 0.0242635
10.68 0.0104058
10.69 -0.00358067
10.7 -0.0176657
10.71 -0.0318231
10.72 -0.0460264
10.73 -0.0602483
10.74 -0.0744597
10.75 -0.088625
10.76 -0.102715
10.77 -0.1167
10.78 -0.130549
10.79 -0.144232
10.8 -0.157719
10.81 -0.170964
10.82 -0.183948
10.83 -0.19666
10.84 -0.209083
10.85 -0.221206
10.86 -0.233021
10.87 -0.244523
10.88 -0.255691
10.89 -0.266567
10.9 -0.277167
10.91 -0.28751
10.92 -0.297618
10.93 -0.307517
10.94 -0.317222
10.95 -0.326767
10.96 -0.336183
10.97 -0.345492
10.98 -0.35471
10.99 -0.363848
11 -0.372909
11.01 -0.38188
11.02 -0.390758
11.03 -0.39952
11.04 -0.408136
11.05 -0.416569
11.06 -0.424773
11.07 -0.432678
11.08 -0.440217
11.09 -0.447344
11.1 -0.453996
11.11 -0.460108
11.12 -0.465617
11.13 -0.470463
11.14 -0.474503
11.15 -0.47776
11.16 -0.480196
11.17 -0.481779
11.18 -0.482485
11.19 -0.482301
11.2 -0.48118
11.21 -0.47911
11.22 -0.47617
11.23 -0.472387
11.24 -0.467791
11.25 -0.462423
11.26 -0.456324
11.27 -0.44948
11.28 -0.441998
11.29 -0.43394
11.3 -0.42535
11.31 -0.416274
11.32 -0.406749
11.33 -0.396798
11.34 -0.386434
11.35 -0.375712
11.36 -0.364646
11.37 -0.353245
11.38 -0.341514
11.39 -0.329449
11.4 -0.317017
11.41 -0.304227
11.42 -0.291079
11.43 -0.277563
11.44 -0.26367
11.45 -0.249392
11.46 -0.234719
11.47 -0.219624
11.48 -0.204153
11.49 -0.188319
11.5 -0.172144
11.51 -0.155655
11.52 -0.138885
11.53 -0.121859
11.54 -0.10464
11.55 -0.0872872
11.56 -0.0698565
11.57 -0.0524055
11.58 -0.0349934
11.59 -0.017682
11.6 -0.000551361
11.61 0.0163539
11.62 0.0329809
11.63 0.0492808
11.64 0.0652097
11.65 0.0807289
11.66 0.095774
11.67 0.110321
11.68 0.124374
11.69 0.137917
11.7 0.150942
11.71 0.163443
11.72 0.175418
11.73 0.186812
11.74 0.197688
11.75 0.208055
11.76 0.217918
11.77 0.227285
11.78 0.236162
11.79 0.244529
11.8 0.252386
11.81 0.259764
11.82 0.266663
11.83 0.27308
11.84 0.279012
11.85 0.284452
11.86 0.289338
11.87 0.293711
11.88 0.297564
11.89 0.30089
11.9 0.303677
11.91 0.305918
11.92 0.307579
11.93 0.308633
11.94 0.309114
11.95 0.309016
11.96 0.308332
11.97 0.307056
11.98 0.305181
11.99 0.302642
12 0.299474
12.01 0.295683
12.02 0.291255
12.03 0.286179
12.04 0.280441
12.05 0.273999
12.06 0.266798
12.07 0.258875
12.08 0.250208
12.09 0.240776
12.1 0.230559
12.11 0.219538
12.12 0.207624
12.13 0.19485
12.14 0.181234
12.15 0.166779
12.16 0.151494
12.17 0.135395
12.18 0.118496
