# xPDFsuite Configuration #
[PDF]
wavelength = 0.1
dataformat = QA
inputfile = BiMsol6_insitu_700 C-00470.xy
backgroundfile = Quartz2mm-dist500-00000.xy
mode = xray
bgscale = 0.0042
composition = Bi2Fe4O9
outputtype = gr
qmaxinst = 24.998449118
qmin = 0.1
qmax = 21.4986662415
rmax = 80.0
rmin = 0.0
rstep = 0.01
rpoly = 0.9

[Misc]
inputdir = C:/Data/Seafile/CPH/Beamtime/Desy Oct 20/In situ data/Processed/BiMsol6/PDF
savedir = C:/Data/Seafile/CPH/Beamtime/Desy Oct 20/In situ data/PDF/BiMsol6
backgroundfilefull = C:/Data/Seafile/CPH/Beamtime/Desy Oct 20/In situ data/Processed/Standard_Empty_Cap/Quartz2mm-dist500-00000.xy

#### start data
#S 1
#L r($\AA$)  G($\AA^{-2}$)
0 0
0.01 0.00638583
0.02 0.0124101
0.03 0.0177632
0.04 0.0221677
0.05 0.0253905
0.06 0.027254
0.07 0.0275642
0.08 0.0262646
0.09 0.0234988
0.1 0.0193846
0.11 0.0141051
0.12 0.00790018
0.13 0.00105587
0.14 -0.0061061
0.15 -0.0131814
0.16 -0.0198288
0.17 -0.0257284
0.18 -0.0305936
0.19 -0.0341853
0.2 -0.0362579
0.21 -0.0366445
0.22 -0.0354444
0.23 -0.032725
0.24 -0.0286324
0.25 -0.0233857
0.26 -0.0172695
0.27 -0.0106077
0.28 -0.00386456
0.29 0.00254668
0.3 0.00822514
0.31 0.0127902
0.32 0.0159001
0.33 0.0172095
0.34 0.0163813
0.35 0.0134709
0.36 0.00847868
0.37 0.00150992
0.38 -0.00722432
0.39 -0.01741
0.4 -0.0286821
0.41 -0.0404183
0.42 -0.0520084
0.43 -0.0628318
0.44 -0.0722474
0.45 -0.0796171
0.46 -0.0842668
0.47 -0.085328
0.48 -0.082617
0.49 -0.0757856
0.5 -0.0646092
0.51 -0.0490011
0.52 -0.0290221
0.53 -0.00461111
0.54 0.023671
0.55 0.0550891
0.56 0.0889595
0.57 0.124484
0.58 0.160773
0.59 0.196858
0.6 0.231499
0.61 0.263738
0.62 0.292606
0.63 0.317197
0.64 0.336697
0.65 0.350413
0.66 0.357376
0.67 0.357204
0.68 0.350089
0.69 0.336052
0.7 0.315303
0.71 0.288231
0.72 0.255394
0.73 0.217028
0.74 0.174647
0.75 0.129243
0.76 0.0818651
0.77 0.0335989
0.78 -0.0144639
0.79 -0.0611407
0.8 -0.10525
0.81 -0.146001
0.82 -0.182625
0.83 -0.214498
0.84 -0.241152
0.85 -0.262286
0.86 -0.277192
0.87 -0.286459
0.88 -0.290419
0.89 -0.289471
0.9 -0.284151
0.91 -0.275099
0.92 -0.262959
0.93 -0.248546
0.94 -0.232902
0.95 -0.216836
0.96 -0.201124
0.97 -0.186483
0.98 -0.17355
0.99 -0.163108
1 -0.155455
1.01 -0.150798
1.02 -0.149271
1.03 -0.150881
1.04 -0.155511
1.05 -0.163002
1.06 -0.173122
1.07 -0.1852
1.08 -0.198752
1.09 -0.213261
1.1 -0.228197
1.11 -0.243037
1.12 -0.257201
1.13 -0.270222
1.14 -0.281758
1.15 -0.291523
1.16 -0.299318
1.17 -0.305033
1.18 -0.308613
1.19 -0.309982
1.2 -0.309517
1.21 -0.307459
1.22 -0.304098
1.23 -0.299766
1.24 -0.294817
1.25 -0.289618
1.26 -0.284573
1.27 -0.280005
1.28 -0.276184
1.29 -0.273327
1.3 -0.271587
1.31 -0.271058
1.32 -0.271875
1.33 -0.273831
1.34 -0.276788
1.35 -0.280554
1.36 -0.28489
1.37 -0.289526
1.38 -0.294151
1.39 -0.298422
1.4 -0.302055
1.41 -0.304795
1.42 -0.30642
1.43 -0.306761
1.44 -0.305706
1.45 -0.303046
1.46 -0.298968
1.47 -0.293582
1.48 -0.287052
1.49 -0.279599
1.5 -0.27149
1.51 -0.263026
1.52 -0.254584
1.53 -0.246517
1.54 -0.239151
1.55 -0.232786
1.56 -0.227687
1.57 -0.224068
1.58 -0.222259
1.59 -0.222209
1.6 -0.223886
1.61 -0.227215
1.62 -0.232048
1.63 -0.238167
1.64 -0.245321
1.65 -0.253161
1.66 -0.261237
1.67 -0.269152
1.68 -0.276509
1.69 -0.282914
1.7 -0.288001
1.71 -0.291266
1.72 -0.292512
1.73 -0.291586
1.74 -0.28836
1.75 -0.282786
1.76 -0.274892
1.77 -0.264733
1.78 -0.25239
1.79 -0.238329
1.8 -0.222871
1.81 -0.206379
1.82 -0.189247
1.83 -0.171884
1.84 -0.154746
1.85 -0.138269
1.86 -0.1228
1.87 -0.108648
1.88 -0.0960705
1.89 -0.0852563
1.9 -0.0763554
1.91 -0.0695815
1.92 -0.0646942
1.93 -0.0615791
1.94 -0.0600584
1.95 -0.0599005
1.96 -0.0608299
1.97 -0.0625691
1.98 -0.0647303
1.99 -0.0669498
2 -0.0689148
2.01 -0.07034
2.02 -0.0709794
2.03 -0.0706335
2.04 -0.0690336
2.05 -0.0662418
2.06 -0.0622731
2.07 -0.057211
2.08 -0.0512047
2.09 -0.0444631
2.1 -0.0372392
2.11 -0.0298888
2.12 -0.0227785
2.13 -0.0162628
2.14 -0.0106963
2.15 -0.00641984
2.16 -0.00374751
2.17 -0.0031849
2.18 -0.00477564
2.19 -0.00865253
2.2 -0.0148949
2.21 -0.0235106
2.22 -0.034435
2.23 -0.0476216
2.24 -0.0628796
2.25 -0.079777
2.26 -0.0979862
2.27 -0.117142
2.28 -0.136853
2.29 -0.156715
2.3 -0.17626
2.31 -0.19508
2.32 -0.212824
2.33 -0.22918
2.34 -0.243884
2.35 -0.25673
2.36 -0.267506
2.37 -0.276033
2.38 -0.28249
2.39 -0.28695
2.4 -0.28955
2.41 -0.290478
2.42 -0.289968
2.43 -0.288216
2.44 -0.285626
2.45 -0.282543
2.46 -0.279279
2.47 -0.276135
2.48 -0.273389
2.49 -0.27131
2.5 -0.270191
2.51 -0.27012
2.52 -0.271198
2.53 -0.273478
2.54 -0.27696
2.55 -0.281596
2.56 -0.287363
2.57 -0.294064
2.58 -0.301482
2.59 -0.309418
2.6 -0.317658
2.61 -0.325981
2.62 -0.334164
2.63 -0.341938
2.64 -0.349136
2.65 -0.355594
2.66 -0.361178
2.67 -0.365786
2.68 -0.36935
2.69 -0.371769
2.7 -0.373061
2.71 -0.373326
2.72 -0.37263
2.73 -0.371065
2.74 -0.368738
2.75 -0.365769
2.76 -0.36224
2.77 -0.358349
2.78 -0.354215
2.79 -0.349946
2.8 -0.345638
2.81 -0.341368
2.82 -0.3372
2.83 -0.333177
2.84 -0.329302
2.85 -0.32557
2.86 -0.321956
2.87 -0.318425
2.88 -0.314927
2.89 -0.311398
2.9 -0.307777
2.91 -0.304004
2.92 -0.300026
2.93 -0.295796
2.94 -0.291273
2.95 -0.286416
2.96 -0.281195
2.97 -0.275629
2.98 -0.269724
2.99 -0.26349
3 -0.256946
3.01 -0.250111
3.02 -0.242978
3.03 -0.235584
3.04 -0.227938
3.05 -0.220036
3.06 -0.211858
3.07 -0.203372
3.08 -0.194515
3.09 -0.185191
3.1 -0.175348
3.11 -0.164892
3.12 -0.15372
3.13 -0.14172
3.14 -0.128782
3.15 -0.114697
3.16 -0.0994104
3.17 -0.0828704
3.18 -0.0650123
3.19 -0.0457942
3.2 -0.0252019
3.21 -0.00322436
3.22 0.0201768
3.23 0.044778
3.24 0.0704514
3.25 0.0970361
3.26 0.12434
3.27 0.152144
3.28 0.180205
3.29 0.208214
3.3 0.235889
3.31 0.262951
3.32 0.289124
3.33 0.314142
3.34 0.337741
3.35 0.359507
3.36 0.379405
3.37 0.397278
3.38 0.413002
3.39 0.426494
3.4 0.43771
3.41 0.446505
3.42 0.452943
3.43 0.457227
3.44 0.459468
3.45 0.459803
3.46 0.458392
3.47 0.455411
3.48 0.450912
3.49 0.445263
3.5 0.43866
3.51 0.431287
3.52 0.423321
3.53 0.414921
3.54 0.406224
3.55 0.397367
3.56 0.388465
3.57 0.379595
3.58 0.370816
3.59 0.362168
3.6 0.353674
3.61 0.345365
3.62 0.337225
3.63 0.329247
3.64 0.321424
3.65 0.313752
3.66 0.306228
3.67 0.298867
3.68 0.291694
3.69 0.284727
3.7 0.278006
3.71 0.271585
3.72 0.265526
3.73 0.259902
3.74 0.254849
3.75 0.250427
3.76 0.246711
3.77 0.243788
3.78 0.241738
3.79 0.240635
3.8 0.240575
3.81 0.241676
3.82 0.243879
3.83 0.2472
3.84 0.251635
3.85 0.257164
3.86 0.263749
3.87 0.271408
3.88 0.280012
3.89 0.289436
3.9 0.299581
3.91 0.310336
3.92 0.321585
3.93 0.333214
3.94 0.345106
3.95 0.357106
3.96 0.3691
3.97 0.380975
3.98 0.39263
3.99 0.403967
4 0.414865
4.01 0.425244
4.02 0.435055
4.03 0.444236
4.04 0.452733
4.05 0.460497
4.06 0.467479
4.07 0.473549
4.08 0.478758
4.09 0.483071
4.1 0.486454
4.11 0.488873
4.12 0.490297
4.13 0.49063
4.14 0.489841
4.15 0.487961
4.16 0.484966
4.17 0.480837
4.18 0.475559
4.19 0.469123
4.2 0.461401
4.21 0.452529
4.22 0.442533
4.23 0.431443
4.24 0.419299
4.25 0.406151
4.26 0.392016
4.27 0.376955
4.28 0.361106
4.29 0.34455
4.3 0.327369
4.31 0.309646
4.32 0.291462
4.33 0.272865
4.34 0.253966
4.35 0.234834
4.36 0.215525
4.37 0.196081
4.38 0.176538
4.39 0.156915
4.4 0.137224
4.41 0.117473
4.42 0.0976549
4.43 0.0777577
4.44 0.0577657
4.45 0.0376618
4.46 0.0174168
4.47 -0.00297413
4.48 -0.0235123
4.49 -0.0441938
4.5 -0.065004
4.51 -0.0859162
4.52 -0.106891
4.53 -0.127868
4.54 -0.148771
4.55 -0.169518
4.56 -0.190017
4.57 -0.210166
4.58 -0.229855
4.59 -0.248917
4.6 -0.26725
4.61 -0.284766
4.62 -0.301361
4.63 -0.316944
4.64 -0.331435
4.65 -0.34475
4.66 -0.356736
4.67 -0.367491
4.68 -0.377011
4.69 -0.385318
4.7 -0.392451
4.71 -0.398469
4.72 -0.403386
4.73 -0.40733
4.74 -0.41046
4.75 -0.412894
4.76 -0.414753
4.77 -0.416163
4.78 -0.417246
4.79 -0.41811
4.8 -0.418896
4.81 -0.4197
4.82 -0.420602
4.83 -0.421669
4.84 -0.422948
4.85 -0.424487
4.86 -0.426298
4.87 -0.428361
4.88 -0.430653
4.89 -0.433138
4.9 -0.43577
4.91 -0.438493
4.92 -0.441241
4.93 -0.443939
4.94 -0.44652
4.95 -0.448919
4.96 -0.451077
4.97 -0.452938
4.98 -0.454437
4.99 -0.45552
5 -0.456184
5.01 -0.456408
5.02 -0.45618
5.03 -0.455494
5.04 -0.454351
5.05 -0.452712
5.06 -0.450623
5.07 -0.4481
5.08 -0.445151
5.09 -0.441783
5.1 -0.437998
5.11 -0.433779
5.12 -0.429097
5.13 -0.423974
5.14 -0.41839
5.15 -0.412322
5.16 -0.405745
5.17 -0.398631
5.18 -0.390896
5.19 -0.382547
5.2 -0.373574
5.21 -0.36396
5.22 -0.353694
5.23 -0.342774
5.24 -0.331191
5.25 -0.318923
5.26 -0.306064
5.27 -0.292656
5.28 -0.278755
5.29 -0.264424
5.3 -0.249737
5.31 -0.234759
5.32 -0.2196
5.33 -0.20436
5.34 -0.189127
5.35 -0.173991
5.36 -0.159034
5.37 -0.14434
5.38 -0.130015
5.39 -0.116087
5.4 -0.102604
5.41 -0.0896013
5.42 -0.0771018
5.43 -0.0651186
5.44 -0.0536881
5.45 -0.0427933
5.46 -0.0323918
5.47 -0.0224623
5.48 -0.0129804
5.49 -0.00392026
5.5 0.00474191
5.51 0.0129881
5.52 0.0208792
5.53 0.028425
5.54 0.0356279
5.55 0.0424826
5.56 0.0489764
5.57 0.0550662
5.58 0.0607177
5.59 0.0659218
5.6 0.0706424
5.61 0.0748427
5.62 0.0784871
5.63 0.0815435
5.64 0.0839174
5.65 0.0856516
5.66 0.0867463
5.67 0.0872083
5.68 0.0870572
5.69 0.0863262
5.7 0.0850415
5.71 0.0832599
5.72 0.0810947
5.73 0.0786307
5.74 0.0759605
5.75 0.0731818
5.76 0.0703946
5.77 0.0677166
5.78 0.0652457
5.79 0.0630658
5.8 0.0612524
5.81 0.0598677
5.82 0.058959
5.83 0.058574
5.84 0.0587514
5.85 0.0594382
5.86 0.0606072
5.87 0.0622148
5.88 0.0642034
5.89 0.0665032
5.9 0.0690477
5.91 0.0717279
5.92 0.0744498
5.93 0.0771279
5.94 0.0796829
5.95 0.0820439
5.96 0.0841456
5.97 0.0859185
5.98 0.0873646
5.99 0.0884793
6 0.089276
6.01 0.0897868
6.02 0.0900607
6.03 0.0901553
6.04 0.0901665
6.05 0.090191
6.06 0.0903241
6.07 0.0906631
6.08 0.0913032
6.09 0.0923383
6.1 0.0939004
6.11 0.0960073
6.12 0.0987025
6.13 0.10201
6.14 0.105932
6.15 0.110448
6.16 0.115546
6.17 0.121143
6.18 0.127117
6.19 0.133361
6.2 0.139751
6.21 0.146153
6.22 0.152424
6.23 0.158371
6.24 0.163871
6.25 0.168789
6.26 0.172999
6.27 0.176394
6.28 0.178883
6.29 0.18034
6.3 0.180703
6.31 0.180017
6.32 0.178291
6.33 0.175554
6.34 0.171859
6.35 0.167279
6.36 0.161831
6.37 0.155708
6.38 0.149035
6.39 0.141934
6.4 0.134529
6.41 0.126941
6.42 0.119286
6.43 0.111684
6.44 0.104228
6.45 0.096989
6.46 0.090024
6.47 0.0833704
6.48 0.0770477
6.49 0.0710879
6.5 0.065448
6.51 0.0600876
6.52 0.0549621
6.53 0.0500184
6.54 0.0451974
6.55 0.0404375
6.56 0.03567
6.57 0.0308352
6.58 0.0258855
6.59 0.020783
6.6 0.0155017
6.61 0.0100294
6.62 0.00435324
6.63 -0.00149605
6.64 -0.00747761
6.65 -0.0135438
6.66 -0.0196356
6.67 -0.0256843
6.68 -0.0316101
6.69 -0.0373064
6.7 -0.042704
6.71 -0.0477226
6.72 -0.0522864
6.73 -0.0563265
6.74 -0.0597836
6.75 -0.0625606
6.76 -0.0646366
6.77 -0.0660214
6.78 -0.0667104
6.79 -0.0667125
6.8 -0.0660496
6.81 -0.0647504
6.82 -0.0628063
6.83 -0.0603388
6.84 -0.0574072
6.85 -0.0540736
6.86 -0.0504008
6.87 -0.0464497
6.88 -0.0422667
6.89 -0.0379105
6.9 -0.0334337
6.91 -0.0288672
6.92 -0.0242319
6.93 -0.019538
6.94 -0.0147851
6.95 -0.00995217
6.96 -0.00502351
6.97 3.06663e-05
6.98 0.00524633
6.99 0.0106636
7 0.0163248
7.01 0.0222889
7.02 0.0286073
7.03 0.0352955
7.04 0.0423824
7.05 0.0498891
7.06 0.0578275
7.07 0.0661998
7.08 0.0750395
7.09 0.0842853
7.1 0.0938989
7.11 0.103838
7.12 0.114051
7.13 0.124478
7.14 0.135058
7.15 0.145711
7.16 0.156353
7.17 0.166909
7.18 0.177302
7.19 0.187461
7.2 0.197315
7.21 0.20676
7.22 0.215756
7.23 0.224259
7.24 0.232227
7.25 0.23962
7.26 0.246408
7.27 0.252549
7.28 0.257981
7.29 0.26275
7.3 0.266845
7.31 0.270263
7.32 0.272997
7.33 0.275046
7.34 0.276349
7.35 0.276933
7.36 0.276815
7.37 0.275988
7.38 0.274439
7.39 0.272155
7.4 0.269105
7.41 0.265205
7.42 0.260507
7.43 0.254992
7.44 0.248636
7.45 0.241419
7.46 0.233324
7.47 0.224272
7.48 0.214273
7.49 0.203366
7.5 0.191557
7.51 0.178859
7.52 0.165293
7.53 0.150887
7.54 0.135605
7.55 0.119596
7.56 0.102926
7.57 0.0856717
7.58 0.0679202
7.59 0.0497682
7.6 0.0313103
7.61 0.0126783
7.62 -0.00599111
7.63 -0.0245728
7.64 -0.042939
7.65 -0.0609608
7.66 -0.0785097
7.67 -0.0953794
7.68 -0.111502
7.69 -0.126767
7.7 -0.141071
7.71 -0.154319
7.72 -0.16643
7.73 -0.177274
7.74 -0.186765
7.75 -0.194951
7.76 -0.201815
7.77 -0.207356
7.78 -0.211588
7.79 -0.214543
7.8 -0.216151
7.81 -0.216587
7.82 -0.215951
7.83 -0.214334
7.84 -0.211837
7.85 -0.208568
7.86 -0.204623
7.87 -0.200113
7.88 -0.195208
7.89 -0.190023
7.9 -0.18467
7.91 -0.179256
7.92 -0.173875
7.93 -0.168632
7.94 -0.163599
7.95 -0.158831
7.96 -0.15437
7.97 -0.150245
7.98 -0.14647
7.99 -0.143055
8 -0.140006
8.01 -0.137267
8.02 -0.134801
8.03 -0.132564
8.04 -0.130509
8.05 -0.128583
8.06 -0.126737
8.07 -0.12491
8.08 -0.123053
8.09 -0.121126
8.1 -0.119097
8.11 -0.116943
8.12 -0.114647
8.13 -0.112195
8.14 -0.109611
8.15 -0.106914
8.16 -0.104135
8.17 -0.101308
8.18 -0.0984776
8.19 -0.0956951
8.2 -0.0930159
8.21 -0.0904854
8.22 -0.088148
8.23 -0.0860427
8.24 -0.0842008
8.25 -0.0826452
8.26 -0.0814195
8.27 -0.0804859
8.28 -0.0798265
8.29 -0.0794102
8.3 -0.0791931
8.31 -0.0791193
8.32 -0.079122
8.33 -0.0791128
8.34 -0.0790039
8.35 -0.0787078
8.36 -0.0781362
8.37 -0.0772027
8.38 -0.0758254
8.39 -0.0738662
8.4 -0.0713093
8.41 -0.0681106
8.42 -0.0642364
8.43 -0.0596691
8.44 -0.054408
8.45 -0.0484403
8.46 -0.0417896
8.47 -0.0345579
8.48 -0.0268132
8.49 -0.0186358
8.5 -0.0101162
8.51 -0.00135227
8.52 0.00755683
8.53 0.0164841
8.54 0.0253251
8.55 0.033983
8.56 0.0423686
8.57 0.0504028
8.58 0.0580023
8.59 0.0650852
8.6 0.0716522
8.61 0.0776839
8.62 0.0831752
8.63 0.0881355
8.64 0.0925872
8.65 0.096526
8.66 0.100029
8.67 0.103161
8.68 0.105976
8.69 0.108531
8.7 0.11088
8.71 0.11307
8.72 0.115141
8.73 0.117141
8.74 0.119091
8.75 0.121003
8.76 0.122875
8.77 0.124697
8.78 0.126433
8.79 0.128047
8.8 0.129494
8.81 0.130719
8.82 0.131665
8.83 0.132268
8.84 0.13246
8.85 0.132126
8.86 0.131255
8.87 0.129796
8.88 0.127704
8.89 0.124948
8.9 0.121502
8.91 0.117309
8.92 0.112378
8.93 0.106757
8.94 0.100469
8.95 0.093544
8.96 0.0860216
8.97 0.0779461
8.98 0.0693149
8.99 0.0602435
9 0.0507845
9.01 0.0409898
9.02 0.0309081
9.03 0.0205845
9.04 0.0100505
9.05 -0.000655875
9.06 -0.0114947
9.07 -0.0224436
9.08 -0.0334851
9.09 -0.0446059
9.1 -0.0557957
9.11 -0.0670516
9.12 -0.0783585
9.13 -0.0897061
9.14 -0.101082
9.15 -0.112468
9.16 -0.123843
9.17 -0.135175
9.18 -0.146421
9.19 -0.157539
9.2 -0.168479
9.21 -0.179182
9.22 -0.189588
9.23 -0.199628
9.24 -0.209186
9.25 -0.218214
9.26 -0.226655
9.27 -0.234443
9.28 -0.241517
9.29 -0.247825
9.3 -0.253296
9.31 -0.257848
9.32 -0.261529
9.33 -0.264333
9.34 -0.266263
9.35 -0.267334
9.36 -0.267573
9.37 -0.266952
9.38 -0.265564
9.39 -0.263487
9.4 -0.260776
9.41 -0.257491
9.42 -0.253687
9.43 -0.249412
9.44 -0.244688
9.45 -0.2396
9.46 -0.234181
9.47 -0.228452
9.48 -0.222425
9.49 -0.216102
9.5 -0.209449
9.51 -0.202451
9.52 -0.195094
9.53 -0.187339
9.54 -0.179147
9.55 -0.170474
9.56 -0.161271
9.57 -0.151436
9.58 -0.140992
9.59 -0.12991
9.6 -0.118174
9.61 -0.105775
9.62 -0.0927174
9.63 -0.0789816
9.64 -0.0646099
9.65 -0.0496843
9.66 -0.0342641
9.67 -0.0184192
9.68 -0.00222869
9.69 0.0142211
9.7 0.0308475
9.71 0.047529
9.72 0.064172
9.73 0.0806867
9.74 0.0969885
9.75 0.113
9.76 0.128633
9.77 0.143817
9.78 0.158534
9.79 0.172753
9.8 0.186456
9.81 0.199637
9.82 0.212297
9.83 0.224398
9.84 0.236008
9.85 0.247158
9.86 0.257874
9.87 0.268182
9.88 0.278106
9.89 0.287652
9.9 0.29682
9.91 0.305641
9.92 0.314108
9.93 0.322207
9.94 0.329912
9.95 0.337188
9.96 0.343945
9.97 0.35016
9.98 0.355789
9.99 0.360775
10 0.36506
10.01 0.36859
10.02 0.371291
10.03 0.373066
10.04 0.373959
10.05 0.373951
10.06 0.373041
10.07 0.371238
10.08 0.368571
10.09 0.365016
10.1 0.36068
10.11 0.355664
10.12 0.350053
10.13 0.34394
10.14 0.337427
10.15 0.330615
10.16 0.32361
10.17 0.316542
10.18 0.309512
10.19 0.30261
10.2 0.295917
10.21 0.289503
10.22 0.283451
10.23 0.277795
10.24 0.272541
10.25 0.267695
10.26 0.26325
10.27 0.259181
10.28 0.255457
10.29 0.252059
10.3 0.248893
10.31 0.245902
10.32 0.243022
10.33 0.240192
10.34 0.23735
10.35 0.234434
10.36 0.231385
10.37 0.228167
10.38 0.224747
10.39 0.221101
10.4 0.217213
10.41 0.213076
10.42 0.208662
10.43 0.204006
10.44 0.199121
10.45 0.194022
10.46 0.188723
10.47 0.183239
10.48 0.177573
10.49 0.171727
10.5 0.165715
10.51 0.159527
10.52 0.153148
10.53 0.146557
10.54 0.139724
10.55 0.13258
10.56 0.125103
10.57 0.117254
10.58 0.108985
10.59 0.100251
10.6 0.0910095
10.61 0.0812022
10.62 0.0707725
10.63 0.0597465
10.64 0.0481183
10.65 0.0358943
10.66 0.0230945
10.67 0.00975218
10.68 -0.00412506
10.69 -0.0184364
10.7 -0.0330951
10.71 -0.048018
10.72 -0.063115
10.73 -0.0782916
10.74 -0.0934483
10.75 -0.10847
10.76 -0.123271
10.77 -0.137769
10.78 -0.151891
10.79 -0.165579
10.8 -0.178785
10.81 -0.191438
10.82 -0.203547
10.83 -0.215135
10.84 -0.226227
10.85 -0.236857
10.86 -0.247074
10.87 -0.256935
10.88 -0.266492
10.89 -0.275852
10.9 -0.285092
10.91 -0.294284
10.92 -0.303496
10.93 -0.312788
10.94 -0.322221
10.95 -0.331831
10.96 -0.341628
10.97 -0.351613
10.98 -0.36177
10.99 -0.372066
11 -0.382451
11.01 -0.392855
11.02 -0.403188
11.03 -0.413359
11.04 -0.42327
11.05 -0.432818
11.06 -0.441898
11.07 -0.45037
11.08 -0.45812
11.09 -0.465096
11.1 -0.471222
11.11 -0.476436
11.12 -0.480689
11.13 -0.483949
11.14 -0.486088
11.15 -0.487216
11.16 -0.487359
11.17 -0.486552
11.18 -0.484841
11.19 -0.482283
11.2 -0.478911
11.21 -0.474788
11.22 -0.470041
11.23 -0.46474
11.24 -0.458952
11.25 -0.45274
11.26 -0.446155
11.27 -0.43921
11.28 -0.431965
11.29 -0.424443
11.3 -0.416646
11.31 -0.408568
11.32 -0.40019
11.33 -0.391471
11.34 -0.382352
11.35 -0.372818
11.36 -0.362823
11.37 -0.352323
11.38 -0.341271
11.39 -0.32963
11.4 -0.317309
11.41 -0.304318
11.42 -0.290664
11.43 -0.276347
11.44 -0.26138
11.45 -0.245786
11.46 -0.229589
11.47 -0.212809
11.48 -0.195561
11.49 -0.177915
11.5 -0.15995
11.51 -0.141747
11.52 -0.123392
11.53 -0.104973
11.54 -0.0865869
11.55 -0.0683166
11.56 -0.0502359
11.57 -0.0324118
11.58 -0.0149022
11.59 0.00223855
11.6 0.0189319
11.61 0.0351908
11.62 0.0509995
11.63 0.0663515
11.64 0.0812487
11.65 0.0957002
11.66 0.109694
11.67 0.123259
11.68 0.136439
11.69 0.149258
11.7 0.161738
11.71 0.173899
11.72 0.185758
11.73 0.197295
11.74 0.20855
11.75 0.219522
11.76 0.230205
11.77 0.240588
11.78 0.250652
11.79 0.260354
11.8 0.269659
11.81 0.278558
11.82 0.287017
11.83 0.295
11.84 0.302474
11.85 0.309403
11.86 0.315689
11.87 0.321357
11.88 0.326385
11.89 0.33075
11.9 0.334433
11.91 0.337418
11.92 0.339661
11.93 0.34113
11.94 0.341872
11.95 0.341884
11.96 0.341161
11.97 0.339702
11.98 0.337506
11.99 0.334497
12 0.33073
12.01 0.326214
12.02 0.320942
12.03 0.314908
12.04 0.308102
12.05 0.300488
12.06 0.292013
12.07 0.282733
12.08 0.272639
12.09 0.261725
12.1 0.249986
12.11 0.237422
12.12 0.223968
12.13 0.209682
12.14 0.194608
12.15 0.178772
12.16 0.162207
12.17 0.144956
12.18 0.127057
12.19 0.108534
