# xPDFsuite Configuration #
[PDF]
wavelength = 0.1
dataformat = QA
inputfile = BiMsol6_insitu_700 C-00524.xy
backgroundfile = Quartz2mm-dist500-00000.xy
mode = xray
bgscale = 0.0042
composition = Bi2Fe4O9
outputtype = gr
qmaxinst = 24.998449118
qmin = 0.1
qmax = 21.4986662415
rmax = 80.0
rmin = 0.0
rstep = 0.01
rpoly = 0.9

[Misc]
inputdir = C:/Data/Seafile/CPH/Beamtime/Desy Oct 20/In situ data/Processed/BiMsol6/PDF
savedir = C:/Data/Seafile/CPH/Beamtime/Desy Oct 20/In situ data/PDF/BiMsol6
backgroundfilefull = C:/Data/Seafile/CPH/Beamtime/Desy Oct 20/In situ data/Processed/Standard_Empty_Cap/Quartz2mm-dist500-00000.xy

#### start data
#S 1
#L r($\AA$)  G($\AA^{-2}$)
0 0
0.01 0.00635551
0.02 0.0123536
0.03 0.0176882
0.04 0.0220847
0.05 0.0253122
0.06 0.0271944
0.07 0.027538
0.08 0.0262856
0.09 0.0235773
0.1 0.0195279
0.11 0.0143162
0.12 0.00817747
0.13 0.00139259
0.14 -0.00572359
0.15 -0.0127708
0.16 -0.0194118
0.17 -0.0253298
0.18 -0.0302399
0.19 -0.0339033
0.2 -0.0360743
0.21 -0.0365833
0.22 -0.0355224
0.23 -0.0329529
0.24 -0.0290129
0.25 -0.0239128
0.26 -0.0179278
0.27 -0.0113691
0.28 -0.00469244
0.29 0.0016967
0.3 0.00740423
0.31 0.0120545
0.32 0.0153086
0.33 0.0168229
0.34 0.0162598
0.35 0.0136632
0.36 0.00902389
0.37 0.00243447
0.38 -0.00590903
0.39 -0.0157099
0.4 -0.0266261
0.41 -0.0380567
0.42 -0.0494111
0.43 -0.0600887
0.44 -0.0694666
0.45 -0.076923
0.46 -0.0817997
0.47 -0.0832503
0.48 -0.0810808
0.49 -0.0749423
0.5 -0.064604
0.51 -0.0499675
0.52 -0.0310768
0.53 -0.00785379
0.54 0.0191741
0.55 0.0493073
0.56 0.0818965
0.57 0.11618
0.58 0.151305
0.59 0.186341
0.6 0.220103
0.61 0.251653
0.62 0.280048
0.63 0.304406
0.64 0.32393
0.65 0.337937
0.66 0.345477
0.67 0.346161
0.68 0.34015
0.69 0.327446
0.7 0.308228
0.71 0.28285
0.72 0.251832
0.73 0.215367
0.74 0.17491
0.75 0.131403
0.76 0.0858462
0.77 0.0392786
0.78 -0.00725191
0.79 -0.0526142
0.8 -0.0956685
0.81 -0.135633
0.82 -0.171758
0.83 -0.203426
0.84 -0.230168
0.85 -0.251676
0.86 -0.267248
0.87 -0.27742
0.88 -0.282484
0.89 -0.282802
0.9 -0.278861
0.91 -0.271256
0.92 -0.260577
0.93 -0.247584
0.94 -0.233267
0.95 -0.218392
0.96 -0.203695
0.97 -0.189858
0.98 -0.177491
0.99 -0.167334
1 -0.159691
1.01 -0.154774
1.02 -0.152726
1.03 -0.153569
1.04 -0.157212
1.05 -0.163521
1.06 -0.172298
1.07 -0.182928
1.08 -0.194974
1.09 -0.207963
1.1 -0.221412
1.11 -0.234842
1.12 -0.247727
1.13 -0.259633
1.14 -0.270247
1.15 -0.279303
1.16 -0.28662
1.17 -0.292094
1.18 -0.295679
1.19 -0.297305
1.2 -0.297312
1.21 -0.295915
1.22 -0.29338
1.23 -0.290003
1.24 -0.286103
1.25 -0.282009
1.26 -0.278078
1.27 -0.274591
1.28 -0.271783
1.29 -0.269836
1.3 -0.268873
1.31 -0.268963
1.32 -0.270201
1.33 -0.272387
1.34 -0.275379
1.35 -0.278987
1.36 -0.282982
1.37 -0.287107
1.38 -0.291062
1.39 -0.294535
1.4 -0.297279
1.41 -0.299068
1.42 -0.299715
1.43 -0.299082
1.44 -0.297088
1.45 -0.293563
1.46 -0.288718
1.47 -0.282682
1.48 -0.275636
1.49 -0.267812
1.5 -0.259484
1.51 -0.25096
1.52 -0.242614
1.53 -0.234777
1.54 -0.227759
1.55 -0.221839
1.56 -0.217259
1.57 -0.214207
1.58 -0.212986
1.59 -0.21351
1.6 -0.215721
1.61 -0.219518
1.62 -0.224728
1.63 -0.231115
1.64 -0.238405
1.65 -0.24623
1.66 -0.254143
1.67 -0.261749
1.68 -0.26865
1.69 -0.274464
1.7 -0.278836
1.71 -0.281271
1.72 -0.281601
1.73 -0.279699
1.74 -0.275465
1.75 -0.268873
1.76 -0.259979
1.77 -0.248864
1.78 -0.235642
1.79 -0.220792
1.8 -0.204654
1.81 -0.187606
1.82 -0.17005
1.83 -0.152402
1.84 -0.13513
1.85 -0.118658
1.86 -0.103321
1.87 -0.0894163
1.88 -0.0771831
1.89 -0.0667939
1.9 -0.0583781
1.91 -0.0521277
1.92 -0.0477742
1.93 -0.0451805
1.94 -0.0441478
1.95 -0.0444247
1.96 -0.0457187
1.97 -0.047732
1.98 -0.0500669
1.99 -0.0523588
2 -0.0542936
2.01 -0.0555893
2.02 -0.0560077
2.03 -0.0553604
2.04 -0.0533896
2.05 -0.0501859
2.06 -0.0457867
2.07 -0.0403002
2.08 -0.0339012
2.09 -0.0268252
2.1 -0.0193579
2.11 -0.0118842
2.12 -0.00478868
2.13 0.00155405
2.14 0.00677239
2.15 0.0105123
2.16 0.0124506
2.17 0.0120555
2.18 0.00930527
2.19 0.00407539
2.2 -0.00370204
2.21 -0.014019
2.22 -0.0267906
2.23 -0.0419508
2.24 -0.0592799
2.25 -0.0783072
2.26 -0.0986738
2.27 -0.119982
2.28 -0.141807
2.29 -0.163714
2.3 -0.185192
2.31 -0.205808
2.32 -0.225192
2.33 -0.243009
2.34 -0.258978
2.35 -0.272881
2.36 -0.284488
2.37 -0.293608
2.38 -0.300437
2.39 -0.305057
2.4 -0.307612
2.41 -0.308304
2.42 -0.307384
2.43 -0.305055
2.44 -0.301751
2.45 -0.297844
2.46 -0.29367
2.47 -0.289551
2.48 -0.285786
2.49 -0.282666
2.5 -0.280503
2.51 -0.279403
2.52 -0.279482
2.53 -0.280802
2.54 -0.283374
2.55 -0.287156
2.56 -0.292132
2.57 -0.298107
2.58 -0.304861
2.59 -0.312193
2.6 -0.319887
2.61 -0.327718
2.62 -0.335461
2.63 -0.34285
2.64 -0.349708
2.65 -0.355872
2.66 -0.361207
2.67 -0.365613
2.68 -0.369025
2.69 -0.37135
2.7 -0.372613
2.71 -0.372915
2.72 -0.372334
2.73 -0.370968
2.74 -0.368932
2.75 -0.366356
2.76 -0.363342
2.77 -0.360082
2.78 -0.356699
2.79 -0.353305
2.8 -0.349996
2.81 -0.346846
2.82 -0.343923
2.83 -0.341259
2.84 -0.338845
2.85 -0.33666
2.86 -0.334667
2.87 -0.332814
2.88 -0.331035
2.89 -0.32925
2.9 -0.327373
2.91 -0.325329
2.92 -0.323047
2.93 -0.320464
2.94 -0.317527
2.95 -0.314177
2.96 -0.310373
2.97 -0.306134
2.98 -0.301459
2.99 -0.296361
3 -0.290857
3.01 -0.28497
3.02 -0.278691
3.03 -0.27207
3.04 -0.265124
3.05 -0.257856
3.06 -0.250254
3.07 -0.242289
3.08 -0.233901
3.09 -0.224991
3.1 -0.21551
3.11 -0.205358
3.12 -0.194423
3.13 -0.18258
3.14 -0.169704
3.15 -0.155557
3.16 -0.140063
3.17 -0.123151
3.18 -0.104731
3.19 -0.0847345
3.2 -0.0631213
3.21 -0.0398494
3.22 -0.0148333
3.23 0.0116961
3.24 0.0396254
3.25 0.0688029
3.26 0.0990402
3.27 0.130115
3.28 0.161796
3.29 0.193746
3.3 0.225639
3.31 0.257164
3.32 0.288003
3.33 0.317844
3.34 0.346366
3.35 0.373099
3.36 0.397931
3.37 0.420641
3.38 0.441038
3.39 0.458973
3.4 0.474337
3.41 0.486896
3.42 0.496651
3.43 0.503774
3.44 0.508331
3.45 0.510422
3.46 0.510178
3.47 0.507755
3.48 0.50312
3.49 0.496713
3.5 0.488738
3.51 0.479399
3.52 0.468896
3.53 0.457423
3.54 0.44513
3.55 0.4322
3.56 0.41883
3.57 0.40515
3.58 0.391271
3.59 0.377287
3.6 0.363277
3.61 0.349313
3.62 0.335447
3.63 0.321718
3.64 0.308162
3.65 0.294809
3.66 0.281692
3.67 0.268858
3.68 0.256363
3.69 0.244235
3.7 0.232527
3.71 0.221305
3.72 0.21064
3.73 0.20061
3.74 0.191378
3.75 0.182994
3.76 0.175534
3.77 0.169089
3.78 0.163748
3.79 0.159595
3.8 0.156744
3.81 0.155344
3.82 0.15533
3.83 0.156738
3.84 0.159584
3.85 0.163869
3.86 0.169579
3.87 0.176791
3.88 0.185381
3.89 0.195235
3.9 0.206273
3.91 0.218401
3.92 0.23152
3.93 0.245534
3.94 0.260375
3.95 0.275839
3.96 0.291806
3.97 0.308154
3.98 0.324766
3.99 0.341524
4 0.358309
4.01 0.374997
4.02 0.39148
4.03 0.40766
4.04 0.423438
4.05 0.438723
4.06 0.453418
4.07 0.467358
4.08 0.480526
4.09 0.492839
4.1 0.504219
4.11 0.51459
4.12 0.523877
4.13 0.531938
4.14 0.5387
4.15 0.544171
4.16 0.548299
4.17 0.551035
4.18 0.552345
4.19 0.552198
4.2 0.55041
4.21 0.547135
4.22 0.542385
4.23 0.536179
4.24 0.528546
4.25 0.519524
4.26 0.509102
4.27 0.497321
4.28 0.484341
4.29 0.470232
4.3 0.455071
4.31 0.438935
4.32 0.4219
4.33 0.403966
4.34 0.385282
4.35 0.365925
4.36 0.345956
4.37 0.325424
4.38 0.304377
4.39 0.282834
4.4 0.260813
4.41 0.238376
4.42 0.215543
4.43 0.192333
4.44 0.168763
4.45 0.144853
4.46 0.120599
4.47 0.0960528
4.48 0.0712597
4.49 0.0462646
4.5 0.0211223
4.51 -0.00410233
4.52 -0.0293315
4.53 -0.0544618
4.54 -0.0793964
4.55 -0.10403
4.56 -0.128253
4.57 -0.151948
4.58 -0.175002
4.59 -0.19723
4.6 -0.218542
4.61 -0.238865
4.62 -0.258111
4.63 -0.276203
4.64 -0.293081
4.65 -0.30868
4.66 -0.322865
4.67 -0.335763
4.68 -0.347391
4.69 -0.357785
4.7 -0.366999
4.71 -0.375102
4.72 -0.382112
4.73 -0.388157
4.74 -0.393389
4.75 -0.397914
4.76 -0.401839
4.77 -0.405268
4.78 -0.4083
4.79 -0.411004
4.8 -0.413501
4.81 -0.415857
4.82 -0.418126
4.83 -0.420347
4.84 -0.422548
4.85 -0.424739
4.86 -0.426919
4.87 -0.429076
4.88 -0.431188
4.89 -0.433227
4.9 -0.435159
4.91 -0.43695
4.92 -0.438544
4.93 -0.439923
4.94 -0.441061
4.95 -0.441937
4.96 -0.442536
4.97 -0.44285
4.98 -0.442862
4.99 -0.442574
5 -0.442015
5.01 -0.441202
5.02 -0.440149
5.03 -0.438875
5.04 -0.437393
5.05 -0.435697
5.06 -0.433807
5.07 -0.431724
5.08 -0.429437
5.09 -0.426924
5.1 -0.424158
5.11 -0.421086
5.12 -0.417641
5.13 -0.413793
5.14 -0.409482
5.15 -0.404651
5.16 -0.399238
5.17 -0.39319
5.18 -0.386392
5.19 -0.378844
5.2 -0.370542
5.21 -0.361477
5.22 -0.351659
5.23 -0.341112
5.24 -0.329868
5.25 -0.317959
5.26 -0.305535
5.27 -0.2927
5.28 -0.27957
5.29 -0.266274
5.3 -0.25295
5.31 -0.239757
5.32 -0.226851
5.33 -0.214363
5.34 -0.20242
5.35 -0.191137
5.36 -0.180611
5.37 -0.170936
5.38 -0.162254
5.39 -0.154508
5.4 -0.147703
5.41 -0.141824
5.42 -0.136832
5.43 -0.132666
5.44 -0.129295
5.45 -0.126598
5.46 -0.124434
5.47 -0.122691
5.48 -0.121256
5.49 -0.12002
5.5 -0.118877
5.51 -0.117722
5.52 -0.11647
5.53 -0.115058
5.54 -0.113442
5.55 -0.111596
5.56 -0.109512
5.57 -0.107187
5.58 -0.104652
5.59 -0.101963
5.6 -0.0991711
5.61 -0.0963339
5.62 -0.0935115
5.63 -0.0907623
5.64 -0.0881578
5.65 -0.0857317
5.66 -0.0835106
5.67 -0.0815066
5.68 -0.0797144
5.69 -0.0781104
5.7 -0.0766555
5.71 -0.0752803
5.72 -0.0738934
5.73 -0.0724001
5.74 -0.0706955
5.75 -0.0686683
5.76 -0.0662052
5.77 -0.0631316
5.78 -0.059376
5.79 -0.0548609
5.8 -0.0495145
5.81 -0.0432853
5.82 -0.0361449
5.83 -0.0280608
5.84 -0.0190179
5.85 -0.00914997
5.86 0.00146028
5.87 0.0127071
5.88 0.0244643
5.89 0.0365892
5.9 0.0489312
5.91 0.0612958
5.92 0.0735141
5.93 0.0854285
5.94 0.0968922
5.95 0.107774
5.96 0.117944
5.97 0.127252
5.98 0.13571
5.99 0.143297
6 0.150016
6.01 0.155903
6.02 0.161018
6.03 0.165405
6.04 0.169209
6.05 0.172586
6.06 0.17567
6.07 0.1786
6.08 0.181513
6.09 0.184541
6.1 0.187832
6.11 0.19146
6.12 0.195492
6.13 0.199965
6.14 0.204886
6.15 0.210232
6.16 0.215967
6.17 0.221984
6.18 0.228144
6.19 0.234306
6.2 0.240309
6.21 0.245979
6.22 0.251138
6.23 0.2555
6.24 0.258959
6.25 0.261354
6.26 0.262547
6.27 0.26242
6.28 0.260888
6.29 0.257815
6.3 0.253166
6.31 0.247058
6.32 0.239548
6.33 0.230725
6.34 0.220709
6.35 0.209644
6.36 0.197621
6.37 0.184925
6.38 0.171758
6.39 0.158311
6.4 0.144771
6.41 0.131316
6.42 0.118121
6.43 0.105354
6.44 0.0931017
6.45 0.0814395
6.46 0.0704144
6.47 0.0600421
6.48 0.050308
6.49 0.0412192
6.5 0.0326524
6.51 0.0244993
6.52 0.0166492
6.53 0.0089812
6.54 0.0013692
6.55 -0.00631818
6.56 -0.0142253
6.57 -0.0224478
6.58 -0.0310719
6.59 -0.0401624
6.6 -0.0497605
6.61 -0.0598809
6.62 -0.0705512
6.63 -0.081697
6.64 -0.0932298
6.65 -0.105055
6.66 -0.117059
6.67 -0.129111
6.68 -0.141065
6.69 -0.152732
6.7 -0.163976
6.71 -0.174649
6.72 -0.184614
6.73 -0.193747
6.74 -0.20194
6.75 -0.209024
6.76 -0.214956
6.77 -0.219743
6.78 -0.223367
6.79 -0.225836
6.8 -0.227174
6.81 -0.227416
6.82 -0.226524
6.83 -0.224686
6.84 -0.221979
6.85 -0.218482
6.86 -0.214272
6.87 -0.209421
6.88 -0.203959
6.89 -0.197946
6.9 -0.191446
6.91 -0.184478
6.92 -0.177043
6.93 -0.169127
6.94 -0.160701
6.95 -0.151654
6.96 -0.14199
6.97 -0.131648
6.98 -0.120566
6.99 -0.10868
7 -0.0959299
7.01 -0.0822164
7.02 -0.0674792
7.03 -0.0517579
7.04 -0.0350476
7.05 -0.0173621
7.06 0.00126512
7.07 0.0207805
7.08 0.0411857
7.09 0.0623035
7.1 0.0840111
7.11 0.106183
7.12 0.128686
7.13 0.151376
7.14 0.174105
7.15 0.196704
7.16 0.219032
7.17 0.24096
7.18 0.262366
7.19 0.283145
7.2 0.303203
7.21 0.322386
7.22 0.340684
7.23 0.358076
7.24 0.374539
7.25 0.39006
7.26 0.404638
7.27 0.418254
7.28 0.430866
7.29 0.442573
7.3 0.453389
7.31 0.463321
7.32 0.472371
7.33 0.480534
7.34 0.487714
7.35 0.493918
7.36 0.499133
7.37 0.503301
7.38 0.506355
7.39 0.508219
7.4 0.508785
7.41 0.507841
7.42 0.505429
7.43 0.501464
7.44 0.495869
7.45 0.488578
7.46 0.479539
7.47 0.468591
7.48 0.45576
7.49 0.441146
7.5 0.424785
7.51 0.406739
7.52 0.387097
7.53 0.365962
7.54 0.343344
7.55 0.319566
7.56 0.294805
7.57 0.269253
7.58 0.243112
7.59 0.21659
7.6 0.189903
7.61 0.163291
7.62 0.136965
7.63 0.111117
7.64 0.0859271
7.65 0.0615578
7.66 0.0381543
7.67 0.0159754
7.68 -0.00498545
7.69 -0.0246578
7.7 -0.0429867
7.71 -0.0599382
7.72 -0.0754978
7.73 -0.0896036
7.74 -0.102251
7.75 -0.113573
7.76 -0.123617
7.77 -0.13244
7.78 -0.140104
7.79 -0.146676
7.8 -0.152127
7.81 -0.156619
7.82 -0.160236
7.83 -0.163041
7.84 -0.165093
7.85 -0.166448
7.86 -0.167134
7.87 -0.167177
7.88 -0.166671
7.89 -0.165652
7.9 -0.164156
7.91 -0.162213
7.92 -0.159856
7.93 -0.157081
7.94 -0.153945
7.95 -0.150488
7.96 -0.146741
7.97 -0.142732
7.98 -0.138492
7.99 -0.13405
8 -0.12943
8.01 -0.124681
8.02 -0.119833
8.03 -0.114918
8.04 -0.109964
8.05 -0.104997
8.06 -0.100044
8.07 -0.095131
8.08 -0.0902752
8.09 -0.0854934
8.1 -0.0807995
8.11 -0.0762055
8.12 -0.071723
8.13 -0.067372
8.14 -0.0631484
8.15 -0.0590592
8.16 -0.0551112
8.17 -0.051312
8.18 -0.0476698
8.19 -0.0442056
8.2 -0.0409283
8.21 -0.037841
8.22 -0.0349556
8.23 -0.0322844
8.24 -0.0298393
8.25 -0.027632
8.26 -0.0256995
8.27 -0.0240207
8.28 -0.0225977
8.29 -0.0214286
8.3 -0.0205066
8.31 -0.0198194
8.32 -0.0193598
8.33 -0.0191003
8.34 -0.0189969
8.35 -0.0190134
8.36 -0.0191091
8.37 -0.0192399
8.38 -0.0193591
8.39 -0.0194076
8.4 -0.01934
8.41 -0.0191127
8.42 -0.0186861
8.43 -0.0180263
8.44 -0.0171067
8.45 -0.0158966
8.46 -0.0143808
8.47 -0.0125852
8.48 -0.0105268
8.49 -0.00823382
8.5 -0.00574549
8.51 -0.00311122
8.52 -0.00038766
8.53 0.0023433
8.54 0.00500656
8.55 0.00752515
8.56 0.0098209
8.57 0.0118167
8.58 0.0134237
8.59 0.0145438
8.6 0.0151511
8.61 0.015198
8.62 0.014648
8.63 0.0134774
8.64 0.0116759
8.65 0.00919327
8.66 0.00608637
8.67 0.00240651
8.68 -0.00180245
8.69 -0.00648692
8.7 -0.0115853
8.71 -0.0170365
8.72 -0.0227793
8.73 -0.0287101
8.74 -0.0347583
8.75 -0.0408571
8.76 -0.0469456
8.77 -0.0529703
8.78 -0.0588759
8.79 -0.0646285
8.8 -0.0702119
8.81 -0.0756158
8.82 -0.08084
8.83 -0.0858939
8.84 -0.090794
8.85 -0.0955568
8.86 -0.100229
8.87 -0.104845
8.88 -0.109438
8.89 -0.114044
8.9 -0.118691
8.91 -0.123412
8.92 -0.128227
8.93 -0.133143
8.94 -0.138161
8.95 -0.143275
8.96 -0.14847
8.97 -0.153723
8.98 -0.159003
8.99 -0.164265
9 -0.169469
9.01 -0.174571
9.02 -0.179527
9.03 -0.184293
9.04 -0.188816
9.05 -0.193055
9.06 -0.196998
9.07 -0.200626
9.08 -0.203931
9.09 -0.206912
9.1 -0.209577
9.11 -0.211915
9.12 -0.213984
9.13 -0.215822
9.14 -0.217468
9.15 -0.218964
9.16 -0.220354
9.17 -0.221681
9.18 -0.22299
9.19 -0.224319
9.2 -0.225696
9.21 -0.22714
9.22 -0.228663
9.23 -0.230263
9.24 -0.231935
9.25 -0.23365
9.26 -0.235373
9.27 -0.237063
9.28 -0.238672
9.29 -0.240145
9.3 -0.241419
9.31 -0.242412
9.32 -0.243087
9.33 -0.243389
9.34 -0.243272
9.35 -0.242697
9.36 -0.241634
9.37 -0.240019
9.38 -0.237872
9.39 -0.235217
9.4 -0.232071
9.41 -0.228463
9.42 -0.224433
9.43 -0.220021
9.44 -0.215264
9.45 -0.210254
9.46 -0.205053
9.47 -0.199718
9.48 -0.194303
9.49 -0.188859
9.5 -0.183429
9.51 -0.178046
9.52 -0.172725
9.53 -0.167472
9.54 -0.162278
9.55 -0.157119
9.56 -0.151962
9.57 -0.146749
9.58 -0.141423
9.59 -0.135918
9.6 -0.130163
9.61 -0.124084
9.62 -0.117605
9.63 -0.110619
9.64 -0.103054
9.65 -0.0948752
9.66 -0.0860344
9.67 -0.0764928
9.68 -0.0662249
9.69 -0.0552184
9.7 -0.0433917
9.71 -0.0308484
9.72 -0.0176224
9.73 -0.00375866
9.74 0.0106872
9.75 0.0256501
9.76 0.0410763
9.77 0.0568809
9.78 0.0729542
9.79 0.0892139
9.8 0.10558
9.81 0.121974
9.82 0.138323
9.83 0.154543
9.84 0.170579
9.85 0.18638
9.86 0.201904
9.87 0.217113
9.88 0.231977
9.89 0.246456
9.9 0.260513
9.91 0.27416
9.92 0.287382
9.93 0.300164
9.94 0.31249
9.95 0.324343
9.96 0.335652
9.97 0.346425
9.98 0.356643
9.99 0.366274
10 0.375282
10.01 0.383628
10.02 0.391252
10.03 0.398065
10.04 0.404093
10.05 0.409303
10.06 0.413668
10.07 0.417169
10.08 0.419793
10.09 0.421471
10.1 0.422257
10.11 0.42221
10.12 0.421368
10.13 0.419783
10.14 0.41752
10.15 0.414644
10.16 0.411209
10.17 0.407368
10.18 0.40322
10.19 0.398866
10.2 0.394408
10.21 0.389945
10.22 0.385584
10.23 0.381419
10.24 0.377518
10.25 0.373943
10.26 0.370738
10.27 0.367934
10.28 0.36555
10.29 0.363624
10.3 0.362088
10.31 0.360905
10.32 0.360026
10.33 0.359387
10.34 0.358916
10.35 0.358535
10.36 0.358144
10.37 0.357651
10.38 0.356971
10.39 0.356019
10.4 0.354718
10.41 0.352995
10.42 0.35073
10.43 0.347919
10.44 0.344526
10.45 0.340523
10.46 0.335896
10.47 0.330639
10.48 0.324725
10.49 0.318159
10.5 0.311003
10.51 0.303284
10.52 0.295029
10.53 0.286271
10.54 0.277037
10.55 0.267313
10.56 0.257166
10.57 0.246621
10.58 0.235694
10.59 0.224396
10.6 0.212732
10.61 0.200688
10.62 0.188248
10.63 0.175434
10.64 0.16224
10.65 0.14866
10.66 0.134691
10.67 0.120332
10.68 0.105553
10.69 0.0903922
10.7 0.07488
10.71 0.0590438
10.72 0.0429195
10.73 0.0265513
10.74 0.00998758
10.75 -0.00671247
10.76 -0.0234664
10.77 -0.0402042
10.78 -0.0568539
10.79 -0.0733432
10.8 -0.0896017
10.81 -0.105534
10.82 -0.121086
10.83 -0.136219
10.84 -0.150893
10.85 -0.165079
10.86 -0.17876
10.87 -0.191924
10.88 -0.204539
10.89 -0.216683
10.9 -0.228389
10.91 -0.239703
10.92 -0.250677
10.93 -0.261372
10.94 -0.271839
10.95 -0.282155
10.96 -0.29239
10.97 -0.302601
10.98 -0.312836
10.99 -0.323134
11 -0.333522
11.01 -0.344026
11.02 -0.35463
11.03 -0.365315
11.04 -0.376046
11.05 -0.386774
11.06 -0.397436
11.07 -0.407944
11.08 -0.418197
11.09 -0.42811
11.1 -0.437582
11.11 -0.446513
11.12 -0.454801
11.13 -0.462352
11.14 -0.468973
11.15 -0.474664
11.16 -0.479365
11.17 -0.483024
11.18 -0.485603
11.19 -0.487081
11.2 -0.487401
11.21 -0.486553
11.22 -0.484643
11.23 -0.481716
11.24 -0.477828
11.25 -0.473045
11.26 -0.467439
11.27 -0.461025
11.28 -0.453952
11.29 -0.446314
11.3 -0.438188
11.31 -0.429647
11.32 -0.420752
11.33 -0.41155
11.34 -0.402076
11.35 -0.392383
11.36 -0.382488
11.37 -0.372394
11.38 -0.362095
11.39 -0.351574
11.4 -0.34078
11.41 -0.329691
11.42 -0.318275
11.43 -0.306492
11.44 -0.294301
11.45 -0.281664
11.46 -0.268537
11.47 -0.254856
11.48 -0.240654
11.49 -0.225926
11.5 -0.210681
11.51 -0.194942
11.52 -0.178741
11.53 -0.1621
11.54 -0.145104
11.55 -0.127844
11.56 -0.110402
11.57 -0.0928718
11.58 -0.0753499
11.59 -0.0579412
11.6 -0.040781
11.61 -0.0239577
11.62 -0.00756913
11.63 0.00829252
11.64 0.0235431
11.65 0.038108
11.66 0.0518709
11.67 0.0647867
11.68 0.0768599
11.69 0.0880702
11.7 0.0984109
11.71 0.107889
11.72 0.116521
11.73 0.124252
11.74 0.131222
11.75 0.137483
11.76 0.143095
11.77 0.14812
11.78 0.152626
11.79 0.156658
11.8 0.160292
11.81 0.163616
11.82 0.16669
11.83 0.169565
11.84 0.172287
11.85 0.174891
11.86 0.177398
11.87 0.179835
11.88 0.182208
11.89 0.184513
11.9 0.186737
11.91 0.188859
11.92 0.190841
11.93 0.192636
11.94 0.194208
11.95 0.195508
11.96 0.196483
11.97 0.197078
11.98 0.197236
11.99 0.196847
12 0.195887
12.01 0.194312
12.02 0.192073
12.03 0.189124
12.04 0.185422
12.05 0.180906
12.06 0.175499
12.07 0.169247
12.08 0.162133
12.09 0.154149
12.1 0.145293
12.11 0.13557
12.12 0.124921
12.13 0.113415
12.14 0.101106
12.15 0.088029
12.16 0.0742238
12.17 0.0597373
