# xPDFsuite Configuration #
[PDF]
wavelength = 0.1
dataformat = QA
inputfile = BiMsol6_insitu_700 C-00604.xy
backgroundfile = Quartz2mm-dist500-00000.xy
mode = xray
bgscale = 0.0042
composition = Bi2Fe4O9
outputtype = gr
qmaxinst = 24.998449118
qmin = 0.1
qmax = 21.4986662415
rmax = 80.0
rmin = 0.0
rstep = 0.01
rpoly = 0.9

[Misc]
inputdir = C:/Data/Seafile/CPH/Beamtime/Desy Oct 20/In situ data/Processed/BiMsol6/PDF
savedir = C:/Data/Seafile/CPH/Beamtime/Desy Oct 20/In situ data/PDF/BiMsol6
backgroundfilefull = C:/Data/Seafile/CPH/Beamtime/Desy Oct 20/In situ data/Processed/Standard_Empty_Cap/Quartz2mm-dist500-00000.xy

#### start data
#S 1
#L r($\AA$)  G($\AA^{-2}$)
0 0
0.01 0.00543355
0.02 0.0105525
0.03 0.0150877
0.04 0.018798
0.05 0.0214817
0.06 0.0229854
0.07 0.0231425
0.08 0.0219067
0.09 0.0194053
0.1 0.0157442
0.11 0.011086
0.12 0.00564272
0.13 -0.000333746
0.14 -0.00655788
0.15 -0.0126784
0.16 -0.018398
0.17 -0.023439
0.18 -0.0275538
0.19 -0.0305378
0.2 -0.032182
0.21 -0.0323482
0.22 -0.0311326
0.23 -0.0286034
0.24 -0.0248982
0.25 -0.0202188
0.26 -0.0148241
0.27 -0.00901317
0.28 -0.00319757
0.29 0.00225576
0.3 0.00699122
0.31 0.0106733
0.32 0.0130033
0.33 0.0136801
0.34 0.0124127
0.35 0.00926672
0.36 0.00425687
0.37 -0.00250746
0.38 -0.0108211
0.39 -0.0203862
0.4 -0.030852
0.41 -0.0416456
0.42 -0.0522066
0.43 -0.0619641
0.44 -0.07033
0.45 -0.0767207
0.46 -0.080519
0.47 -0.0809267
0.48 -0.0777899
0.49 -0.0707958
0.5 -0.0597458
0.51 -0.0445679
0.52 -0.0253261
0.53 -0.0019705
0.54 0.0249729
0.55 0.0548183
0.56 0.0869286
0.57 0.120561
0.58 0.154889
0.59 0.18901
0.6 0.221771
0.61 0.252281
0.62 0.279635
0.63 0.302989
0.64 0.321579
0.65 0.334751
0.66 0.341593
0.67 0.341734
0.68 0.335342
0.69 0.322422
0.7 0.303151
0.71 0.277874
0.72 0.247098
0.73 0.211004
0.74 0.171008
0.75 0.128021
0.76 0.0830136
0.77 0.0369943
0.78 -0.00901863
0.79 -0.0539252
0.8 -0.0966133
0.81 -0.136315
0.82 -0.172291
0.83 -0.203931
0.84 -0.230767
0.85 -0.252481
0.86 -0.268371
0.87 -0.278941
0.88 -0.284459
0.89 -0.285262
0.9 -0.281808
0.91 -0.274664
0.92 -0.264389
0.93 -0.251711
0.94 -0.237604
0.95 -0.222818
0.96 -0.208078
0.97 -0.194062
0.98 -0.18138
0.99 -0.170772
1 -0.162567
1.01 -0.157005
1.02 -0.154253
1.03 -0.154366
1.04 -0.157284
1.05 -0.162912
1.06 -0.171091
1.07 -0.181237
1.08 -0.192938
1.09 -0.205745
1.1 -0.21919
1.11 -0.232802
1.12 -0.246073
1.13 -0.258553
1.14 -0.269902
1.15 -0.279834
1.16 -0.288132
1.17 -0.294659
1.18 -0.299325
1.19 -0.302009
1.2 -0.303002
1.21 -0.302475
1.22 -0.300648
1.23 -0.297781
1.24 -0.294157
1.25 -0.290062
1.26 -0.285838
1.27 -0.281775
1.28 -0.278109
1.29 -0.275037
1.3 -0.272706
1.31 -0.271215
1.32 -0.270688
1.33 -0.270996
1.34 -0.272052
1.35 -0.273722
1.36 -0.275834
1.37 -0.278189
1.38 -0.280554
1.39 -0.282672
1.4 -0.284329
1.41 -0.285331
1.42 -0.285514
1.43 -0.284754
1.44 -0.282972
1.45 -0.280025
1.46 -0.276064
1.47 -0.271187
1.48 -0.265534
1.49 -0.25929
1.5 -0.252675
1.51 -0.245943
1.52 -0.239398
1.53 -0.233312
1.54 -0.227937
1.55 -0.223503
1.56 -0.220206
1.57 -0.218198
1.58 -0.217724
1.59 -0.218702
1.6 -0.221074
1.61 -0.224742
1.62 -0.22955
1.63 -0.235283
1.64 -0.241695
1.65 -0.248454
1.66 -0.255177
1.67 -0.261516
1.68 -0.267126
1.69 -0.271674
1.7 -0.274853
1.71 -0.276227
1.72 -0.275661
1.73 -0.273056
1.74 -0.268332
1.75 -0.261478
1.76 -0.252553
1.77 -0.24164
1.78 -0.228848
1.79 -0.214615
1.8 -0.199247
1.81 -0.183086
1.82 -0.166496
1.83 -0.149846
1.84 -0.133558
1.85 -0.118006
1.86 -0.103484
1.87 -0.0902547
1.88 -0.0785243
1.89 -0.068441
1.9 -0.0601131
1.91 -0.0537034
1.92 -0.0489663
1.93 -0.0457736
1.94 -0.0439434
1.95 -0.0432482
1.96 -0.0434256
1.97 -0.0442088
1.98 -0.0452478
1.99 -0.0462256
2 -0.0468716
2.01 -0.0469467
2.02 -0.0462534
2.03 -0.0446418
2.04 -0.0419102
2.05 -0.0381579
2.06 -0.033442
2.07 -0.0278835
2.08 -0.0216629
2.09 -0.015014
2.1 -0.00822643
2.11 -0.00166748
2.12 0.00431583
2.13 0.00937667
2.14 0.0131755
2.15 0.0153934
2.16 0.0157444
2.17 0.0137355
2.18 0.00938931
2.19 0.00261731
2.2 -0.006615
2.21 -0.0182694
2.22 -0.0322352
2.23 -0.048416
2.24 -0.0665694
2.25 -0.0862267
2.26 -0.107024
2.27 -0.128563
2.28 -0.150427
2.29 -0.172187
2.3 -0.193332
2.31 -0.213463
2.32 -0.232231
2.33 -0.249327
2.34 -0.264492
2.35 -0.277533
2.36 -0.288245
2.37 -0.296464
2.38 -0.302413
2.39 -0.306194
2.4 -0.307972
2.41 -0.307966
2.42 -0.306444
2.43 -0.303629
2.44 -0.299962
2.45 -0.295818
2.46 -0.291536
2.47 -0.287437
2.48 -0.28382
2.49 -0.280974
2.5 -0.279208
2.51 -0.278608
2.52 -0.279276
2.53 -0.281262
2.54 -0.284558
2.55 -0.289104
2.56 -0.294867
2.57 -0.301626
2.58 -0.309139
2.59 -0.317187
2.6 -0.325532
2.61 -0.333929
2.62 -0.342134
2.63 -0.349851
2.64 -0.356902
2.65 -0.363111
2.66 -0.368337
2.67 -0.372476
2.68 -0.375462
2.69 -0.377194
2.7 -0.377713
2.71 -0.377141
2.72 -0.375572
2.73 -0.373125
2.74 -0.369943
2.75 -0.366183
2.76 -0.36198
2.77 -0.357563
2.78 -0.353092
2.79 -0.348711
2.8 -0.34455
2.81 -0.340716
2.82 -0.337316
2.83 -0.334417
2.84 -0.332014
2.85 -0.330104
2.86 -0.328658
2.87 -0.327628
2.88 -0.326946
2.89 -0.326547
2.9 -0.326302
2.91 -0.32611
2.92 -0.325869
2.93 -0.325482
2.94 -0.324858
2.95 -0.323896
2.96 -0.322505
2.97 -0.320651
2.98 -0.31829
2.99 -0.315387
3 -0.311918
3.01 -0.307866
3.02 -0.30316
3.03 -0.297836
3.04 -0.291895
3.05 -0.285321
3.06 -0.278092
3.07 -0.270177
3.08 -0.26151
3.09 -0.251989
3.1 -0.241609
3.11 -0.230292
3.12 -0.217955
3.13 -0.204506
3.14 -0.189853
3.15 -0.173787
3.16 -0.156281
3.17 -0.137308
3.18 -0.116812
3.19 -0.0947598
3.2 -0.0711426
3.21 -0.0459492
3.22 -0.0191287
3.23 0.00907719
3.24 0.0385411
3.25 0.0691017
3.26 0.100566
3.27 0.132711
3.28 0.1653
3.29 0.198008
3.3 0.230529
3.31 0.262565
3.32 0.293816
3.33 0.323987
3.34 0.352777
3.35 0.379729
3.36 0.40476
3.37 0.427662
3.38 0.448261
3.39 0.466421
3.4 0.482042
3.41 0.494902
3.42 0.505006
3.43 0.512523
3.44 0.517517
3.45 0.520082
3.46 0.52034
3.47 0.518435
3.48 0.514317
3.49 0.508407
3.5 0.500889
3.51 0.491945
3.52 0.481754
3.53 0.470486
3.54 0.458261
3.55 0.445234
3.56 0.43159
3.57 0.417437
3.58 0.402872
3.59 0.387972
3.6 0.372806
3.61 0.357412
3.62 0.341861
3.63 0.326199
3.64 0.310466
3.65 0.294707
3.66 0.27897
3.67 0.263316
3.68 0.247829
3.69 0.232581
3.7 0.217663
3.71 0.203178
3.72 0.189241
3.73 0.175976
3.74 0.163599
3.75 0.152209
3.76 0.141923
3.77 0.132876
3.78 0.125197
3.79 0.119005
3.8 0.114457
3.81 0.111753
3.82 0.110817
3.83 0.111695
3.84 0.11441
3.85 0.11896
3.86 0.125321
3.87 0.133584
3.88 0.143581
3.89 0.155155
3.9 0.16819
3.91 0.182557
3.92 0.198114
3.93 0.214725
3.94 0.232284
3.95 0.250529
3.96 0.269303
3.97 0.288447
3.98 0.307812
3.99 0.327254
4 0.346627
4.01 0.365791
4.02 0.38464
4.03 0.403072
4.04 0.420997
4.05 0.438333
4.06 0.455
4.07 0.470849
4.08 0.485893
4.09 0.500077
4.1 0.513344
4.11 0.525643
4.12 0.53692
4.13 0.547056
4.14 0.555993
4.15 0.563739
4.16 0.570242
4.17 0.57545
4.18 0.579313
4.19 0.581783
4.2 0.582652
4.21 0.582035
4.22 0.579911
4.23 0.576259
4.24 0.571068
4.25 0.564336
4.26 0.555999
4.27 0.546055
4.28 0.53464
4.29 0.5218
4.3 0.507588
4.31 0.492066
4.32 0.475305
4.33 0.457269
4.34 0.438149
4.35 0.418045
4.36 0.397041
4.37 0.375221
4.38 0.352666
4.39 0.329433
4.4 0.305583
4.41 0.281237
4.42 0.25646
4.43 0.231313
4.44 0.205855
4.45 0.18014
4.46 0.154206
4.47 0.128124
4.48 0.101952
4.49 0.075743
4.5 0.0495522
4.51 0.0234391
4.52 -0.00252717
4.53 -0.028256
4.54 -0.0536873
4.55 -0.0787429
4.56 -0.103341
4.57 -0.127397
4.58 -0.150824
4.59 -0.173472
4.6 -0.195276
4.61 -0.216183
4.62 -0.23612
4.63 -0.255019
4.64 -0.272826
4.65 -0.289475
4.66 -0.304834
4.67 -0.319004
4.68 -0.331984
4.69 -0.343791
4.7 -0.354455
4.71 -0.364018
4.72 -0.372471
4.73 -0.379914
4.74 -0.386478
4.75 -0.392248
4.76 -0.397314
4.77 -0.401771
4.78 -0.405706
4.79 -0.409175
4.8 -0.412313
4.81 -0.415197
4.82 -0.417889
4.83 -0.420446
4.84 -0.422909
4.85 -0.425307
4.86 -0.427659
4.87 -0.429975
4.88 -0.432249
4.89 -0.434466
4.9 -0.436603
4.91 -0.438633
4.92 -0.440505
4.93 -0.442195
4.94 -0.443669
4.95 -0.444894
4.96 -0.445841
4.97 -0.446484
4.98 -0.446784
4.99 -0.446718
5 -0.446299
5.01 -0.445523
5.02 -0.444391
5.03 -0.442908
5.04 -0.44108
5.05 -0.438882
5.06 -0.436352
5.07 -0.433501
5.08 -0.430334
5.09 -0.42685
5.1 -0.423046
5.11 -0.4189
5.12 -0.414379
5.13 -0.409492
5.14 -0.404215
5.15 -0.398523
5.16 -0.392388
5.17 -0.385784
5.18 -0.37864
5.19 -0.370966
5.2 -0.362762
5.21 -0.354025
5.22 -0.344762
5.23 -0.334992
5.24 -0.324734
5.25 -0.314012
5.26 -0.302931
5.27 -0.291565
5.28 -0.280003
5.29 -0.268342
5.3 -0.256689
5.31 -0.245176
5.32 -0.233931
5.33 -0.223068
5.34 -0.212701
5.35 -0.202939
5.36 -0.19388
5.37 -0.185624
5.38 -0.178327
5.39 -0.171956
5.4 -0.166543
5.41 -0.162098
5.42 -0.158612
5.43 -0.156057
5.44 -0.154437
5.45 -0.153659
5.46 -0.153594
5.47 -0.154143
5.48 -0.155197
5.49 -0.156642
5.5 -0.158361
5.51 -0.160241
5.52 -0.162142
5.53 -0.163958
5.54 -0.165595
5.55 -0.166972
5.56 -0.16802
5.57 -0.168661
5.58 -0.168852
5.59 -0.168597
5.6 -0.167891
5.61 -0.166741
5.62 -0.165165
5.63 -0.163188
5.64 -0.160808
5.65 -0.158098
5.66 -0.155095
5.67 -0.151832
5.68 -0.148333
5.69 -0.144615
5.7 -0.140678
5.71 -0.136511
5.72 -0.132111
5.73 -0.127453
5.74 -0.122496
5.75 -0.117195
5.76 -0.111496
5.77 -0.105289
5.78 -0.0985425
5.79 -0.091206
5.8 -0.0832252
5.81 -0.0745534
5.82 -0.0651544
5.83 -0.0549801
5.84 -0.0439853
5.85 -0.0322476
5.86 -0.0197996
5.87 -0.00669233
5.88 0.00700467
5.89 0.0212048
5.9 0.0358301
5.91 0.0507264
5.92 0.0657534
5.93 0.0807766
5.94 0.0956587
5.95 0.110263
5.96 0.124448
5.97 0.138035
5.98 0.15096
5.99 0.163132
6 0.174477
6.01 0.184942
6.02 0.194496
6.03 0.203061
6.04 0.210682
6.05 0.217433
6.06 0.22337
6.07 0.228561
6.08 0.233087
6.09 0.237033
6.1 0.240459
6.11 0.24352
6.12 0.246307
6.13 0.248903
6.14 0.251381
6.15 0.253798
6.16 0.256197
6.17 0.258602
6.18 0.26101
6.19 0.263402
6.2 0.265734
6.21 0.267949
6.22 0.269972
6.23 0.271667
6.24 0.272959
6.25 0.273738
6.26 0.273895
6.27 0.27332
6.28 0.271909
6.29 0.269515
6.3 0.266032
6.31 0.26146
6.32 0.255755
6.33 0.248893
6.34 0.240872
6.35 0.231711
6.36 0.221343
6.37 0.209942
6.38 0.197605
6.39 0.184432
6.4 0.170539
6.41 0.156048
6.42 0.141076
6.43 0.125763
6.44 0.110275
6.45 0.0947386
6.46 0.0792711
6.47 0.0639799
6.48 0.0489586
6.49 0.0343247
6.5 0.0201186
6.51 0.0063717
6.52 -0.00689384
6.53 -0.0196728
6.54 -0.0319755
6.55 -0.0438139
6.56 -0.0552078
6.57 -0.0662441
6.58 -0.0769775
6.59 -0.087466
6.6 -0.0977683
6.61 -0.107941
6.62 -0.118033
6.63 -0.128098
6.64 -0.138169
6.65 -0.148269
6.66 -0.158407
6.67 -0.168577
6.68 -0.178763
6.69 -0.188926
6.7 -0.199018
6.71 -0.208981
6.72 -0.218745
6.73 -0.228236
6.74 -0.237369
6.75 -0.246017
6.76 -0.254091
6.77 -0.261518
6.78 -0.268212
6.79 -0.274088
6.8 -0.279066
6.81 -0.283065
6.82 -0.28591
6.83 -0.287655
6.84 -0.288255
6.85 -0.287677
6.86 -0.285896
6.87 -0.282895
6.88 -0.278595
6.89 -0.273003
6.9 -0.266199
6.91 -0.2582
6.92 -0.249027
6.93 -0.238707
6.94 -0.227268
6.95 -0.214622
6.96 -0.200927
6.97 -0.186221
6.98 -0.170539
6.99 -0.153917
7 -0.136391
7.01 -0.117955
7.02 -0.0986358
7.03 -0.0785286
7.04 -0.057671
7.05 -0.0361023
7.06 -0.0138637
7.07 0.00900104
7.08 0.0324998
7.09 0.0565242
7.1 0.0810108
7.11 0.1059
7.12 0.131126
7.13 0.156619
7.14 0.182309
7.15 0.208109
7.16 0.233917
7.17 0.259645
7.18 0.285197
7.19 0.310477
7.2 0.335383
7.21 0.35976
7.22 0.383524
7.23 0.406583
7.24 0.428834
7.25 0.450175
7.26 0.470509
7.27 0.489706
7.28 0.507591
7.29 0.524179
7.3 0.539394
7.31 0.553163
7.32 0.565422
7.33 0.576115
7.34 0.58506
7.35 0.592286
7.36 0.59782
7.37 0.601642
7.38 0.603738
7.39 0.604105
7.4 0.602715
7.41 0.599437
7.42 0.594463
7.43 0.587819
7.44 0.579535
7.45 0.569649
7.46 0.558201
7.47 0.545137
7.48 0.53055
7.49 0.514567
7.5 0.49725
7.51 0.478662
7.52 0.458872
7.53 0.437946
7.54 0.415861
7.55 0.392824
7.56 0.368921
7.57 0.344247
7.58 0.318899
7.59 0.292981
7.6 0.266583
7.61 0.23984
7.62 0.212901
7.63 0.185892
7.64 0.158947
7.65 0.132202
7.66 0.105797
7.67 0.079941
7.68 0.0547397
7.69 0.0303298
7.7 0.00684767
7.71 -0.0155758
7.72 -0.036817
7.73 -0.0566946
7.74 -0.0750624
7.75 -0.0919261
7.76 -0.107216
7.77 -0.120879
7.78 -0.132882
7.79 -0.143209
7.8 -0.151699
7.81 -0.158524
7.82 -0.163762
7.83 -0.16748
7.84 -0.169765
7.85 -0.170717
7.86 -0.170411
7.87 -0.168943
7.88 -0.166544
7.89 -0.163355
7.9 -0.159514
7.91 -0.155162
7.92 -0.15043
7.93 -0.145433
7.94 -0.140311
7.95 -0.13517
7.96 -0.130091
7.97 -0.125141
7.98 -0.120366
7.99 -0.115803
8 -0.11148
8.01 -0.107369
8.02 -0.103449
8.03 -0.0996851
8.04 -0.0960333
8.05 -0.092442
8.06 -0.0888513
8.07 -0.0851964
8.08 -0.0814232
8.09 -0.0774833
8.1 -0.0733362
8.11 -0.068952
8.12 -0.0643093
8.13 -0.0593829
8.14 -0.0542139
8.15 -0.0488316
8.16 -0.0432797
8.17 -0.0376146
8.18 -0.0319041
8.19 -0.0262331
8.2 -0.0206975
8.21 -0.0153825
8.22 -0.0103753
8.23 -0.00575931
8.24 -0.00161115
8.25 0.00200018
8.26 0.0049504
8.27 0.00726638
8.28 0.00892963
8.29 0.00993959
8.3 0.010314
8.31 0.0100885
8.32 0.00928939
8.33 0.00799588
8.34 0.00632579
8.35 0.00437412
8.36 0.00224254
8.37 3.58794e-05
8.38 -0.00214149
8.39 -0.00416496
8.4 -0.00594817
8.41 -0.00741474
8.42 -0.00850224
8.43 -0.00916565
8.44 -0.00937915
8.45 -0.00911739
8.46 -0.00838959
8.47 -0.00727003
8.48 -0.00581953
8.49 -0.00411615
8.5 -0.00225277
8.51 -0.000334118
8.52 0.0015092
8.53 0.00315052
8.54 0.00447329
8.55 0.00536395
8.56 0.00571708
8.57 0.00543885
8.58 0.00442347
8.59 0.00256557
8.6 -0.000111929
8.61 -0.00362531
8.62 -0.00796977
8.63 -0.0131198
8.64 -0.0190301
8.65 -0.0256914
8.66 -0.0329729
8.67 -0.0407596
8.68 -0.0489489
8.69 -0.0574331
8.7 -0.0661036
8.71 -0.0748532
8.72 -0.0835681
8.73 -0.0921542
8.74 -0.100536
8.75 -0.108652
8.76 -0.116457
8.77 -0.123922
8.78 -0.131011
8.79 -0.137742
8.8 -0.144155
8.81 -0.150285
8.82 -0.156179
8.83 -0.16189
8.84 -0.167476
8.85 -0.172996
8.86 -0.178517
8.87 -0.184089
8.88 -0.189751
8.89 -0.195532
8.9 -0.201448
8.91 -0.207507
8.92 -0.21369
8.93 -0.219956
8.94 -0.226258
8.95 -0.232536
8.96 -0.238722
8.97 -0.244735
8.98 -0.250455
8.99 -0.255817
9 -0.260739
9.01 -0.265143
9.02 -0.268963
9.03 -0.272141
9.04 -0.274595
9.05 -0.276291
9.06 -0.277267
9.07 -0.277536
9.08 -0.277129
9.09 -0.276093
9.1 -0.274492
9.11 -0.272358
9.12 -0.269835
9.13 -0.267026
9.14 -0.264028
9.15 -0.260941
9.16 -0.25786
9.17 -0.254882
9.18 -0.252098
9.19 -0.249564
9.2 -0.247325
9.21 -0.24541
9.22 -0.24383
9.23 -0.242578
9.24 -0.241657
9.25 -0.240995
9.26 -0.24053
9.27 -0.240191
9.28 -0.239904
9.29 -0.239585
9.3 -0.239147
9.31 -0.238487
9.32 -0.237544
9.33 -0.236253
9.34 -0.234565
9.35 -0.232441
9.36 -0.229862
9.37 -0.226783
9.38 -0.223248
9.39 -0.219306
9.4 -0.215004
9.41 -0.210406
9.42 -0.205584
9.43 -0.200617
9.44 -0.195597
9.45 -0.190621
9.46 -0.185771
9.47 -0.181119
9.48 -0.17673
9.49 -0.172651
9.5 -0.168944
9.51 -0.165611
9.52 -0.162628
9.53 -0.159965
9.54 -0.157574
9.55 -0.155385
9.56 -0.153316
9.57 -0.151255
9.58 -0.149078
9.59 -0.146666
9.6 -0.143895
9.61 -0.140641
9.62 -0.136785
9.63 -0.132165
9.64 -0.126672
9.65 -0.120265
9.66 -0.11288
9.67 -0.104473
9.68 -0.0950201
9.69 -0.084518
9.7 -0.0728702
9.71 -0.0602397
9.72 -0.0466897
9.73 -0.0322976
9.74 -0.0171539
9.75 -0.00135983
9.76 0.0149982
9.77 0.031797
9.78 0.0488898
9.79 0.0661675
9.8 0.0835271
9.81 0.100874
9.82 0.118124
9.83 0.135181
9.84 0.151996
9.85 0.168529
9.86 0.184747
9.87 0.200632
9.88 0.216173
9.89 0.231355
9.9 0.246171
9.91 0.260656
9.92 0.27482
9.93 0.288671
9.94 0.302212
9.95 0.315442
9.96 0.328321
9.97 0.340851
9.98 0.35301
9.99 0.364762
10 0.37606
10.01 0.386851
10.02 0.397058
10.03 0.406571
10.04 0.415377
10.05 0.423411
10.06 0.430614
10.07 0.436932
10.08 0.442323
10.09 0.446671
10.1 0.450005
10.11 0.452357
10.12 0.453744
10.13 0.4542
10.14 0.453774
10.15 0.452518
10.16 0.450466
10.17 0.447794
10.18 0.444609
10.19 0.441023
10.2 0.437157
10.21 0.433128
10.22 0.429059
10.23 0.425078
10.24 0.421285
10.25 0.417769
10.26 0.414603
10.27 0.411846
10.28 0.409539
10.29 0.407751
10.3 0.40643
10.31 0.405552
10.32 0.405077
10.33 0.40495
10.34 0.405099
10.35 0.405449
10.36 0.40589
10.37 0.406314
10.38 0.406615
10.39 0.406693
10.4 0.406445
10.41 0.405778
10.42 0.404537
10.43 0.402693
10.44 0.400185
10.45 0.39696
10.46 0.392979
10.47 0.388216
10.48 0.382618
10.49 0.376169
10.5 0.368934
10.51 0.360934
10.52 0.352197
10.53 0.342755
10.54 0.332647
10.55 0.321853
10.56 0.310472
10.57 0.298553
10.58 0.286135
10.59 0.273251
10.6 0.259934
10.61 0.246197
10.62 0.232052
10.63 0.21755
10.64 0.202711
10.65 0.187549
10.66 0.172081
10.67 0.156323
10.68 0.140268
10.69 0.123957
10.7 0.107421
10.71 0.0906863
10.72 0.0737863
10.73 0.0567578
10.74 0.0396413
10.75 0.0224868
10.76 0.005352
10.77 -0.01171
10.78 -0.0286448
10.79 -0.0453976
10.8 -0.0619153
10.81 -0.0781204
10.82 -0.0939739
10.83 -0.109448
10.84 -0.124511
10.85 -0.13914
10.86 -0.153321
10.87 -0.167044
10.88 -0.180277
10.89 -0.193085
10.9 -0.205495
10.91 -0.217543
10.92 -0.229271
10.93 -0.240725
10.94 -0.251947
10.95 -0.263001
10.96 -0.273949
10.97 -0.284841
10.98 -0.295719
10.99 -0.30662
11 -0.317573
11.01 -0.328604
11.02 -0.339708
11.03 -0.350877
11.04 -0.362087
11.05 -0.373303
11.06 -0.384477
11.07 -0.395541
11.08 -0.406411
11.09 -0.417014
11.1 -0.427263
11.11 -0.437066
11.12 -0.44633
11.13 -0.454963
11.14 -0.462784
11.15 -0.469775
11.16 -0.475866
11.17 -0.480989
11.18 -0.485088
11.19 -0.48812
11.2 -0.490003
11.21 -0.490692
11.22 -0.490267
11.23 -0.488742
11.24 -0.486145
11.25 -0.482514
11.26 -0.477899
11.27 -0.472274
11.28 -0.465787
11.29 -0.458527
11.3 -0.450568
11.31 -0.441984
11.32 -0.432849
11.33 -0.423218
11.34 -0.413145
11.35 -0.402727
11.36 -0.392012
11.37 -0.381042
11.38 -0.369849
11.39 -0.358457
11.4 -0.346864
11.41 -0.335087
11.42 -0.32313
11.43 -0.310984
11.44 -0.298635
11.45 -0.286067
11.46 -0.273257
11.47 -0.260166
11.48 -0.246802
11.49 -0.233152
11.5 -0.219209
11.51 -0.204973
11.52 -0.19045
11.53 -0.175637
11.54 -0.160571
11.55 -0.145297
11.56 -0.129859
11.57 -0.11431
11.58 -0.0987089
11.59 -0.0831232
11.6 -0.0676429
11.61 -0.0523426
11.62 -0.037302
11.63 -0.0226016
11.64 -0.00832108
11.65 0.00546299
11.66 0.0186361
11.67 0.0311321
11.68 0.0429241
11.69 0.0539653
11.7 0.0642187
11.71 0.0736588
11.72 0.0822698
11.73 0.0899572
11.74 0.0968294
11.75 0.102911
11.76 0.108237
11.77 0.112854
11.78 0.116813
11.79 0.120148
11.8 0.122932
11.81 0.125273
11.82 0.127243
11.83 0.128913
11.84 0.130354
11.85 0.131631
11.86 0.132797
11.87 0.13392
11.88 0.135039
11.89 0.136184
11.9 0.137375
11.91 0.138617
11.92 0.139906
11.93 0.141222
11.94 0.142527
11.95 0.143779
11.96 0.144925
11.97 0.145901
11.98 0.146639
11.99 0.147026
12 0.146998
12.01 0.14648
12.02 0.145391
12.03 0.143656
12.04 0.141199
12.05 0.137927
12.06 0.133728
12.07 0.128622
12.08 0.122573
12.09 0.115554
12.1 0.107553
12.11 0.0985671
12.12 0.0885276
12.13 0.0775162
12.14 0.0656023
12.15 0.052836
12.16 0.0392772
