# xPDFsuite Configuration #
[PDF]
wavelength = 0.1
dataformat = QA
inputfile = BiMsol6_insitu_700 C-00403.xy
backgroundfile = Quartz2mm-dist500-00000.xy
mode = xray
bgscale = 0.0042
composition = Bi2Fe4O9
outputtype = gr
qmaxinst = 24.998449118
qmin = 0.1
qmax = 21.4986662415
rmax = 80.0
rmin = 0.0
rstep = 0.01
rpoly = 0.9

[Misc]
inputdir = C:/Data/Seafile/CPH/Beamtime/Desy Oct 20/In situ data/Processed/BiMsol6/PDF
savedir = C:/Data/Seafile/CPH/Beamtime/Desy Oct 20/In situ data/PDF/BiMsol6
backgroundfilefull = C:/Data/Seafile/CPH/Beamtime/Desy Oct 20/In situ data/Processed/Standard_Empty_Cap/Quartz2mm-dist500-00000.xy

#### start data
#S 1
#L r($\AA$)  G($\AA^{-2}$)
0 0
0.01 0.00702898
0.02 0.0136665
0.03 0.0195775
0.04 0.0244609
0.05 0.0280636
0.06 0.030192
0.07 0.0306337
0.08 0.0293248
0.09 0.0264179
0.1 0.0220375
0.11 0.0163783
0.12 0.00969662
0.13 0.00229913
0.14 -0.00547138
0.15 -0.0131764
0.16 -0.0204465
0.17 -0.0269346
0.18 -0.0323281
0.19 -0.036364
0.2 -0.0387716
0.21 -0.0393623
0.22 -0.0382339
0.23 -0.0354497
0.24 -0.0311574
0.25 -0.0255836
0.26 -0.0190255
0.27 -0.0118183
0.28 -0.0044588
0.29 0.00261119
0.3 0.00896183
0.31 0.0141825
0.32 0.0179017
0.33 0.0197421
0.34 0.0193315
0.35 0.0167109
0.36 0.0118637
0.37 0.00488388
0.38 -0.004023
0.39 -0.0145419
0.4 -0.026312
0.41 -0.0386868
0.42 -0.0510296
0.43 -0.0626934
0.44 -0.0730062
0.45 -0.0812957
0.46 -0.0868503
0.47 -0.0887552
0.48 -0.0867914
0.49 -0.0805755
0.5 -0.0698507
0.51 -0.0545018
0.52 -0.0345662
0.53 -0.00994747
0.54 0.0187986
0.55 0.050929
0.56 0.0857557
0.57 0.12247
0.58 0.160163
0.59 0.197845
0.6 0.23426
0.61 0.268394
0.62 0.299241
0.63 0.325855
0.64 0.347382
0.65 0.363087
0.66 0.371955
0.67 0.373562
0.68 0.36807
0.69 0.355472
0.7 0.33595
0.71 0.309874
0.72 0.277788
0.73 0.239886
0.74 0.197709
0.75 0.152251
0.76 0.104567
0.77 0.0557544
0.78 0.00691855
0.79 -0.0407493
0.8 -0.0860471
0.81 -0.128146
0.82 -0.166255
0.83 -0.199724
0.84 -0.22806
0.85 -0.250936
0.86 -0.267621
0.87 -0.278676
0.88 -0.284406
0.89 -0.285192
0.9 -0.281547
0.91 -0.274094
0.92 -0.263454
0.93 -0.250422
0.94 -0.236031
0.95 -0.22108
0.96 -0.206333
0.97 -0.192501
0.98 -0.180212
0.99 -0.170232
1 -0.162869
1.01 -0.158336
1.02 -0.156771
1.03 -0.158189
1.04 -0.162486
1.05 -0.169514
1.06 -0.179054
1.07 -0.190468
1.08 -0.203296
1.09 -0.21705
1.1 -0.231226
1.11 -0.245333
1.12 -0.258829
1.13 -0.271277
1.14 -0.282365
1.15 -0.291833
1.16 -0.299506
1.17 -0.305295
1.18 -0.309166
1.19 -0.31107
1.2 -0.311369
1.21 -0.310298
1.22 -0.308139
1.23 -0.305206
1.24 -0.30183
1.25 -0.298357
1.26 -0.295145
1.27 -0.292473
1.28 -0.290566
1.29 -0.289596
1.3 -0.28967
1.31 -0.290834
1.32 -0.29316
1.33 -0.296416
1.34 -0.300432
1.35 -0.30499
1.36 -0.309834
1.37 -0.31468
1.38 -0.319203
1.39 -0.32307
1.4 -0.326036
1.41 -0.327873
1.42 -0.328399
1.43 -0.32749
1.44 -0.325083
1.45 -0.321026
1.46 -0.315577
1.47 -0.308903
1.48 -0.301227
1.49 -0.292823
1.5 -0.284009
1.51 -0.275144
1.52 -0.266648
1.53 -0.258879
1.54 -0.252172
1.55 -0.246829
1.56 -0.243102
1.57 -0.241184
1.58 -0.241397
1.59 -0.243614
1.6 -0.247746
1.61 -0.253656
1.62 -0.261131
1.63 -0.269885
1.64 -0.279593
1.65 -0.289821
1.66 -0.300063
1.67 -0.309868
1.68 -0.318787
1.69 -0.326391
1.7 -0.332283
1.71 -0.335908
1.72 -0.337092
1.73 -0.335708
1.74 -0.331656
1.75 -0.324925
1.76 -0.315594
1.77 -0.303774
1.78 -0.289616
1.79 -0.27368
1.8 -0.256367
1.81 -0.238123
1.82 -0.219423
1.83 -0.200753
1.84 -0.182672
1.85 -0.165676
1.86 -0.150151
1.87 -0.136447
1.88 -0.124848
1.89 -0.115558
1.9 -0.108736
1.91 -0.104621
1.92 -0.102886
1.93 -0.103368
1.94 -0.105829
1.95 -0.109967
1.96 -0.115424
1.97 -0.121837
1.98 -0.128702
1.99 -0.135549
2 -0.141962
2.01 -0.147555
2.02 -0.151982
2.03 -0.154948
2.04 -0.156027
2.05 -0.155262
2.06 -0.152605
2.07 -0.148087
2.08 -0.14182
2.09 -0.133989
2.1 -0.12479
2.11 -0.114586
2.12 -0.103818
2.13 -0.0928793
2.14 -0.0821772
2.15 -0.0721176
2.16 -0.0630909
2.17 -0.0556464
2.18 -0.0499828
2.19 -0.0463394
2.2 -0.0449025
2.21 -0.0457893
2.22 -0.049045
2.23 -0.0547434
2.24 -0.0628196
2.25 -0.0729249
2.26 -0.0848205
2.27 -0.0982202
2.28 -0.112801
2.29 -0.128214
2.3 -0.144108
2.31 -0.160045
2.32 -0.175672
2.33 -0.19067
2.34 -0.204757
2.35 -0.217693
2.36 -0.229238
2.37 -0.239173
2.38 -0.247551
2.39 -0.254363
2.4 -0.259657
2.41 -0.263528
2.42 -0.266114
2.43 -0.267513
2.44 -0.268018
2.45 -0.267886
2.46 -0.267348
2.47 -0.266633
2.48 -0.26596
2.49 -0.265538
2.5 -0.265592
2.51 -0.266233
2.52 -0.267562
2.53 -0.269646
2.54 -0.272515
2.55 -0.276162
2.56 -0.280601
2.57 -0.285723
2.58 -0.291401
2.59 -0.297517
2.6 -0.303943
2.61 -0.310546
2.62 -0.317188
2.63 -0.323715
2.64 -0.330008
2.65 -0.335961
2.66 -0.341486
2.67 -0.346514
2.68 -0.350991
2.69 -0.354844
2.7 -0.358063
2.71 -0.360679
2.72 -0.3627
2.73 -0.364143
2.74 -0.36503
2.75 -0.365378
2.76 -0.365146
2.77 -0.364403
2.78 -0.363145
2.79 -0.361358
2.8 -0.359018
2.81 -0.356086
2.82 -0.352477
2.83 -0.348117
2.84 -0.342981
2.85 -0.337003
2.86 -0.330116
2.87 -0.322259
2.88 -0.313381
2.89 -0.303327
2.9 -0.292176
2.91 -0.279941
2.92 -0.266645
2.93 -0.252332
2.94 -0.237071
2.95 -0.220919
2.96 -0.203982
2.97 -0.186453
2.98 -0.168476
2.99 -0.150204
3 -0.131796
3.01 -0.113405
3.02 -0.0952138
3.03 -0.0773603
3.04 -0.0599596
3.05 -0.0431098
3.06 -0.0268852
3.07 -0.0113347
3.08 0.00349812
3.09 0.0175864
3.1 0.0310283
3.11 0.0438861
3.12 0.0562426
3.13 0.0681967
3.14 0.0798596
3.15 0.0913448
3.16 0.102795
3.17 0.114329
3.18 0.126049
3.19 0.138042
3.2 0.150374
3.21 0.1631
3.22 0.176266
3.23 0.189821
3.24 0.20372
3.25 0.217896
3.26 0.232256
3.27 0.246686
3.28 0.261039
3.29 0.275152
3.3 0.288876
3.31 0.302059
3.32 0.314551
3.33 0.326214
3.34 0.336914
3.35 0.346434
3.36 0.354802
3.37 0.361972
3.38 0.36792
3.39 0.372656
3.4 0.376214
3.41 0.378593
3.42 0.379903
3.43 0.380318
3.44 0.379966
3.45 0.378988
3.46 0.377532
3.47 0.375749
3.48 0.373783
3.49 0.371808
3.5 0.369954
3.51 0.368336
3.52 0.367052
3.53 0.366182
3.54 0.365815
3.55 0.366002
3.56 0.366731
3.57 0.368005
3.58 0.369813
3.59 0.372132
3.6 0.37493
3.61 0.378214
3.62 0.381899
3.63 0.385943
3.64 0.390311
3.65 0.394975
3.66 0.399914
3.67 0.405126
3.68 0.410617
3.69 0.416373
3.7 0.422405
3.71 0.428731
3.72 0.43537
3.73 0.44234
3.74 0.449691
3.75 0.457408
3.76 0.465481
3.77 0.473897
3.78 0.482628
3.79 0.491629
3.8 0.500843
3.81 0.510186
3.82 0.519541
3.83 0.528791
3.84 0.537806
3.85 0.546444
3.86 0.554553
3.87 0.561909
3.88 0.568364
3.89 0.573789
3.9 0.578035
3.91 0.580964
3.92 0.582454
3.93 0.582366
3.94 0.580472
3.95 0.576867
3.96 0.57151
3.97 0.564386
3.98 0.555498
3.99 0.544875
4 0.532445
4.01 0.518325
4.02 0.502674
4.03 0.485582
4.04 0.46715
4.05 0.447482
4.06 0.426678
4.07 0.404753
4.08 0.381931
4.09 0.358311
4.1 0.333987
4.11 0.309046
4.12 0.283568
4.13 0.257604
4.14 0.231238
4.15 0.204559
4.16 0.177632
4.17 0.150521
4.18 0.123291
4.19 0.0960121
4.2 0.068769
4.21 0.041648
4.22 0.014737
4.23 -0.0118692
4.24 -0.0380695
4.25 -0.0637574
4.26 -0.0887864
4.27 -0.113014
4.28 -0.136372
4.29 -0.158755
4.3 -0.180062
4.31 -0.200204
4.32 -0.219104
4.33 -0.236563
4.34 -0.25265
4.35 -0.267368
4.36 -0.280721
4.37 -0.292735
4.38 -0.303457
4.39 -0.312914
4.4 -0.321162
4.41 -0.328404
4.42 -0.334764
4.43 -0.340371
4.44 -0.345362
4.45 -0.349874
4.46 -0.354022
4.47 -0.357968
4.48 -0.361831
4.49 -0.365709
4.5 -0.369678
4.51 -0.373793
4.52 -0.378096
4.53 -0.382607
4.54 -0.387294
4.55 -0.392119
4.56 -0.397026
4.57 -0.401943
4.58 -0.406787
4.59 -0.411444
4.6 -0.415813
4.61 -0.419804
4.62 -0.423328
4.63 -0.426306
4.64 -0.428671
4.65 -0.430362
4.66 -0.431288
4.67 -0.431512
4.68 -0.431051
4.69 -0.429942
4.7 -0.428245
4.71 -0.426035
4.72 -0.423383
4.73 -0.420419
4.74 -0.417278
4.75 -0.41408
4.76 -0.410943
4.77 -0.407981
4.78 -0.405304
4.79 -0.403056
4.8 -0.401278
4.81 -0.400028
4.82 -0.399345
4.83 -0.39925
4.84 -0.39974
4.85 -0.400828
4.86 -0.40247
4.87 -0.404577
4.88 -0.407082
4.89 -0.40991
4.9 -0.41298
4.91 -0.41621
4.92 -0.41952
4.93 -0.422819
4.94 -0.42604
4.95 -0.429126
4.96 -0.432032
4.97 -0.434725
4.98 -0.437171
4.99 -0.439354
5 -0.441292
5.01 -0.442994
5.02 -0.444473
5.03 -0.445743
5.04 -0.446817
5.05 -0.447686
5.06 -0.448362
5.07 -0.448835
5.08 -0.449078
5.09 -0.449048
5.1 -0.448686
5.11 -0.447897
5.12 -0.446552
5.13 -0.444573
5.14 -0.441837
5.15 -0.438212
5.16 -0.433559
5.17 -0.427737
5.18 -0.420479
5.19 -0.411716
5.2 -0.401369
5.21 -0.389336
5.22 -0.375534
5.23 -0.359902
5.24 -0.34236
5.25 -0.322773
5.26 -0.301341
5.27 -0.278116
5.28 -0.253178
5.29 -0.226628
5.3 -0.19859
5.31 -0.169113
5.32 -0.138424
5.33 -0.106743
5.34 -0.0742395
5.35 -0.0410827
5.36 -0.00743817
5.37 0.0265388
5.38 0.0607014
5.39 0.094889
5.4 0.128987
5.41 0.162897
5.42 0.196535
5.43 0.229831
5.44 0.262697
5.45 0.295084
5.46 0.326972
5.47 0.35832
5.48 0.389085
5.49 0.419218
5.5 0.448658
5.51 0.477238
5.52 0.504945
5.53 0.531669
5.54 0.557281
5.55 0.581634
5.56 0.604562
5.57 0.625785
5.58 0.645068
5.59 0.662309
5.6 0.677306
5.61 0.689857
5.62 0.699772
5.63 0.706874
5.64 0.710674
5.65 0.711332
5.66 0.708786
5.67 0.702988
5.68 0.693927
5.69 0.681635
5.7 0.666056
5.71 0.647242
5.72 0.625594
5.73 0.601318
5.74 0.574656
5.75 0.545874
5.76 0.515263
5.77 0.483009
5.78 0.44958
5.79 0.415317
5.8 0.380524
5.81 0.345491
5.82 0.310486
5.83 0.27577
5.84 0.241605
5.85 0.208138
5.86 0.175505
5.87 0.143809
5.88 0.11312
5.89 0.0834759
5.9 0.0549785
5.91 0.0275527
5.92 0.0011318
5.93 -0.0243288
5.94 -0.0488784
5.95 -0.0725654
5.96 -0.0954146
5.97 -0.1174
5.98 -0.13861
5.99 -0.159032
6 -0.178633
6.01 -0.197359
6.02 -0.215129
6.03 -0.231756
6.04 -0.247137
6.05 -0.261178
6.06 -0.273735
6.07 -0.284658
6.08 -0.2938
6.09 -0.301001
6.1 -0.305928
6.11 -0.308693
6.12 -0.309225
6.13 -0.307489
6.14 -0.30348
6.15 -0.297234
6.16 -0.288693
6.17 -0.278015
6.18 -0.265471
6.19 -0.251252
6.2 -0.235578
6.21 -0.21869
6.22 -0.200849
6.23 -0.182278
6.24 -0.163355
6.25 -0.14435
6.26 -0.125516
6.27 -0.107091
6.28 -0.0892837
6.29 -0.0723256
6.3 -0.0563886
6.31 -0.0415156
6.32 -0.0277629
6.33 -0.0151464
6.34 -0.00364323
6.35 0.00680652
6.36 0.0162078
6.37 0.0247912
6.38 0.0327195
6.39 0.0401606
6.4 0.0472929
6.41 0.0542984
6.42 0.0613664
6.43 0.0686987
6.44 0.0764418
6.45 0.0847287
6.46 0.0936694
6.47 0.103348
6.48 0.113822
6.49 0.125198
6.5 0.137415
6.51 0.150422
6.52 0.164167
6.53 0.178578
6.54 0.193566
6.55 0.209045
6.56 0.224914
6.57 0.241026
6.58 0.257275
6.59 0.273565
6.6 0.289807
6.61 0.305926
6.62 0.321842
6.63 0.337516
6.64 0.35293
6.65 0.368072
6.66 0.382944
6.67 0.397561
6.68 0.41194
6.69 0.426095
6.7 0.440075
6.71 0.453905
6.72 0.467603
6.73 0.481174
6.74 0.494614
6.75 0.507887
6.76 0.52095
6.77 0.533748
6.78 0.5462
6.79 0.558205
6.8 0.569647
6.81 0.580388
6.82 0.59018
6.83 0.598946
6.84 0.606526
6.85 0.612758
6.86 0.617484
6.87 0.620553
6.88 0.621707
6.89 0.620811
6.9 0.617865
6.91 0.612784
6.92 0.605509
6.93 0.596002
6.94 0.584251
6.95 0.570015
6.96 0.553586
6.97 0.535033
6.98 0.514438
6.99 0.491902
7 0.467538
7.01 0.441396
7.02 0.413606
7.03 0.384425
7.04 0.353998
7.05 0.322473
7.06 0.289993
7.07 0.2567
7.08 0.222674
7.09 0.188119
7.1 0.153164
7.11 0.117926
7.12 0.0825109
7.13 0.0470222
7.14 0.0115614
7.15 -0.0237623
7.16 -0.0588635
7.17 -0.0936563
7.18 -0.128056
7.19 -0.161978
7.2 -0.195338
7.21 -0.227983
7.22 -0.259863
7.23 -0.290906
7.24 -0.321028
7.25 -0.350146
7.26 -0.378176
7.27 -0.405006
7.28 -0.430476
7.29 -0.454626
7.3 -0.477397
7.31 -0.49874
7.32 -0.518616
7.33 -0.536997
7.34 -0.553743
7.35 -0.568921
7.36 -0.582596
7.37 -0.594793
7.38 -0.605547
7.39 -0.614903
7.4 -0.622896
7.41 -0.629492
7.42 -0.634895
7.43 -0.639181
7.44 -0.642429
7.45 -0.644717
7.46 -0.646123
7.47 -0.646671
7.48 -0.646461
7.49 -0.645592
7.5 -0.644121
7.51 -0.642099
7.52 -0.639566
7.53 -0.636552
7.54 -0.633036
7.55 -0.629085
7.56 -0.624706
7.57 -0.619898
7.58 -0.614658
7.59 -0.608976
7.6 -0.602809
7.61 -0.59614
7.62 -0.588979
7.63 -0.581306
7.64 -0.573107
7.65 -0.564365
7.66 -0.555071
7.67 -0.545151
7.68 -0.534661
7.69 -0.523607
7.7 -0.511993
7.71 -0.499834
7.72 -0.487144
7.73 -0.473925
7.74 -0.460201
7.75 -0.446042
7.76 -0.43149
7.77 -0.416593
7.78 -0.401403
7.79 -0.38598
7.8 -0.370377
7.81 -0.354684
7.82 -0.33898
7.83 -0.323342
7.84 -0.307851
7.85 -0.292592
7.86 -0.277665
7.87 -0.263185
7.88 -0.249213
7.89 -0.235831
7.9 -0.223121
7.91 -0.211159
7.92 -0.200016
7.93 -0.189838
7.94 -0.180632
7.95 -0.172414
7.96 -0.165218
7.97 -0.159062
7.98 -0.153955
7.99 -0.149917
8 -0.146996
8.01 -0.145063
8.02 -0.144074
8.03 -0.143973
8.04 -0.144697
8.05 -0.146174
8.06 -0.148371
8.07 -0.15117
8.08 -0.15446
8.09 -0.158157
8.1 -0.16218
8.11 -0.16645
8.12 -0.170897
8.13 -0.17546
8.14 -0.180066
8.15 -0.184671
8.16 -0.189238
8.17 -0.193739
8.18 -0.198155
8.19 -0.202467
8.2 -0.206669
8.21 -0.210765
8.22 -0.214756
8.23 -0.218641
8.24 -0.222418
8.25 -0.226079
8.26 -0.229594
8.27 -0.23295
8.28 -0.236113
8.29 -0.239036
8.3 -0.24166
8.31 -0.243915
8.32 -0.245688
8.33 -0.246866
8.34 -0.247374
8.35 -0.247098
8.36 -0.245922
8.37 -0.243727
8.38 -0.240394
8.39 -0.235661
8.4 -0.229536
8.41 -0.221936
8.42 -0.212777
8.43 -0.201993
8.44 -0.189535
8.45 -0.175296
8.46 -0.159222
8.47 -0.141451
8.48 -0.12202
8.49 -0.100984
8.5 -0.0784169
8.51 -0.0544079
8.52 -0.02894
8.53 -0.00224807
8.54 0.025519
8.55 0.0542329
8.56 0.0837642
8.57 0.113985
8.58 0.144785
8.59 0.176056
8.6 0.207644
8.61 0.239452
8.62 0.271396
8.63 0.3034
8.64 0.335398
8.65 0.367326
8.66 0.399135
8.67 0.430787
8.68 0.462245
8.69 0.493474
8.7 0.524437
8.71 0.555082
8.72 0.58533
8.73 0.615151
8.74 0.644473
8.75 0.673213
8.76 0.701277
8.77 0.728554
8.78 0.754842
8.79 0.78002
8.8 0.803979
8.81 0.826563
8.82 0.847613
8.83 0.866967
8.84 0.884438
8.85 0.899663
8.86 0.912693
8.87 0.92339
8.88 0.931633
8.89 0.937314
8.9 0.940348
8.91 0.940485
8.92 0.937713
8.93 0.932155
8.94 0.923813
8.95 0.91271
8.96 0.898892
8.97 0.882414
8.98 0.86307
8.99 0.841258
9 0.817083
9.01 0.790658
9.02 0.762101
9.03 0.731533
9.04 0.698985
9.05 0.664583
9.06 0.628569
9.07 0.591065
9.08 0.552191
9.09 0.512067
9.1 0.470812
9.11 0.428452
9.12 0.385219
9.13 0.341252
9.14 0.296684
9.15 0.251655
9.16 0.206315
9.17 0.160824
9.18 0.115379
9.19 0.0701733
9.2 0.0254013
9.21 -0.0187325
9.22 -0.0620154
9.23 -0.104228
9.24 -0.145002
9.25 -0.184183
9.26 -0.221579
9.27 -0.256977
9.28 -0.290172
9.29 -0.320975
9.3 -0.349128
9.31 -0.374319
9.32 -0.396648
9.33 -0.416023
9.34 -0.43238
9.35 -0.445683
9.36 -0.455929
9.37 -0.462887
9.38 -0.46678
9.39 -0.46779
9.4 -0.466024
9.41 -0.461607
9.42 -0.454681
9.43 -0.445352
9.44 -0.433637
9.45 -0.419922
9.46 -0.404369
9.47 -0.387136
9.48 -0.36837
9.49 -0.34821
9.5 -0.326696
9.51 -0.303991
9.52 -0.280243
9.53 -0.255533
9.54 -0.229928
9.55 -0.203487
9.56 -0.176253
9.57 -0.148204
9.58 -0.119466
9.59 -0.0900855
9.6 -0.0601149
9.61 -0.0296147
9.62 0.00134245
9.63 0.0326862
9.64 0.0642924
9.65 0.0960172
9.66 0.127718
9.67 0.159238
9.68 0.190401
9.69 0.221021
9.7 0.250791
9.71 0.279572
9.72 0.307157
9.73 0.333342
9.74 0.35793
9.75 0.380736
9.76 0.401483
9.77 0.419973
9.78 0.436218
9.79 0.450129
9.8 0.461647
9.81 0.470743
9.82 0.477421
9.83 0.481473
9.84 0.483195
9.85 0.482718
9.86 0.480165
9.87 0.475681
9.88 0.469427
9.89 0.461519
9.9 0.452112
9.91 0.441506
9.92 0.429881
9.93 0.417407
9.94 0.404241
9.95 0.390528
9.96 0.376365
9.97 0.361896
9.98 0.347212
9.99 0.332372
10 0.317418
10.01 0.302371
10.02 0.287233
10.03 0.27199
10.04 0.256628
10.05 0.241118
10.06 0.225432
10.07 0.209539
10.08 0.193413
10.09 0.177014
10.1 0.160342
10.11 0.143412
10.12 0.126239
10.13 0.108855
10.14 0.0913028
10.15 0.0736377
10.16 0.0559337
10.17 0.0382802
10.18 0.0207632
10.19 0.00347243
10.2 -0.0135011
10.21 -0.0300684
10.22 -0.0461046
10.23 -0.0615363
10.24 -0.076323
10.25 -0.0904139
10.26 -0.103773
10.27 -0.116377
10.28 -0.128217
10.29 -0.139228
10.3 -0.14952
10.31 -0.159136
10.32 -0.168129
10.33 -0.176559
10.34 -0.184495
10.35 -0.19199
10.36 -0.199131
10.37 -0.206012
10.38 -0.212701
10.39 -0.21926
10.4 -0.225743
10.41 -0.232193
10.42 -0.238645
10.43 -0.245123
10.44 -0.251634
10.45 -0.258177
10.46 -0.264742
10.47 -0.27131
10.48 -0.277855
10.49 -0.284344
10.5 -0.29075
10.51 -0.297042
10.52 -0.303195
10.53 -0.309188
10.54 -0.315004
10.55 -0.320617
10.56 -0.326044
10.57 -0.331297
10.58 -0.336394
10.59 -0.341361
10.6 -0.34623
10.61 -0.351036
10.62 -0.355825
10.63 -0.360643
10.64 -0.365529
10.65 -0.370522
10.66 -0.375653
10.67 -0.380946
10.68 -0.386438
10.69 -0.392121
10.7 -0.397986
10.71 -0.404016
10.72 -0.410184
10.73 -0.416454
10.74 -0.42278
10.75 -0.429102
10.76 -0.435356
10.77 -0.441481
10.78 -0.447415
10.79 -0.453097
10.8 -0.45847
10.81 -0.463454
10.82 -0.468017
10.83 -0.472145
10.84 -0.475821
10.85 -0.479037
10.86 -0.481802
10.87 -0.484129
10.88 -0.486016
10.89 -0.487549
10.9 -0.488779
10.91 -0.489759
10.92 -0.490547
10.93 -0.491202
10.94 -0.491778
10.95 -0.492332
10.96 -0.492909
10.97 -0.493539
10.98 -0.494241
10.99 -0.495018
11 -0.495861
11.01 -0.496744
11.02 -0.497617
11.03 -0.498421
11.04 -0.499086
11.05 -0.499531
11.06 -0.499667
11.07 -0.49937
11.08 -0.498525
11.09 -0.497059
11.1 -0.49488
11.11 -0.491901
11.12 -0.488046
11.13 -0.48325
11.14 -0.477352
11.15 -0.470419
11.16 -0.462449
11.17 -0.453446
11.18 -0.443437
11.19 -0.432463
11.2 -0.420544
11.21 -0.407745
11.22 -0.394218
11.23 -0.38006
11.24 -0.365376
11.25 -0.350273
11.26 -0.334859
11.27 -0.31923
11.28 -0.303515
11.29 -0.287807
11.3 -0.272186
11.31 -0.256721
11.32 -0.241466
11.33 -0.226472
11.34 -0.211777
11.35 -0.197367
11.36 -0.183233
11.37 -0.169356
11.38 -0.155701
11.39 -0.142227
11.4 -0.128888
11.41 -0.11561
11.42 -0.10233
11.43 -0.088982
11.44 -0.0755041
11.45 -0.0618357
11.46 -0.0479131
11.47 -0.0336592
11.48 -0.019056
11.49 -0.00406918
11.5 0.0113273
11.51 0.0271512
11.52 0.0434119
11.53 0.0601443
11.54 0.0773244
11.55 0.0949206
11.56 0.112913
11.57 0.131279
11.58 0.149988
11.59 0.169016
11.6 0.188351
11.61 0.207927
11.62 0.22771
11.63 0.247666
11.64 0.267761
11.65 0.287961
11.66 0.308235
11.67 0.328544
11.68 0.34885
11.69 0.369117
11.7 0.38931
11.71 0.409389
11.72 0.429313
11.73 0.44901
11.74 0.468451
11.75 0.487584
11.76 0.506354
11.77 0.524701
11.78 0.542563
11.79 0.559841
11.8 0.57645
11.81 0.592354
11.82 0.607481
11.83 0.621758
11.84 0.635113
11.85 0.647474
11.86 0.658649
11.87 0.668671
11.88 0.677487
11.89 0.685039
11.9 0.691275
11.91 0.696146
11.92 0.699548
11.93 0.701398
11.94 0.701771
11.95 0.700647
11.96 0.698011
11.97 0.693854
11.98 0.688173
11.99 0.680828
12 0.671948
12.01 0.66158
12.02 0.649751
12.03 0.636491
12.04 0.621836
12.05 0.605787
12.06 0.588335
12.07 0.569652
12.08 0.5498
12.09 0.528854
12.1 0.50689
12.11 0.483994
12.12 0.460195
12.13 0.435651
12.14 0.410496
12.15 0.384842
12.16 0.358809
12.17 0.332518
12.18 0.306097
12.19 0.279692
12.2 0.253447
12.21 0.227491
12.22 0.201957
12.23 0.176971
12.24 0.152659
12.25 0.129206
12.26 0.106714
12.27 0.0852491
