# xPDFsuite Configuration #
[PDF]
wavelength = 0.1
dataformat = QA
inputfile = BiMsol6_insitu_700 C-00569.xy
backgroundfile = Quartz2mm-dist500-00000.xy
mode = xray
bgscale = 0.0042
composition = Bi2Fe4O9
outputtype = gr
qmaxinst = 24.998449118
qmin = 0.1
qmax = 21.4986662415
rmax = 80.0
rmin = 0.0
rstep = 0.01
rpoly = 0.9

[Misc]
inputdir = C:/Data/Seafile/CPH/Beamtime/Desy Oct 20/In situ data/Processed/BiMsol6/PDF
savedir = C:/Data/Seafile/CPH/Beamtime/Desy Oct 20/In situ data/PDF/BiMsol6
backgroundfilefull = C:/Data/Seafile/CPH/Beamtime/Desy Oct 20/In situ data/Processed/Standard_Empty_Cap/Quartz2mm-dist500-00000.xy

#### start data
#S 1
#L r($\AA$)  G($\AA^{-2}$)
0 0
0.01 0.00528754
0.02 0.0102658
0.03 0.0146703
0.04 0.0182644
0.05 0.0208502
0.06 0.0222778
0.07 0.0223848
0.08 0.0211277
0.09 0.0186331
0.1 0.0150072
0.11 0.0104118
0.12 0.00505734
0.13 -0.000806543
0.14 -0.00689594
0.15 -0.012866
0.16 -0.0184247
0.17 -0.0232993
0.18 -0.0272481
0.19 -0.0300724
0.2 -0.0315695
0.21 -0.0316086
0.22 -0.0302896
0.23 -0.0276856
0.24 -0.0239377
0.25 -0.0192505
0.26 -0.0138845
0.27 -0.0081427
0.28 -0.0024327
0.29 0.00288192
0.3 0.0074494
0.31 0.0109393
0.32 0.0130592
0.33 0.013515
0.34 0.0120247
0.35 0.0086634
0.36 0.00345452
0.37 -0.00348386
0.38 -0.0119383
0.39 -0.0216034
0.4 -0.0321174
0.41 -0.0429043
0.42 -0.0534021
0.43 -0.0630384
0.44 -0.0712256
0.45 -0.0773829
0.46 -0.0808968
0.47 -0.0809733
0.48 -0.0774723
0.49 -0.0700917
0.5 -0.0586445
0.51 -0.0430717
0.52 -0.0234506
0.53 0.000252051
0.54 0.0274961
0.55 0.0575848
0.56 0.0898701
0.57 0.1236
0.58 0.157941
0.59 0.191985
0.6 0.224568
0.61 0.25481
0.62 0.281811
0.63 0.304733
0.64 0.322822
0.65 0.335438
0.66 0.34168
0.67 0.341195
0.68 0.334173
0.69 0.320634
0.7 0.300775
0.71 0.274958
0.72 0.243704
0.73 0.20722
0.74 0.166924
0.75 0.123737
0.76 0.0786339
0.77 0.0326257
0.78 -0.0132706
0.79 -0.0579548
0.8 -0.100322
0.81 -0.139623
0.82 -0.175133
0.83 -0.206255
0.84 -0.232538
0.85 -0.253683
0.86 -0.269007
0.87 -0.279032
0.88 -0.284043
0.89 -0.284389
0.9 -0.28054
0.91 -0.273072
0.92 -0.262552
0.93 -0.249712
0.94 -0.235519
0.95 -0.220718
0.96 -0.206024
0.97 -0.192105
0.98 -0.17956
0.99 -0.169112
1 -0.161073
1.01 -0.155666
1.02 -0.153044
1.03 -0.153247
1.04 -0.156206
1.05 -0.161812
1.06 -0.169899
1.07 -0.179885
1.08 -0.191361
1.09 -0.203884
1.1 -0.216995
1.11 -0.230238
1.12 -0.24312
1.13 -0.255211
1.14 -0.266195
1.15 -0.275805
1.16 -0.283848
1.17 -0.290206
1.18 -0.294809
1.19 -0.297564
1.2 -0.298764
1.21 -0.298584
1.22 -0.29725
1.23 -0.295017
1.24 -0.292161
1.25 -0.288963
1.26 -0.28574
1.27 -0.282753
1.28 -0.28021
1.29 -0.278279
1.3 -0.277072
1.31 -0.276656
1.32 -0.277108
1.33 -0.278273
1.34 -0.280034
1.35 -0.282232
1.36 -0.284674
1.37 -0.287144
1.38 -0.289387
1.39 -0.291143
1.4 -0.292218
1.41 -0.292428
1.42 -0.291629
1.43 -0.289723
1.44 -0.286661
1.45 -0.282328
1.46 -0.27693
1.47 -0.270605
1.48 -0.263538
1.49 -0.255953
1.5 -0.248113
1.51 -0.240315
1.52 -0.232906
1.53 -0.22617
1.54 -0.220379
1.55 -0.215775
1.56 -0.212557
1.57 -0.210875
1.58 -0.210983
1.59 -0.21276
1.6 -0.216115
1.61 -0.220918
1.62 -0.226975
1.63 -0.234032
1.64 -0.241797
1.65 -0.24989
1.66 -0.257881
1.67 -0.265384
1.68 -0.272015
1.69 -0.277409
1.7 -0.281233
1.71 -0.283008
1.72 -0.282602
1.73 -0.279918
1.74 -0.274881
1.75 -0.267491
1.76 -0.257826
1.77 -0.245989
1.78 -0.232116
1.79 -0.216696
1.8 -0.200076
1.81 -0.182638
1.82 -0.164786
1.83 -0.146932
1.84 -0.129544
1.85 -0.113034
1.86 -0.0977214
1.87 -0.0838911
1.88 -0.0717693
1.89 -0.0615151
1.9 -0.0532451
1.91 -0.0471383
1.92 -0.0429156
1.93 -0.0404322
1.94 -0.0394839
1.95 -0.0398166
1.96 -0.0411371
1.97 -0.0431479
1.98 -0.0454568
1.99 -0.047707
2 -0.0495923
2.01 -0.0508396
2.02 -0.0512203
2.03 -0.0505559
2.04 -0.0486022
2.05 -0.0454555
2.06 -0.0411604
2.07 -0.0358303
2.08 -0.0296436
2.09 -0.0228375
2.1 -0.0156997
2.11 -0.00861229
2.12 -0.00195071
2.13 0.00391738
2.14 0.00862911
2.15 0.0118403
2.16 0.0132387
2.17 0.0123047
2.18 0.00902931
2.19 0.0032986
2.2 -0.00494536
2.21 -0.0156857
2.22 -0.0288305
2.23 -0.0443052
2.24 -0.0618846
2.25 -0.0811012
2.26 -0.101597
2.27 -0.122976
2.28 -0.14482
2.29 -0.166699
2.3 -0.188105
2.31 -0.208621
2.32 -0.227885
2.33 -0.245571
2.34 -0.261409
2.35 -0.275189
2.36 -0.28669
2.37 -0.295729
2.38 -0.302508
2.39 -0.307111
2.4 -0.309684
2.41 -0.31043
2.42 -0.309598
2.43 -0.30739
2.44 -0.304235
2.45 -0.300496
2.46 -0.296502
2.47 -0.292567
2.48 -0.288984
2.49 -0.286032
2.5 -0.284013
2.51 -0.283028
2.52 -0.283184
2.53 -0.284541
2.54 -0.287101
2.55 -0.290821
2.56 -0.29568
2.57 -0.301484
2.58 -0.308016
2.59 -0.31508
2.6 -0.322462
2.61 -0.329946
2.62 -0.337311
2.63 -0.344297
2.64 -0.35074
2.65 -0.356484
2.66 -0.361402
2.67 -0.365403
2.68 -0.36843
2.69 -0.370397
2.7 -0.371337
2.71 -0.371356
2.72 -0.370534
2.73 -0.368973
2.74 -0.366792
2.75 -0.36412
2.76 -0.361067
2.77 -0.357818
2.78 -0.354496
2.79 -0.351212
2.8 -0.34806
2.81 -0.345114
2.82 -0.342441
2.83 -0.340076
2.84 -0.338002
2.85 -0.336201
2.86 -0.334636
2.87 -0.333255
2.88 -0.331994
2.89 -0.330777
2.9 -0.329518
2.91 -0.328141
2.92 -0.326576
2.93 -0.32476
2.94 -0.322641
2.95 -0.32016
2.96 -0.317273
2.97 -0.313991
2.98 -0.310308
2.99 -0.306229
3 -0.301762
3.01 -0.296917
3.02 -0.291672
3.03 -0.286059
3.04 -0.280082
3.05 -0.273724
3.06 -0.266957
3.07 -0.259735
3.08 -0.251975
3.09 -0.243552
3.1 -0.234413
3.11 -0.224442
3.12 -0.213517
3.13 -0.201505
3.14 -0.188274
3.15 -0.173567
3.16 -0.157322
3.17 -0.139478
3.18 -0.119956
3.19 -0.0986998
3.2 -0.0756853
3.21 -0.0508882
3.22 -0.0242408
3.23 0.00398974
3.24 0.0336639
3.25 0.0646029
3.26 0.0965913
3.27 0.12938
3.28 0.162707
3.29 0.19621
3.3 0.229547
3.31 0.262389
3.32 0.294406
3.33 0.325277
3.34 0.354676
3.35 0.382115
3.36 0.407507
3.37 0.430636
3.38 0.451326
3.39 0.469442
3.4 0.484892
3.41 0.497457
3.42 0.507162
3.43 0.514203
3.44 0.518663
3.45 0.520659
3.46 0.520337
3.47 0.517862
3.48 0.513213
3.49 0.506829
3.5 0.498909
3.51 0.489649
3.52 0.479238
3.53 0.467852
3.54 0.455619
3.55 0.442695
3.56 0.429252
3.57 0.415392
3.58 0.401199
3.59 0.386741
3.6 0.37207
3.61 0.357215
3.62 0.342228
3.63 0.32714
3.64 0.311979
3.65 0.296778
3.66 0.281577
3.67 0.266429
3.68 0.25141
3.69 0.236593
3.7 0.22207
3.71 0.207945
3.72 0.194336
3.73 0.181371
3.74 0.169273
3.75 0.158147
3.76 0.148117
3.77 0.139323
3.78 0.131898
3.79 0.125968
3.8 0.121689
3.81 0.119263
3.82 0.118612
3.83 0.119779
3.84 0.122783
3.85 0.127616
3.86 0.134248
3.87 0.142759
3.88 0.152973
3.89 0.164725
3.9 0.177894
3.91 0.192341
3.92 0.207919
3.93 0.224485
3.94 0.241921
3.95 0.259973
3.96 0.27848
3.97 0.297286
3.98 0.316243
3.99 0.33521
4 0.35404
4.01 0.372603
4.02 0.390799
4.03 0.408534
4.04 0.425722
4.05 0.442288
4.06 0.458157
4.07 0.473183
4.08 0.487387
4.09 0.500716
4.1 0.51312
4.11 0.524547
4.12 0.534949
4.13 0.544208
4.14 0.55227
4.15 0.559148
4.16 0.564791
4.17 0.569154
4.18 0.572192
4.19 0.573864
4.2 0.573974
4.21 0.572643
4.22 0.569859
4.23 0.565609
4.24 0.559894
4.25 0.55272
4.26 0.544038
4.27 0.533853
4.28 0.522304
4.29 0.509436
4.3 0.495306
4.31 0.479972
4.32 0.463499
4.33 0.44585
4.34 0.427196
4.35 0.407618
4.36 0.387182
4.37 0.36595
4.38 0.34398
4.39 0.321303
4.4 0.297951
4.41 0.274022
4.42 0.24956
4.43 0.224607
4.44 0.199203
4.45 0.173391
4.46 0.147188
4.47 0.120675
4.48 0.0939165
4.49 0.0669788
4.5 0.0399347
4.51 0.0128668
4.52 -0.0141286
4.53 -0.0409253
4.54 -0.0674196
4.55 -0.0934938
4.56 -0.119025
4.57 -0.143888
4.58 -0.167958
4.59 -0.191029
4.6 -0.213011
4.61 -0.233833
4.62 -0.253405
4.63 -0.27165
4.64 -0.288512
4.65 -0.30393
4.66 -0.317765
4.67 -0.330176
4.68 -0.341198
4.69 -0.350888
4.7 -0.359324
4.71 -0.366601
4.72 -0.37277
4.73 -0.377995
4.74 -0.382464
4.75 -0.386315
4.76 -0.389689
4.77 -0.392723
4.78 -0.395544
4.79 -0.398271
4.8 -0.401024
4.81 -0.403883
4.82 -0.406908
4.83 -0.410139
4.84 -0.413593
4.85 -0.41728
4.86 -0.421171
4.87 -0.425207
4.88 -0.429328
4.89 -0.43346
4.9 -0.437524
4.91 -0.441432
4.92 -0.445059
4.93 -0.448337
4.94 -0.451187
4.95 -0.45354
4.96 -0.455337
4.97 -0.456532
4.98 -0.457064
4.99 -0.456901
5 -0.456093
5.01 -0.454656
5.02 -0.452619
5.03 -0.450022
5.04 -0.446915
5.05 -0.44331
5.06 -0.439307
5.07 -0.434969
5.08 -0.430347
5.09 -0.425486
5.1 -0.420421
5.11 -0.415172
5.12 -0.409747
5.13 -0.404159
5.14 -0.398398
5.15 -0.392441
5.16 -0.386258
5.17 -0.379811
5.18 -0.373028
5.19 -0.36588
5.2 -0.358334
5.21 -0.350355
5.22 -0.341919
5.23 -0.333008
5.24 -0.32361
5.25 -0.31371
5.26 -0.303385
5.27 -0.292687
5.28 -0.281683
5.29 -0.270456
5.3 -0.2591
5.31 -0.247733
5.32 -0.236486
5.33 -0.225481
5.34 -0.214841
5.35 -0.204684
5.36 -0.195119
5.37 -0.186258
5.38 -0.178264
5.39 -0.171127
5.4 -0.164888
5.41 -0.15957
5.42 -0.155171
5.43 -0.151667
5.44 -0.149065
5.45 -0.147276
5.46 -0.14617
5.47 -0.145649
5.48 -0.145601
5.49 -0.145912
5.5 -0.146465
5.51 -0.147143
5.52 -0.147813
5.53 -0.148379
5.54 -0.148754
5.55 -0.148871
5.56 -0.148675
5.57 -0.148113
5.58 -0.147166
5.59 -0.145861
5.6 -0.144219
5.61 -0.142273
5.62 -0.140068
5.63 -0.137653
5.64 -0.135071
5.65 -0.132395
5.66 -0.129673
5.67 -0.126943
5.68 -0.12423
5.69 -0.121546
5.7 -0.118887
5.71 -0.116225
5.72 -0.113514
5.73 -0.110693
5.74 -0.107687
5.75 -0.104407
5.76 -0.100756
5.77 -0.0965725
5.78 -0.0917777
5.79 -0.0862801
5.8 -0.0799874
5.81 -0.0728204
5.82 -0.0647164
5.83 -0.0556002
5.84 -0.0454032
5.85 -0.0342222
5.86 -0.0220983
5.87 -0.00909932
5.88 0.00468078
5.89 0.0191239
5.9 0.0341219
5.91 0.0494666
5.92 0.0649691
5.93 0.0804494
5.94 0.0957259
5.95 0.110621
5.96 0.12495
5.97 0.13849
5.98 0.151167
5.99 0.162877
6 0.173543
6.01 0.183117
6.02 0.191581
6.03 0.198869
6.04 0.205068
6.05 0.210302
6.06 0.214668
6.07 0.218285
6.08 0.221282
6.09 0.223797
6.1 0.225957
6.11 0.227947
6.12 0.229895
6.13 0.231915
6.14 0.234098
6.15 0.236514
6.16 0.239224
6.17 0.242238
6.18 0.245518
6.19 0.249013
6.2 0.252645
6.21 0.25631
6.22 0.259886
6.23 0.263188
6.24 0.266075
6.25 0.26839
6.26 0.269975
6.27 0.27068
6.28 0.270368
6.29 0.26885
6.3 0.266003
6.31 0.261834
6.32 0.256303
6.33 0.249404
6.34 0.241157
6.35 0.231614
6.36 0.220737
6.37 0.208761
6.38 0.195833
6.39 0.1821
6.4 0.167723
6.41 0.15287
6.42 0.137704
6.43 0.122407
6.44 0.107152
6.45 0.0920789
6.46 0.0773068
6.47 0.0629348
6.48 0.0490388
6.49 0.0357222
6.5 0.0229721
6.51 0.0107721
6.52 -0.000903925
6.53 -0.0121017
6.54 -0.0228834
6.55 -0.0333159
6.56 -0.0434799
6.57 -0.0534915
6.58 -0.0634368
6.59 -0.0733963
6.6 -0.0834409
6.61 -0.0936287
6.62 -0.10402
6.63 -0.114628
6.64 -0.125448
6.65 -0.136458
6.66 -0.147619
6.67 -0.158871
6.68 -0.170139
6.69 -0.181313
6.7 -0.192291
6.71 -0.202961
6.72 -0.213209
6.73 -0.22292
6.74 -0.231985
6.75 -0.240237
6.76 -0.247591
6.77 -0.254002
6.78 -0.259405
6.79 -0.263751
6.8 -0.267007
6.81 -0.269146
6.82 -0.270056
6.83 -0.26987
6.84 -0.268616
6.85 -0.266328
6.86 -0.263048
6.87 -0.258819
6.88 -0.253635
6.89 -0.247552
6.9 -0.240658
6.91 -0.232984
6.92 -0.224553
6.93 -0.21538
6.94 -0.205468
6.95 -0.194725
6.96 -0.183216
6.97 -0.170916
6.98 -0.157795
6.99 -0.143816
7 -0.128943
7.01 -0.11309
7.02 -0.0962055
7.03 -0.0783273
7.04 -0.0594411
7.05 -0.0395443
7.06 -0.018648
7.07 0.00322129
7.08 0.0261108
7.09 0.0498681
7.1 0.0743996
7.11 0.0996086
7.12 0.125384
7.13 0.1516
7.14 0.178129
7.15 0.204811
7.16 0.231472
7.17 0.257961
7.18 0.284123
7.19 0.30981
7.2 0.334877
7.21 0.359107
7.22 0.382412
7.23 0.4047
7.24 0.425874
7.25 0.445848
7.26 0.464551
7.27 0.481888
7.28 0.497725
7.29 0.51215
7.3 0.525142
7.31 0.536689
7.32 0.546784
7.33 0.555426
7.34 0.562499
7.35 0.56807
7.36 0.572195
7.37 0.574876
7.38 0.57611
7.39 0.575895
7.4 0.574201
7.41 0.570895
7.42 0.566114
7.43 0.559848
7.44 0.552086
7.45 0.542823
7.46 0.532054
7.47 0.51968
7.48 0.505746
7.49 0.490346
7.5 0.473512
7.51 0.455289
7.52 0.435733
7.53 0.414909
7.54 0.392789
7.55 0.369613
7.56 0.345494
7.57 0.320559
7.58 0.294944
7.59 0.268794
7.6 0.24225
7.61 0.215495
7.62 0.188711
7.63 0.162058
7.64 0.135696
7.65 0.109781
7.66 0.0844592
7.67 0.0599686
7.68 0.0363709
7.69 0.013777
7.7 -0.00771159
7.71 -0.0280074
7.72 -0.0470374
7.73 -0.0646782
7.74 -0.0808533
7.75 -0.0956307
7.76 -0.109
7.77 -0.120964
7.78 -0.131539
7.79 -0.14075
7.8 -0.148505
7.81 -0.154969
7.82 -0.160218
7.83 -0.164313
7.84 -0.16732
7.85 -0.169306
7.86 -0.170312
7.87 -0.170381
7.88 -0.169662
7.89 -0.168225
7.9 -0.166141
7.91 -0.163476
7.92 -0.160295
7.93 -0.156624
7.94 -0.152555
7.95 -0.148152
7.96 -0.143464
7.97 -0.138535
7.98 -0.133405
7.99 -0.128107
8 -0.122669
8.01 -0.117134
8.02 -0.111528
8.03 -0.105873
8.04 -0.100189
8.05 -0.0944971
8.06 -0.0888158
8.07 -0.0831645
8.08 -0.0775598
8.09 -0.0720187
8.1 -0.066559
8.11 -0.0611992
8.12 -0.0559611
8.13 -0.0508806
8.14 -0.0459671
8.15 -0.0412438
8.16 -0.0367343
8.17 -0.0324626
8.18 -0.0284522
8.19 -0.0247466
8.2 -0.0213644
8.21 -0.0183094
8.22 -0.0155963
8.23 -0.0132357
8.24 -0.0112334
8.25 -0.0095911
8.26 -0.00834102
8.27 -0.00742893
8.28 -0.00683488
8.29 -0.00653257
8.3 -0.00648955
8.31 -0.0066678
8.32 -0.00703165
8.33 -0.00752705
8.34 -0.00809344
8.35 -0.00867962
8.36 -0.00923482
8.37 -0.00971028
8.38 -0.0100608
8.39 -0.0102246
8.4 -0.0101832
8.41 -0.00991521
8.42 -0.00940711
8.43 -0.0086559
8.44 -0.00766938
8.45 -0.00645816
8.46 -0.00505325
8.47 -0.00351323
8.48 -0.00189076
8.49 -0.000246595
8.5 0.00135197
8.51 0.00283292
8.52 0.00409513
8.53 0.00507057
8.54 0.00569057
8.55 0.00588737
8.56 0.00560006
8.57 0.00477643
8.58 0.00335391
8.59 0.00127076
8.6 -0.00143774
8.61 -0.00477115
8.62 -0.00871535
8.63 -0.013243
8.64 -0.0183141
8.65 -0.0239153
8.66 -0.0299485
8.67 -0.0363294
8.68 -0.0429832
8.69 -0.0498329
8.7 -0.0568015
8.71 -0.063814
8.72 -0.0707911
8.73 -0.07767
8.74 -0.0844003
8.75 -0.0909424
8.76 -0.0972686
8.77 -0.103363
8.78 -0.109207
8.79 -0.114819
8.8 -0.120233
8.81 -0.12548
8.82 -0.1306
8.83 -0.135638
8.84 -0.140641
8.85 -0.145665
8.86 -0.150757
8.87 -0.155957
8.88 -0.161298
8.89 -0.166803
8.9 -0.172484
8.91 -0.178353
8.92 -0.184392
8.93 -0.190563
8.94 -0.196826
8.95 -0.20313
8.96 -0.209416
8.97 -0.215613
8.98 -0.221621
8.99 -0.227375
9 -0.2328
9.01 -0.237822
9.02 -0.242377
9.03 -0.246405
9.04 -0.249827
9.05 -0.2526
9.06 -0.254747
9.07 -0.256265
9.08 -0.257169
9.09 -0.257491
9.1 -0.257273
9.11 -0.256528
9.12 -0.255381
9.13 -0.253912
9.14 -0.252206
9.15 -0.250349
9.16 -0.248423
9.17 -0.246514
9.18 -0.244709
9.19 -0.243066
9.2 -0.241635
9.21 -0.240452
9.22 -0.239538
9.23 -0.238899
9.24 -0.238546
9.25 -0.238431
9.26 -0.238505
9.27 -0.238713
9.28 -0.238994
9.29 -0.239276
9.3 -0.239482
9.31 -0.239518
9.32 -0.23932
9.33 -0.238822
9.34 -0.237967
9.35 -0.236707
9.36 -0.235008
9.37 -0.232811
9.38 -0.230135
9.39 -0.227007
9.4 -0.223456
9.41 -0.219519
9.42 -0.21525
9.43 -0.210703
9.44 -0.20594
9.45 -0.201055
9.46 -0.19612
9.47 -0.191202
9.48 -0.186361
9.49 -0.18165
9.5 -0.177123
9.51 -0.172803
9.52 -0.168689
9.53 -0.164771
9.54 -0.161024
9.55 -0.157404
9.56 -0.153855
9.57 -0.150294
9.58 -0.146629
9.59 -0.142767
9.6 -0.138609
9.61 -0.134053
9.62 -0.129
9.63 -0.123311
9.64 -0.116891
9.65 -0.1097
9.66 -0.101678
9.67 -0.0927802
9.68 -0.0829794
9.69 -0.0722663
9.7 -0.0605486
9.71 -0.0479619
9.72 -0.0345559
9.73 -0.0203938
9.74 -0.0055519
9.75 0.00988316
9.76 0.0258368
9.77 0.0421993
9.78 0.058837
9.79 0.0756492
9.8 0.0925393
9.81 0.109417
9.82 0.126201
9.83 0.142794
9.84 0.159147
9.85 0.175215
9.86 0.190962
9.87 0.206365
9.88 0.221408
9.89 0.236069
9.9 0.250338
9.91 0.264246
9.92 0.277802
9.93 0.291013
9.94 0.303884
9.95 0.316416
9.96 0.328572
9.97 0.340362
9.98 0.351773
9.99 0.362777
10 0.373338
10.01 0.383412
10.02 0.392933
10.03 0.401807
10.04 0.410026
10.05 0.417534
10.06 0.424279
10.07 0.430213
10.08 0.435296
10.09 0.439423
10.1 0.442616
10.11 0.444903
10.12 0.446295
10.13 0.446818
10.14 0.446513
10.15 0.445422
10.16 0.443566
10.17 0.441104
10.18 0.438129
10.19 0.434738
10.2 0.431036
10.21 0.427127
10.22 0.423114
10.23 0.419111
10.24 0.415213
10.25 0.411497
10.26 0.408029
10.27 0.404864
10.28 0.402038
10.29 0.399611
10.3 0.397544
10.31 0.395821
10.32 0.394411
10.33 0.393267
10.34 0.392333
10.35 0.391547
10.36 0.39082
10.37 0.390066
10.38 0.389202
10.39 0.388146
10.4 0.386821
10.41 0.385154
10.42 0.383025
10.43 0.380419
10.44 0.37729
10.45 0.373603
10.46 0.369334
10.47 0.364467
10.48 0.358965
10.49 0.352821
10.5 0.346085
10.51 0.338774
10.52 0.330905
10.53 0.322499
10.54 0.313577
10.55 0.304107
10.56 0.294152
10.57 0.283731
10.58 0.272853
10.59 0.261521
10.6 0.249736
10.61 0.237478
10.62 0.22472
10.63 0.21149
10.64 0.197781
10.65 0.183587
10.66 0.168905
10.67 0.153738
10.68 0.138052
10.69 0.121897
10.7 0.105311
10.71 0.0883314
10.72 0.0710022
10.73 0.0533783
10.74 0.035519
10.75 0.0174955
10.76 -0.0005931
10.77 -0.0186636
10.78 -0.0366305
10.79 -0.0544082
10.8 -0.0719134
10.81 -0.0890336
10.82 -0.105704
10.83 -0.121879
10.84 -0.137509
10.85 -0.15256
10.86 -0.16701
10.87 -0.180844
10.88 -0.19402
10.89 -0.206626
10.9 -0.218702
10.91 -0.230299
10.92 -0.241476
10.93 -0.252301
10.94 -0.262833
10.95 -0.273162
10.96 -0.283375
10.97 -0.293538
10.98 -0.303713
10.99 -0.313949
11 -0.324287
11.01 -0.334764
11.02 -0.345374
11.03 -0.356104
11.04 -0.366927
11.05 -0.377799
11.06 -0.388661
11.07 -0.399431
11.08 -0.410009
11.09 -0.420306
11.1 -0.430221
11.11 -0.43965
11.12 -0.448489
11.13 -0.456638
11.14 -0.463906
11.15 -0.470282
11.16 -0.475701
11.17 -0.480104
11.18 -0.483451
11.19 -0.485713
11.2 -0.486829
11.21 -0.486783
11.22 -0.485677
11.23 -0.483549
11.24 -0.480451
11.25 -0.476443
11.26 -0.471595
11.27 -0.465911
11.28 -0.459539
11.29 -0.452567
11.3 -0.445069
11.31 -0.43711
11.32 -0.42875
11.33 -0.420028
11.34 -0.410974
11.35 -0.40164
11.36 -0.392042
11.37 -0.382181
11.38 -0.372053
11.39 -0.36164
11.4 -0.35089
11.41 -0.339789
11.42 -0.328311
11.43 -0.316424
11.44 -0.304097
11.45 -0.291301
11.46 -0.278002
11.47 -0.264151
11.48 -0.249792
11.49 -0.234935
11.5 -0.219602
11.51 -0.203825
11.52 -0.18765
11.53 -0.171114
11.54 -0.154309
11.55 -0.137329
11.56 -0.120261
11.57 -0.103198
11.58 -0.0862388
11.59 -0.069485
11.6 -0.0530737
11.61 -0.0370757
11.62 -0.0215791
11.63 -0.00666422
11.64 0.00759738
11.65 0.0211448
11.66 0.0338756
11.67 0.0457609
11.68 0.0568189
11.69 0.0670413
11.7 0.0764319
11.71 0.0850059
11.72 0.0927875
11.73 0.0997317
11.74 0.105973
11.75 0.111564
11.76 0.116558
11.77 0.121014
11.78 0.12499
11.79 0.128526
11.8 0.131684
11.81 0.134542
11.82 0.137148
11.83 0.139544
11.84 0.141769
11.85 0.143851
11.86 0.145803
11.87 0.147654
11.88 0.149412
11.89 0.151079
11.9 0.152649
11.91 0.154112
11.92 0.155443
11.93 0.156613
11.94 0.157606
11.95 0.158388
11.96 0.158928
11.97 0.159186
11.98 0.159126
11.99 0.158665
12 0.157784
12.01 0.156448
12.02 0.154612
12.03 0.152232
12.04 0.149264
12.05 0.145645
12.06 0.141294
12.07 0.136225
12.08 0.130405
12.09 0.123802
12.1 0.11639
12.11 0.108146
12.12 0.0989812
12.13 0.0889337
12.14 0.0780303
12.15 0.0662799
12.16 0.0537005
12.17 0.040319
