# xPDFsuite Configuration #
[PDF]
wavelength = 0.1
dataformat = QA
inputfile = BiMsol6_insitu_700 C-00546.xy
backgroundfile = Quartz2mm-dist500-00000.xy
mode = xray
bgscale = 0.0042
composition = Bi2Fe4O9
outputtype = gr
qmaxinst = 24.998449118
qmin = 0.1
qmax = 21.4986662415
rmax = 80.0
rmin = 0.0
rstep = 0.01
rpoly = 0.9

[Misc]
inputdir = C:/Data/Seafile/CPH/Beamtime/Desy Oct 20/In situ data/Processed/BiMsol6/PDF
savedir = C:/Data/Seafile/CPH/Beamtime/Desy Oct 20/In situ data/PDF/BiMsol6
backgroundfilefull = C:/Data/Seafile/CPH/Beamtime/Desy Oct 20/In situ data/Processed/Standard_Empty_Cap/Quartz2mm-dist500-00000.xy

#### start data
#S 1
#L r($\AA$)  G($\AA^{-2}$)
0 0
0.01 0.00599104
0.02 0.0116407
0.03 0.016657
0.04 0.0207778
0.05 0.0237834
0.06 0.0255065
0.07 0.0257642
0.08 0.024504
0.09 0.0218617
0.1 0.0179496
0.11 0.0129411
0.12 0.00706341
0.13 0.000587288
0.14 -0.00618224
0.15 -0.0128634
0.16 -0.0191341
0.17 -0.0246921
0.18 -0.0292673
0.19 -0.0326344
0.2 -0.0345626
0.21 -0.0348956
0.22 -0.0337295
0.23 -0.0311301
0.24 -0.0272375
0.25 -0.0222616
0.26 -0.0164734
0.27 -0.0101834
0.28 -0.00383188
0.29 0.0021888
0.3 0.00749801
0.31 0.0117347
0.32 0.0145755
0.33 0.0156932
0.34 0.0147693
0.35 0.0118599
0.36 0.0069685
0.37 0.000198378
0.38 -0.00824603
0.39 -0.0180621
0.4 -0.028897
0.41 -0.0401544
0.42 -0.0512498
0.43 -0.0615883
0.44 -0.0705554
0.45 -0.0775397
0.46 -0.0818948
0.47 -0.0827871
0.48 -0.0800426
0.49 -0.0733278
0.5 -0.0624277
0.51 -0.0472592
0.52 -0.0278808
0.53 -0.00423318
0.54 0.0231448
0.55 0.0535465
0.56 0.0863148
0.57 0.120683
0.58 0.155794
0.59 0.190717
0.6 0.224259
0.61 0.255494
0.62 0.283487
0.63 0.307363
0.64 0.326335
0.65 0.339729
0.66 0.346606
0.67 0.346589
0.68 0.339858
0.69 0.326426
0.7 0.306485
0.71 0.280404
0.72 0.248715
0.73 0.211628
0.74 0.170607
0.75 0.126604
0.76 0.0806277
0.77 0.033724
0.78 -0.0130525
0.79 -0.0585613
0.8 -0.101658
0.81 -0.141566
0.82 -0.177538
0.83 -0.208959
0.84 -0.235365
0.85 -0.256455
0.86 -0.271531
0.87 -0.281147
0.88 -0.285608
0.89 -0.28529
0.9 -0.280698
0.91 -0.272441
0.92 -0.261128
0.93 -0.247539
0.94 -0.232681
0.95 -0.217334
0.96 -0.202249
0.97 -0.188121
0.98 -0.17557
0.99 -0.165355
1 -0.157778
1.01 -0.153048
1.02 -0.151307
1.03 -0.152569
1.04 -0.156735
1.05 -0.163659
1.06 -0.173127
1.07 -0.184499
1.08 -0.197315
1.09 -0.211079
1.1 -0.225281
1.11 -0.239418
1.12 -0.252931
1.13 -0.265366
1.14 -0.276387
1.15 -0.285716
1.16 -0.293153
1.17 -0.298587
1.18 -0.301962
1.19 -0.303195
1.2 -0.302648
1.21 -0.30055
1.22 -0.297178
1.23 -0.292852
1.24 -0.287913
1.25 -0.282717
1.26 -0.277656
1.27 -0.273045
1.28 -0.26915
1.29 -0.266186
1.3 -0.264305
1.31 -0.263601
1.32 -0.264213
1.33 -0.265942
1.34 -0.268658
1.35 -0.272178
1.36 -0.276271
1.37 -0.280676
1.38 -0.285092
1.39 -0.289182
1.4 -0.292669
1.41 -0.295299
1.42 -0.296854
1.43 -0.297164
1.44 -0.296114
1.45 -0.293494
1.46 -0.289481
1.47 -0.284179
1.48 -0.277742
1.49 -0.270383
1.5 -0.262359
1.51 -0.253962
1.52 -0.245559
1.53 -0.237499
1.54 -0.230101
1.55 -0.223664
1.56 -0.21845
1.57 -0.214675
1.58 -0.212668
1.59 -0.212384
1.6 -0.213801
1.61 -0.216849
1.62 -0.221388
1.63 -0.227211
1.64 -0.234074
1.65 -0.241638
1.66 -0.249458
1.67 -0.257147
1.68 -0.264307
1.69 -0.270551
1.7 -0.275511
1.71 -0.278685
1.72 -0.27987
1.73 -0.278905
1.74 -0.275659
1.75 -0.270072
1.76 -0.262165
1.77 -0.251983
1.78 -0.239595
1.79 -0.225458
1.8 -0.209887
1.81 -0.193237
1.82 -0.175897
1.83 -0.158272
1.84 -0.140813
1.85 -0.123958
1.86 -0.10806
1.87 -0.0934317
1.88 -0.0803358
1.89 -0.0689702
1.9 -0.0594926
1.91 -0.0521261
1.92 -0.0466424
1.93 -0.0429369
1.94 -0.0408414
1.95 -0.0401331
1.96 -0.0405446
1.97 -0.0418088
1.98 -0.0435439
1.99 -0.045389
2 -0.047035
2.01 -0.0481997
2.02 -0.0486395
2.03 -0.048157
2.04 -0.0464927
2.05 -0.0437036
2.06 -0.0398073
2.07 -0.0348905
2.08 -0.0291063
2.09 -0.0226689
2.1 -0.0158425
2.11 -0.00899148
2.12 -0.00248503
2.13 0.00331411
2.14 0.00804305
2.15 0.0113529
2.16 0.0129223
2.17 0.012224
2.18 0.00922489
2.19 0.00379254
2.2 -0.00415007
2.21 -0.0146051
2.22 -0.0274984
2.23 -0.0427744
2.24 -0.0602245
2.25 -0.0793859
2.26 -0.0999052
2.27 -0.121388
2.28 -0.143411
2.29 -0.165536
2.3 -0.18725
2.31 -0.208111
2.32 -0.227738
2.33 -0.245787
2.34 -0.261965
2.35 -0.276043
2.36 -0.287778
2.37 -0.296965
2.38 -0.303797
2.39 -0.308349
2.4 -0.310764
2.41 -0.311243
2.42 -0.310042
2.43 -0.307364
2.44 -0.30366
2.45 -0.299317
2.46 -0.294684
2.47 -0.290101
2.48 -0.285885
2.49 -0.282345
2.5 -0.279814
2.51 -0.278411
2.52 -0.278264
2.53 -0.279446
2.54 -0.281971
2.55 -0.285799
2.56 -0.29092
2.57 -0.297126
2.58 -0.304181
2.59 -0.311868
2.6 -0.319953
2.61 -0.32819
2.62 -0.336328
2.63 -0.344073
2.64 -0.351226
2.65 -0.357601
2.66 -0.363045
2.67 -0.367441
2.68 -0.370712
2.69 -0.372749
2.7 -0.37358
2.71 -0.37332
2.72 -0.372056
2.73 -0.369905
2.74 -0.367007
2.75 -0.363518
2.76 -0.359574
2.77 -0.355407
2.78 -0.351177
2.79 -0.347034
2.8 -0.343106
2.81 -0.339503
2.82 -0.336332
2.83 -0.333657
2.84 -0.331469
2.85 -0.329759
2.86 -0.328492
2.87 -0.32761
2.88 -0.327034
2.89 -0.326682
2.9 -0.326416
2.91 -0.326123
2.92 -0.325689
2.93 -0.325008
2.94 -0.323978
2.95 -0.322491
2.96 -0.320444
2.97 -0.317817
2.98 -0.314568
2.99 -0.310672
3 -0.306118
3.01 -0.300906
3.02 -0.294983
3.03 -0.288414
3.04 -0.28123
3.05 -0.273444
3.06 -0.265065
3.07 -0.256092
3.08 -0.246495
3.09 -0.236211
3.1 -0.22525
3.11 -0.213557
3.12 -0.201066
3.13 -0.187699
3.14 -0.17337
3.15 -0.157893
3.16 -0.141224
3.17 -0.123312
3.18 -0.104087
3.19 -0.0834916
3.2 -0.0614891
3.21 -0.0380382
3.22 -0.0130548
3.23 0.0132689
3.24 0.0408444
3.25 0.0695494
3.26 0.0992282
3.27 0.129693
3.28 0.160752
3.29 0.192107
3.3 0.223467
3.31 0.254549
3.32 0.285064
3.33 0.314718
3.34 0.343211
3.35 0.370095
3.36 0.395246
3.37 0.418435
3.38 0.439463
3.39 0.458162
3.4 0.474403
3.41 0.48793
3.42 0.498709
3.43 0.506877
3.44 0.512466
3.45 0.515545
3.46 0.516215
3.47 0.514602
3.48 0.51063
3.49 0.50473
3.5 0.497091
3.51 0.487904
3.52 0.477364
3.53 0.465662
3.54 0.452946
3.55 0.439405
3.56 0.425264
3.57 0.410671
3.58 0.395758
3.59 0.380644
3.6 0.365431
3.61 0.350219
3.62 0.335091
3.63 0.320114
3.64 0.305345
3.65 0.29084
3.66 0.276648
3.67 0.262839
3.68 0.249486
3.69 0.236617
3.7 0.224292
3.71 0.212576
3.72 0.201538
3.73 0.191252
3.74 0.181878
3.75 0.173448
3.76 0.166019
3.77 0.159668
3.78 0.154467
3.79 0.150482
3.8 0.14781
3.81 0.146579
3.82 0.14671
3.83 0.148222
3.84 0.151121
3.85 0.155399
3.86 0.161031
3.87 0.168087
3.88 0.176445
3.89 0.185996
3.9 0.196666
3.91 0.208372
3.92 0.221026
3.93 0.234549
3.94 0.248893
3.95 0.263877
3.96 0.279405
3.97 0.29538
3.98 0.311708
3.99 0.328298
4 0.345067
4.01 0.361912
4.02 0.378742
4.03 0.395474
4.04 0.412024
4.05 0.42831
4.06 0.444243
4.07 0.45968
4.08 0.47457
4.09 0.488819
4.1 0.502328
4.11 0.514997
4.12 0.526722
4.13 0.537328
4.14 0.546698
4.15 0.55479
4.16 0.561505
4.17 0.566751
4.18 0.570444
4.19 0.57251
4.2 0.572691
4.21 0.571125
4.22 0.567791
4.23 0.562682
4.24 0.555807
4.25 0.547194
4.26 0.53681
4.27 0.524699
4.28 0.511058
4.29 0.495986
4.3 0.479588
4.31 0.461982
4.32 0.44329
4.33 0.42355
4.34 0.402984
4.35 0.381724
4.36 0.359885
4.37 0.337569
4.38 0.314871
4.39 0.291862
4.4 0.268609
4.41 0.245187
4.42 0.221635
4.43 0.197981
4.44 0.174242
4.45 0.150429
4.46 0.126539
4.47 0.102579
4.48 0.0785525
4.49 0.0544635
4.5 0.0303226
4.51 0.00614801
4.52 -0.0180313
4.53 -0.0421671
4.54 -0.0662044
4.55 -0.0900762
4.56 -0.113703
4.57 -0.136995
4.58 -0.159854
4.59 -0.18212
4.6 -0.203691
4.61 -0.224475
4.62 -0.244366
4.63 -0.263258
4.64 -0.281059
4.65 -0.297669
4.66 -0.312911
4.67 -0.326862
4.68 -0.3395
4.69 -0.350824
4.7 -0.360854
4.71 -0.369633
4.72 -0.377146
4.73 -0.383514
4.74 -0.388895
4.75 -0.393402
4.76 -0.397159
4.77 -0.400295
4.78 -0.40294
4.79 -0.405198
4.8 -0.407244
4.81 -0.409187
4.82 -0.411126
4.83 -0.413143
4.84 -0.415302
4.85 -0.41766
4.86 -0.420245
4.87 -0.423044
4.88 -0.426041
4.89 -0.429199
4.9 -0.432468
4.91 -0.435785
4.92 -0.439065
4.93 -0.442222
4.94 -0.445175
4.95 -0.447839
4.96 -0.450137
4.97 -0.451995
4.98 -0.453325
4.99 -0.454055
5 -0.454183
5.01 -0.453686
5.02 -0.452555
5.03 -0.45079
5.04 -0.448408
5.05 -0.445377
5.06 -0.441786
5.07 -0.437686
5.08 -0.433125
5.09 -0.42815
5.1 -0.422807
5.11 -0.417132
5.12 -0.411155
5.13 -0.404933
5.14 -0.398491
5.15 -0.391844
5.16 -0.384999
5.17 -0.377958
5.18 -0.370692
5.19 -0.363201
5.2 -0.355471
5.21 -0.347483
5.22 -0.339219
5.23 -0.330663
5.24 -0.321795
5.25 -0.312589
5.26 -0.303079
5.27 -0.29328
5.28 -0.283219
5.29 -0.272933
5.3 -0.262469
5.31 -0.251884
5.32 -0.24126
5.33 -0.230681
5.34 -0.220229
5.35 -0.209993
5.36 -0.20006
5.37 -0.190522
5.38 -0.181515
5.39 -0.173069
5.4 -0.165247
5.41 -0.158101
5.42 -0.151671
5.43 -0.14598
5.44 -0.141087
5.45 -0.136972
5.46 -0.133572
5.47 -0.130849
5.48 -0.128753
5.49 -0.127223
5.5 -0.12619
5.51 -0.125616
5.52 -0.125366
5.53 -0.125359
5.54 -0.125514
5.55 -0.125756
5.56 -0.126013
5.57 -0.126217
5.58 -0.126302
5.59 -0.126228
5.6 -0.125959
5.61 -0.125469
5.62 -0.124737
5.63 -0.123752
5.64 -0.12248
5.65 -0.120944
5.66 -0.119148
5.67 -0.117094
5.68 -0.11478
5.69 -0.112205
5.7 -0.10935
5.71 -0.106192
5.72 -0.102734
5.73 -0.0989494
5.74 -0.0948106
5.75 -0.0902833
5.76 -0.0853304
5.77 -0.0798639
5.78 -0.0738762
5.79 -0.0673405
5.8 -0.060225
5.81 -0.0525045
5.82 -0.0441626
5.83 -0.0351727
5.84 -0.0255119
5.85 -0.0152559
5.86 -0.00444165
5.87 0.00687974
5.88 0.0186435
5.89 0.0307721
5.9 0.0431916
5.91 0.055775
5.92 0.0684071
5.93 0.0809776
5.94 0.0933752
5.95 0.105491
5.96 0.117212
5.97 0.128397
5.98 0.139004
5.99 0.148967
6 0.158237
6.01 0.166781
6.02 0.174585
6.03 0.181598
6.04 0.187873
6.05 0.193483
6.06 0.198483
6.07 0.202942
6.08 0.206936
6.09 0.210545
6.1 0.213836
6.11 0.21693
6.12 0.219903
6.13 0.222825
6.14 0.225749
6.15 0.228719
6.16 0.231764
6.17 0.234888
6.18 0.238071
6.19 0.241277
6.2 0.244452
6.21 0.247527
6.22 0.250417
6.23 0.252981
6.24 0.255133
6.25 0.256764
6.26 0.25776
6.27 0.258012
6.28 0.257418
6.29 0.255829
6.3 0.253146
6.31 0.249371
6.32 0.244465
6.33 0.23841
6.34 0.231208
6.35 0.222882
6.36 0.213373
6.37 0.202857
6.38 0.191436
6.39 0.179212
6.4 0.166303
6.41 0.152833
6.42 0.138922
6.43 0.124712
6.44 0.110365
6.45 0.0960055
6.46 0.0817507
6.47 0.0677047
6.48 0.0539583
6.49 0.0406271
6.5 0.0277454
6.51 0.0153393
6.52 0.00342623
6.53 -0.00799385
6.54 -0.0189367
6.55 -0.0294202
6.56 -0.0394711
6.57 -0.0491818
6.58 -0.0586129
6.59 -0.0678281
6.6 -0.0768919
6.61 -0.0858664
6.62 -0.0948105
6.63 -0.10378
6.64 -0.112814
6.65 -0.121937
6.66 -0.131163
6.67 -0.14049
6.68 -0.149904
6.69 -0.159376
6.7 -0.168851
6.71 -0.178272
6.72 -0.18757
6.73 -0.196666
6.74 -0.205475
6.75 -0.213872
6.76 -0.221761
6.77 -0.229061
6.78 -0.235682
6.79 -0.24153
6.8 -0.246522
6.81 -0.250568
6.82 -0.253491
6.83 -0.255334
6.84 -0.256046
6.85 -0.255589
6.86 -0.253935
6.87 -0.251064
6.88 -0.246894
6.89 -0.241436
6.9 -0.234771
6.91 -0.22692
6.92 -0.217913
6.93 -0.207784
6.94 -0.196574
6.95 -0.184214
6.96 -0.170875
6.97 -0.156611
6.98 -0.141475
6.99 -0.125521
7 -0.108805
7.01 -0.091347
7.02 -0.0731993
7.03 -0.0544609
7.04 -0.0351834
7.05 -0.0154169
7.06 0.0047897
7.07 0.0253889
7.08 0.0463653
7.09 0.0676379
7.1 0.0891576
7.11 0.110881
7.12 0.132763
7.13 0.15476
7.14 0.176828
7.15 0.198916
7.16 0.220971
7.17 0.242943
7.18 0.264779
7.19 0.286425
7.2 0.307821
7.21 0.328873
7.22 0.349526
7.23 0.369718
7.24 0.389375
7.25 0.408419
7.26 0.426768
7.27 0.444313
7.28 0.460901
7.29 0.476513
7.3 0.491058
7.31 0.504444
7.32 0.516581
7.33 0.527381
7.34 0.536635
7.35 0.544318
7.36 0.550408
7.37 0.55484
7.38 0.557556
7.39 0.55851
7.4 0.557635
7.41 0.554753
7.42 0.550037
7.43 0.543492
7.44 0.535138
7.45 0.525005
7.46 0.513141
7.47 0.499492
7.48 0.48418
7.49 0.46737
7.5 0.449159
7.51 0.429652
7.52 0.408964
7.53 0.38721
7.54 0.364433
7.55 0.340879
7.56 0.316682
7.57 0.291976
7.58 0.266895
7.59 0.24157
7.6 0.216135
7.61 0.190734
7.62 0.165495
7.63 0.140536
7.64 0.115968
7.65 0.0918994
7.66 0.0684304
7.67 0.0457444
7.68 0.0238642
7.69 0.00286773
7.7 -0.0171698
7.71 -0.0361795
7.72 -0.0540994
7.73 -0.0708171
7.74 -0.0862531
7.75 -0.100449
7.76 -0.113375
7.77 -0.125011
7.78 -0.135342
7.79 -0.144367
7.8 -0.151962
7.81 -0.158258
7.82 -0.163306
7.83 -0.167145
7.84 -0.169825
7.85 -0.171403
7.86 -0.171913
7.87 -0.1714
7.88 -0.170029
7.89 -0.167889
7.9 -0.165072
7.91 -0.161674
7.92 -0.157789
7.93 -0.153482
7.94 -0.148879
7.95 -0.144074
7.96 -0.139144
7.97 -0.134156
7.98 -0.12917
7.99 -0.124236
8 -0.119402
8.01 -0.114686
8.02 -0.110102
8.03 -0.105652
8.04 -0.101329
8.05 -0.0971198
8.06 -0.093008
8.07 -0.0889601
8.08 -0.0849434
8.09 -0.0809282
8.1 -0.0768863
8.11 -0.0727927
8.12 -0.0686264
8.13 -0.0643659
8.14 -0.0600157
8.15 -0.0555814
8.16 -0.0510778
8.17 -0.0465288
8.18 -0.0419672
8.19 -0.0374386
8.2 -0.0329975
8.21 -0.0286955
8.22 -0.0245886
8.23 -0.0207333
8.24 -0.0171842
8.25 -0.0139935
8.26 -0.0112547
8.27 -0.00895992
8.28 -0.00713253
8.29 -0.00578416
8.3 -0.0049136
8.31 -0.00450634
8.32 -0.00455662
8.33 -0.00501702
8.34 -0.00580557
8.35 -0.00685642
8.36 -0.00809574
8.37 -0.00944401
8.38 -0.0108187
8.39 -0.012122
8.4 -0.0132725
8.41 -0.0141985
8.42 -0.0148368
8.43 -0.0151361
8.44 -0.0150587
8.45 -0.014564
8.46 -0.0136376
8.47 -0.012325
8.48 -0.0106603
8.49 -0.00869392
8.5 -0.00649146
8.51 -0.00413199
8.52 -0.00170888
8.53 0.000662128
8.54 0.00287568
8.55 0.00482665
8.56 0.00641242
8.57 0.00753625
8.58 0.00808884
8.59 0.00795549
8.6 0.00712615
8.61 0.00556101
8.62 0.00323853
8.63 0.000156129
8.64 -0.00366972
8.65 -0.0082612
8.66 -0.0135162
8.67 -0.0193422
8.68 -0.0256555
8.69 -0.0323629
8.7 -0.0393646
8.71 -0.04656
8.72 -0.05384
8.73 -0.0610916
8.74 -0.0682256
8.75 -0.0751634
8.76 -0.0818393
8.77 -0.0882021
8.78 -0.0941888
8.79 -0.0997934
8.8 -0.105033
8.81 -0.109926
8.82 -0.114505
8.83 -0.118815
8.84 -0.12291
8.85 -0.126847
8.86 -0.130716
8.87 -0.134584
8.88 -0.138518
8.89 -0.142578
8.9 -0.146816
8.91 -0.151291
8.92 -0.156031
8.93 -0.161035
8.94 -0.166301
8.95 -0.171809
8.96 -0.177529
8.97 -0.183412
8.98 -0.189408
8.99 -0.195428
9 -0.201398
9.01 -0.207237
9.02 -0.212867
9.03 -0.218209
9.04 -0.223168
9.05 -0.227667
9.06 -0.231679
9.07 -0.235164
9.08 -0.238097
9.09 -0.240467
9.1 -0.242279
9.11 -0.243497
9.12 -0.244211
9.13 -0.244474
9.14 -0.244343
9.15 -0.243882
9.16 -0.24316
9.17 -0.242245
9.18 -0.241211
9.19 -0.240138
9.2 -0.239086
9.21 -0.238103
9.22 -0.237229
9.23 -0.236493
9.24 -0.235924
9.25 -0.23551
9.26 -0.235234
9.27 -0.23507
9.28 -0.234982
9.29 -0.234925
9.3 -0.234844
9.31 -0.234675
9.32 -0.234361
9.33 -0.233848
9.34 -0.233086
9.35 -0.232031
9.36 -0.230647
9.37 -0.228876
9.38 -0.226722
9.39 -0.224198
9.4 -0.221315
9.41 -0.218096
9.42 -0.214574
9.43 -0.210786
9.44 -0.20677
9.45 -0.202604
9.46 -0.198342
9.47 -0.194034
9.48 -0.189729
9.49 -0.185467
9.5 -0.181287
9.51 -0.177206
9.52 -0.173226
9.53 -0.169334
9.54 -0.165506
9.55 -0.161702
9.56 -0.157867
9.57 -0.153918
9.58 -0.149779
9.59 -0.145365
9.6 -0.140583
9.61 -0.135342
9.62 -0.129549
9.63 -0.123071
9.64 -0.115824
9.65 -0.107777
9.66 -0.0988777
9.67 -0.0890897
9.68 -0.0783937
9.69 -0.0667887
9.7 -0.0541938
9.71 -0.0407537
9.72 -0.0265285
9.73 -0.0115926
9.74 0.00396601
9.75 0.0200478
9.76 0.03656
9.77 0.0533759
9.78 0.0703538
9.79 0.0873799
9.8 0.104345
9.81 0.121148
9.82 0.137698
9.83 0.153873
9.84 0.169635
9.85 0.18494
9.86 0.199757
9.87 0.214068
9.88 0.22787
9.89 0.241151
9.9 0.253917
9.91 0.266236
9.92 0.278142
9.93 0.289672
9.94 0.300863
9.95 0.311747
9.96 0.32233
9.97 0.332652
9.98 0.342729
9.99 0.352559
10 0.362129
10.01 0.371413
10.02 0.380366
10.03 0.388912
10.04 0.397023
10.05 0.404637
10.06 0.411685
10.07 0.4181
10.08 0.423816
10.09 0.428703
10.1 0.432736
10.11 0.435901
10.12 0.438166
10.13 0.439518
10.14 0.439957
10.15 0.439484
10.16 0.438072
10.17 0.435863
10.18 0.43293
10.19 0.429358
10.2 0.425243
10.21 0.420693
10.22 0.415807
10.23 0.410728
10.24 0.405587
10.25 0.400497
10.26 0.395564
10.27 0.390887
10.28 0.38655
10.29 0.382673
10.3 0.379262
10.31 0.376347
10.32 0.373938
10.33 0.372024
10.34 0.370578
10.35 0.369573
10.36 0.368934
10.37 0.368556
10.38 0.368347
10.39 0.368205
10.4 0.368023
10.41 0.367692
10.42 0.367058
10.43 0.366033
10.44 0.364517
10.45 0.362418
10.46 0.359655
10.47 0.356157
10.48 0.351827
10.49 0.3466
10.5 0.340507
10.51 0.333537
10.52 0.32569
10.53 0.316984
10.54 0.307443
10.55 0.297026
10.56 0.285854
10.57 0.273991
10.58 0.261493
10.59 0.24842
10.6 0.234833
10.61 0.220777
10.62 0.206304
10.63 0.191505
10.64 0.176431
10.65 0.161131
10.66 0.14565
10.67 0.130028
10.68 0.114294
10.69 0.0984905
10.7 0.0826485
10.71 0.0667932
10.72 0.0509476
10.73 0.0351329
10.74 0.0193712
10.75 0.00368843
10.76 -0.0119018
10.77 -0.0273816
10.78 -0.0427331
10.79 -0.0579393
10.8 -0.0729835
10.81 -0.0878351
10.82 -0.102486
10.83 -0.11693
10.84 -0.131158
10.85 -0.145164
10.86 -0.158944
10.87 -0.172493
10.88 -0.185795
10.89 -0.198881
10.9 -0.211761
10.91 -0.224447
10.92 -0.236955
10.93 -0.249299
10.94 -0.261489
10.95 -0.273545
10.96 -0.285489
10.97 -0.297333
10.98 -0.309084
10.99 -0.320746
11 -0.332316
11.01 -0.343773
11.02 -0.355109
11.03 -0.3663
11.04 -0.377313
11.05 -0.38811
11.06 -0.398645
11.07 -0.408845
11.08 -0.418643
11.09 -0.427997
11.1 -0.436843
11.11 -0.445118
11.12 -0.452758
11.13 -0.459703
11.14 -0.465807
11.15 -0.471093
11.16 -0.475523
11.17 -0.479062
11.18 -0.481686
11.19 -0.483377
11.2 -0.484086
11.21 -0.483796
11.22 -0.482588
11.23 -0.480485
11.24 -0.47752
11.25 -0.473731
11.26 -0.46916
11.27 -0.463788
11.28 -0.45773
11.29 -0.451048
11.3 -0.443792
11.31 -0.436007
11.32 -0.427737
11.33 -0.419005
11.34 -0.409826
11.35 -0.40026
11.36 -0.390324
11.37 -0.38003
11.38 -0.369381
11.39 -0.358377
11.4 -0.34698
11.41 -0.3352
11.42 -0.323038
11.43 -0.310482
11.44 -0.297521
11.45 -0.284147
11.46 -0.270347
11.47 -0.256096
11.48 -0.241442
11.49 -0.226402
11.5 -0.211004
11.51 -0.19528
11.52 -0.179274
11.53 -0.163023
11.54 -0.146604
11.55 -0.130093
11.56 -0.113562
11.57 -0.0970858
11.58 -0.0807442
11.59 -0.0646199
11.6 -0.0488269
11.61 -0.0334159
11.62 -0.0184568
11.63 -0.00401318
11.64 0.00985886
11.65 0.0231117
11.66 0.0356615
11.67 0.0474877
11.68 0.0586087
11.69 0.0690195
11.7 0.0787248
11.71 0.0877385
11.72 0.0960814
11.73 0.103715
11.74 0.110752
11.75 0.117233
11.76 0.123203
11.77 0.128705
11.78 0.133786
11.79 0.138468
11.8 0.142797
11.81 0.146829
11.82 0.150597
11.83 0.154123
11.84 0.157427
11.85 0.160521
11.86 0.163389
11.87 0.166051
11.88 0.168499
11.89 0.170723
11.9 0.172705
11.91 0.174425
11.92 0.175847
11.93 0.176931
11.94 0.177672
11.95 0.178044
11.96 0.178019
11.97 0.17757
11.98 0.176673
11.99 0.175256
12 0.17333
12.01 0.170884
12.02 0.1679
12.03 0.164359
12.04 0.160245
12.05 0.155523
12.06 0.150145
12.07 0.144146
12.08 0.137512
12.09 0.13023
12.1 0.122287
12.11 0.113672
12.12 0.104314
12.13 0.0942417
12.14 0.0834714
12.15 0.0720011
12.16 0.0598335
