# xPDFsuite Configuration #
[PDF]
wavelength = 0.1
dataformat = QA
inputfile = BiMsol6_insitu_700 C-00083.xy
backgroundfile = Quartz2mm-dist500-00000.xy
mode = xray
bgscale = 0.0042
composition = Bi2Fe4O9
outputtype = gr
qmaxinst = 24.998449118
qmin = 0.1
qmax = 21.4986662415
rmax = 80.0
rmin = 0.0
rstep = 0.01
rpoly = 0.9

[Misc]
inputdir = C:/Data/Seafile/CPH/Beamtime/Desy Oct 20/In situ data/Processed/BiMsol6/PDF
savedir = C:/Data/Seafile/CPH/Beamtime/Desy Oct 20/In situ data/PDF/BiMsol6
backgroundfilefull = C:/Data/Seafile/CPH/Beamtime/Desy Oct 20/In situ data/Processed/Standard_Empty_Cap/Quartz2mm-dist500-00000.xy

#### start data
#S 1
#L r($\AA$)  G($\AA^{-2}$)
0 0
0.01 0.00620451
0.02 0.0120589
0.03 0.0172636
0.04 0.02155
0.05 0.0246927
0.06 0.0265201
0.07 0.0268448
0.08 0.0256131
0.09 0.0229646
0.1 0.0190142
0.11 0.0139402
0.12 0.00797565
0.13 0.00139838
0.14 -0.00547859
0.15 -0.0122639
0.16 -0.018627
0.17 -0.0242584
0.18 -0.028881
0.19 -0.032264
0.2 -0.034171
0.21 -0.0344422
0.22 -0.033176
0.23 -0.0304404
0.24 -0.0263792
0.25 -0.0212076
0.26 -0.0152037
0.27 -0.00868545
0.28 -0.00210405
0.29 0.00413884
0.3 0.00965366
0.31 0.0140712
0.32 0.0170609
0.33 0.0182887
0.34 0.0174298
0.35 0.0145427
0.36 0.00963216
0.37 0.00280519
0.38 -0.00572778
0.39 -0.015656
0.4 -0.0266167
0.41 -0.0379998
0.42 -0.0492075
0.43 -0.0596319
0.44 -0.0686456
0.45 -0.0756254
0.46 -0.0799128
0.47 -0.0806595
0.48 -0.0776925
0.49 -0.0706765
0.5 -0.0593978
0.51 -0.0437783
0.52 -0.0238852
0.53 0.000331006
0.54 0.0283114
0.55 0.0593277
0.56 0.0927009
0.57 0.12764
0.58 0.163265
0.59 0.198616
0.6 0.232464
0.61 0.263871
0.62 0.291881
0.63 0.315602
0.64 0.334235
0.65 0.347097
0.66 0.353235
0.67 0.352276
0.68 0.34442
0.69 0.329694
0.7 0.308311
0.71 0.280661
0.72 0.247307
0.73 0.208486
0.74 0.165707
0.75 0.119958
0.76 0.0722833
0.77 0.0237654
0.78 -0.0245074
0.79 -0.0713539
0.8 -0.115595
0.81 -0.156442
0.82 -0.193128
0.83 -0.225027
0.84 -0.251668
0.85 -0.272748
0.86 -0.287547
0.87 -0.296653
0.88 -0.30039
0.89 -0.299153
0.9 -0.293468
0.91 -0.283971
0.92 -0.271293
0.93 -0.256243
0.94 -0.239863
0.95 -0.222961
0.96 -0.206313
0.97 -0.190636
0.98 -0.17657
0.99 -0.164896
1 -0.155927
1.01 -0.149881
1.02 -0.146902
1.03 -0.14701
1.04 -0.150103
1.05 -0.156035
1.06 -0.164592
1.07 -0.175118
1.08 -0.187149
1.09 -0.20018
1.1 -0.213697
1.11 -0.227191
1.12 -0.240104
1.13 -0.251977
1.14 -0.262475
1.15 -0.271322
1.16 -0.278323
1.17 -0.283374
1.18 -0.286427
1.19 -0.287416
1.2 -0.286707
1.21 -0.284534
1.22 -0.281186
1.23 -0.276987
1.24 -0.272282
1.25 -0.267436
1.26 -0.262835
1.27 -0.258786
1.28 -0.255543
1.29 -0.253308
1.3 -0.252217
1.31 -0.252345
1.32 -0.253807
1.33 -0.256374
1.34 -0.259892
1.35 -0.264151
1.36 -0.268896
1.37 -0.273839
1.38 -0.278649
1.39 -0.28297
1.4 -0.286519
1.41 -0.289034
1.42 -0.290294
1.43 -0.290131
1.44 -0.288442
1.45 -0.285014
1.46 -0.280068
1.47 -0.273731
1.48 -0.266193
1.49 -0.2577
1.5 -0.248549
1.51 -0.239074
1.52 -0.229689
1.53 -0.220779
1.54 -0.212699
1.55 -0.205779
1.56 -0.200307
1.57 -0.196521
1.58 -0.194791
1.59 -0.195056
1.6 -0.197286
1.61 -0.2014
1.62 -0.207238
1.63 -0.214565
1.64 -0.223108
1.65 -0.232487
1.66 -0.242198
1.67 -0.2518
1.68 -0.260846
1.69 -0.268893
1.7 -0.275522
1.71 -0.28016
1.72 -0.282563
1.73 -0.282538
1.74 -0.279919
1.75 -0.274623
1.76 -0.266655
1.77 -0.256043
1.78 -0.242837
1.79 -0.227543
1.8 -0.210498
1.81 -0.19209
1.82 -0.172748
1.83 -0.152924
1.84 -0.133111
1.85 -0.113817
1.86 -0.0954553
1.87 -0.0783987
1.88 -0.0629627
1.89 -0.0493973
1.9 -0.0379099
1.91 -0.0287875
1.92 -0.021812
1.93 -0.0168995
1.94 -0.0138935
1.95 -0.0125727
1.96 -0.0126612
1.97 -0.0138902
1.98 -0.0158401
1.99 -0.0180987
2 -0.0203119
2.01 -0.0221469
2.02 -0.0233055
2.03 -0.0235327
2.04 -0.0224973
2.05 -0.0202024
2.06 -0.0166129
2.07 -0.0117678
2.08 -0.00577887
2.09 0.00117316
2.1 0.00886855
2.11 0.0169601
2.12 0.0250599
2.13 0.0327969
2.14 0.0397894
2.15 0.0456603
2.16 0.0500511
2.17 0.0524071
2.18 0.0526156
2.19 0.050485
2.2 0.0458779
2.21 0.0387307
2.22 0.0290568
2.23 0.0168445
2.24 0.00223646
2.25 -0.0143394
2.26 -0.0325678
2.27 -0.0520839
2.28 -0.0724844
2.29 -0.0933414
2.3 -0.114174
2.31 -0.134497
2.32 -0.153903
2.33 -0.172012
2.34 -0.188494
2.35 -0.203072
2.36 -0.215455
2.37 -0.225379
2.38 -0.232971
2.39 -0.238251
2.4 -0.241307
2.41 -0.242293
2.42 -0.241422
2.43 -0.23884
2.44 -0.234981
2.45 -0.230222
2.46 -0.224908
2.47 -0.219379
2.48 -0.213968
2.49 -0.209
2.5 -0.204831
2.51 -0.201638
2.52 -0.199595
2.53 -0.198822
2.54 -0.199385
2.55 -0.201295
2.56 -0.204601
2.57 -0.209144
2.58 -0.214726
2.59 -0.221165
2.6 -0.22825
2.61 -0.235757
2.62 -0.243446
2.63 -0.251047
2.64 -0.25832
2.65 -0.26506
2.66 -0.271082
2.67 -0.276235
2.68 -0.2804
2.69 -0.283423
2.7 -0.285274
2.71 -0.286011
2.72 -0.285671
2.73 -0.284324
2.74 -0.282064
2.75 -0.279008
2.76 -0.275228
2.77 -0.270957
2.78 -0.266341
2.79 -0.261519
2.8 -0.256625
2.81 -0.251776
2.82 -0.247084
2.83 -0.242639
2.84 -0.238482
2.85 -0.234641
2.86 -0.23112
2.87 -0.227904
2.88 -0.224957
2.89 -0.222246
2.9 -0.219677
2.91 -0.217176
2.92 -0.214666
2.93 -0.212072
2.94 -0.209322
2.95 -0.20634
2.96 -0.203057
2.97 -0.199453
2.98 -0.195502
2.99 -0.191195
3 -0.186534
3.01 -0.181536
3.02 -0.176202
3.03 -0.170595
3.04 -0.164767
3.05 -0.158762
3.06 -0.152627
3.07 -0.146405
3.08 -0.140132
3.09 -0.133838
3.1 -0.127544
3.11 -0.121254
3.12 -0.11496
3.13 -0.108643
3.14 -0.102271
3.15 -0.0957918
3.16 -0.0891509
3.17 -0.0822936
3.18 -0.075158
3.19 -0.0676812
3.2 -0.0598021
3.21 -0.051453
3.22 -0.0425397
3.23 -0.0330688
3.24 -0.0230125
3.25 -0.0123549
3.26 -0.00109304
3.27 0.0107636
3.28 0.023233
3.29 0.0362578
3.3 0.0497679
3.31 0.0637099
3.32 0.0780251
3.33 0.0926513
3.34 0.107527
3.35 0.122601
3.36 0.137791
3.37 0.153045
3.38 0.168319
3.39 0.183574
3.4 0.198784
3.41 0.213921
3.42 0.228976
3.43 0.243946
3.44 0.258835
3.45 0.273648
3.46 0.28839
3.47 0.303068
3.48 0.317679
3.49 0.332226
3.5 0.346698
3.51 0.361076
3.52 0.37533
3.53 0.389419
3.54 0.403275
3.55 0.416819
3.56 0.429989
3.57 0.442699
3.58 0.454853
3.59 0.466353
3.6 0.477096
3.61 0.486875
3.62 0.49566
3.63 0.503366
3.64 0.509905
3.65 0.5152
3.66 0.519186
3.67 0.521757
3.68 0.522824
3.69 0.522478
3.7 0.520723
3.71 0.517579
3.72 0.513083
3.73 0.507286
3.74 0.500146
3.75 0.491839
3.76 0.482485
3.77 0.472182
3.78 0.461034
3.79 0.449149
3.8 0.436621
3.81 0.42354
3.82 0.410066
3.83 0.396299
3.84 0.382331
3.85 0.368252
3.86 0.354143
3.87 0.340084
3.88 0.326147
3.89 0.312385
3.9 0.298846
3.91 0.285572
3.92 0.272597
3.93 0.259956
3.94 0.247702
3.95 0.235818
3.96 0.224316
3.97 0.213202
3.98 0.202479
3.99 0.192143
4 0.182215
4.01 0.172673
4.02 0.163481
4.03 0.154619
4.04 0.146063
4.05 0.137781
4.06 0.129744
4.07 0.121931
4.08 0.114276
4.09 0.106739
4.1 0.0992787
4.11 0.0918534
4.12 0.0844247
4.13 0.0769527
4.14 0.0694028
4.15 0.0617547
4.16 0.0539932
4.17 0.0461117
4.18 0.038113
4.19 0.0300099
4.2 0.0218199
4.21 0.0135901
4.22 0.0053655
4.23 -0.00280063
4.24 -0.0108484
4.25 -0.0187129
4.26 -0.0263101
4.27 -0.0335548
4.28 -0.0403983
4.29 -0.0467788
4.3 -0.0526416
4.31 -0.0579412
4.32 -0.0626434
4.33 -0.0666631
4.34 -0.0700495
4.35 -0.0728241
4.36 -0.0750149
4.37 -0.0766645
4.38 -0.0778297
4.39 -0.0785672
4.4 -0.0789558
4.41 -0.079117
4.42 -0.0791455
4.43 -0.0791371
4.44 -0.0791864
4.45 -0.0793828
4.46 -0.0798359
4.47 -0.0806079
4.48 -0.0817467
4.49 -0.0832904
4.5 -0.0852602
4.51 -0.0876596
4.52 -0.0904841
4.53 -0.0937193
4.54 -0.0972756
4.55 -0.101086
4.56 -0.105073
4.57 -0.10915
4.58 -0.113224
4.59 -0.117185
4.6 -0.120932
4.61 -0.124382
4.62 -0.127457
4.63 -0.13009
4.64 -0.132228
4.65 -0.133825
4.66 -0.134813
4.67 -0.135247
4.68 -0.135146
4.69 -0.134547
4.7 -0.133497
4.71 -0.13206
4.72 -0.130293
4.73 -0.128295
4.74 -0.126164
4.75 -0.123987
4.76 -0.121846
4.77 -0.119816
4.78 -0.117966
4.79 -0.116385
4.8 -0.115092
4.81 -0.114112
4.82 -0.11346
4.83 -0.113133
4.84 -0.113118
4.85 -0.113401
4.86 -0.11394
4.87 -0.114672
4.88 -0.115547
4.89 -0.116515
4.9 -0.117523
4.91 -0.118526
4.92 -0.119474
4.93 -0.120339
4.94 -0.1211
4.95 -0.121752
4.96 -0.122296
4.97 -0.122747
4.98 -0.123131
4.99 -0.123486
5 -0.123861
5.01 -0.124302
5.02 -0.124861
5.03 -0.125584
5.04 -0.126515
5.05 -0.12772
5.06 -0.129205
5.07 -0.130979
5.08 -0.133042
5.09 -0.135378
5.1 -0.137955
5.11 -0.140734
5.12 -0.143653
5.13 -0.146624
5.14 -0.149563
5.15 -0.152385
5.16 -0.154998
5.17 -0.157314
5.18 -0.159208
5.19 -0.160618
5.2 -0.161496
5.21 -0.161796
5.22 -0.161491
5.23 -0.160573
5.24 -0.15904
5.25 -0.156894
5.26 -0.154249
5.27 -0.151182
5.28 -0.147784
5.29 -0.144159
5.3 -0.140422
5.31 -0.136699
5.32 -0.133124
5.33 -0.129807
5.34 -0.126851
5.35 -0.124341
5.36 -0.122348
5.37 -0.120927
5.38 -0.120158
5.39 -0.119974
5.4 -0.120345
5.41 -0.121214
5.42 -0.122502
5.43 -0.124112
5.44 -0.125932
5.45 -0.127811
5.46 -0.129603
5.47 -0.131168
5.48 -0.132372
5.49 -0.13309
5.5 -0.13321
5.51 -0.132551
5.52 -0.131121
5.53 -0.128882
5.54 -0.125825
5.55 -0.121968
5.56 -0.117359
5.57 -0.112038
5.58 -0.106121
5.59 -0.0997731
5.6 -0.0931349
5.61 -0.0863577
5.62 -0.0795978
5.63 -0.073011
5.64 -0.0667965
5.65 -0.0610706
5.66 -0.0559447
5.67 -0.0515105
5.68 -0.0478332
5.69 -0.0449492
5.7 -0.0428985
5.71 -0.0416704
5.72 -0.0411439
5.73 -0.0412289
5.74 -0.0418118
5.75 -0.042759
5.76 -0.0439224
5.77 -0.0451345
5.78 -0.0462123
5.79 -0.0469996
5.8 -0.0473511
5.81 -0.0471382
5.82 -0.0462527
5.83 -0.0445849
5.84 -0.042036
5.85 -0.0386554
5.86 -0.0344596
5.87 -0.0294961
5.88 -0.0238417
5.89 -0.0175996
5.9 -0.0108687
5.91 -0.00383878
5.92 0.00331784
5.93 0.0104377
5.94 0.017359
5.95 0.0239271
5.96 0.0299872
5.97 0.0353589
5.98 0.0400002
5.99 0.0438477
6 0.0468688
6.01 0.0490627
6.02 0.0504607
6.03 0.051077
6.04 0.0510434
6.05 0.0505129
6.06 0.0496272
6.07 0.0485422
6.08 0.0474221
6.09 0.0464365
6.1 0.0457944
6.11 0.0456262
6.12 0.0460621
6.13 0.0472093
6.14 0.0491483
6.15 0.0519297
6.16 0.0556259
6.17 0.0602055
6.18 0.0655664
6.19 0.0716219
6.2 0.0782578
6.21 0.0853359
6.22 0.0926996
6.23 0.100171
6.24 0.107542
6.25 0.114634
6.26 0.121276
6.27 0.127309
6.28 0.132591
6.29 0.136953
6.3 0.140284
6.31 0.142585
6.32 0.143837
6.33 0.144048
6.34 0.143261
6.35 0.141546
6.36 0.138927
6.37 0.135619
6.38 0.131776
6.39 0.127552
6.4 0.123109
6.41 0.118608
6.42 0.114217
6.43 0.11011
6.44 0.106403
6.45 0.103202
6.46 0.100588
6.47 0.0986182
6.48 0.0973202
6.49 0.096757
6.5 0.0968464
6.51 0.0975164
6.52 0.0986882
6.53 0.100265
6.54 0.102137
6.55 0.104184
6.56 0.106267
6.57 0.108249
6.58 0.110011
6.59 0.111446
6.6 0.112459
6.61 0.112974
6.62 0.112883
6.63 0.112176
6.64 0.110863
6.65 0.108958
6.66 0.106493
6.67 0.10352
6.68 0.100101
6.69 0.0963007
6.7 0.0922532
6.71 0.0880566
6.72 0.0838098
6.73 0.0796093
6.74 0.0755456
6.75 0.071721
6.76 0.0682066
6.77 0.0650433
6.78 0.0622669
6.79 0.0598963
6.8 0.0579344
6.81 0.0563711
6.82 0.0552109
6.83 0.0543676
6.84 0.0537877
6.85 0.0534106
6.86 0.0531714
6.87 0.0530034
6.88 0.0528375
6.89 0.0526039
6.9 0.0522497
6.91 0.0517306
6.92 0.0510128
6.93 0.0500735
6.94 0.0489014
6.95 0.0474718
6.96 0.0458252
6.97 0.0439859
6.98 0.0419856
6.99 0.0398622
7 0.0376573
7.01 0.0354149
7.02 0.0331843
7.03 0.031007
7.04 0.0289171
7.05 0.0269422
7.06 0.0251016
7.07 0.0234057
7.08 0.0218697
7.09 0.0204694
7.1 0.0191828
7.11 0.0179821
7.12 0.0168328
7.13 0.0156957
7.14 0.0145252
7.15 0.0132688
7.16 0.0118875
7.17 0.0103431
7.18 0.00860328
7.19 0.00664267
7.2 0.00444489
7.21 0.00198135
7.22 -0.000724881
7.23 -0.00364955
7.24 -0.00676375
7.25 -0.0100284
7.26 -0.0133956
7.27 -0.0168088
7.28 -0.0201965
7.29 -0.023489
7.3 -0.0266185
7.31 -0.0295182
7.32 -0.0321243
7.33 -0.0343786
7.34 -0.0361936
7.35 -0.0375417
7.36 -0.0384093
7.37 -0.0387797
7.38 -0.0386489
7.39 -0.0380258
7.4 -0.0369242
7.41 -0.0353474
7.42 -0.0333898
7.43 -0.0311089
7.44 -0.0285704
7.45 -0.0258461
7.46 -0.0230124
7.47 -0.0201516
7.48 -0.0173542
7.49 -0.0146973
7.5 -0.0122529
7.51 -0.0100867
7.52 -0.00825687
7.53 -0.00681506
7.54 -0.00584857
7.55 -0.00533876
7.56 -0.00529953
7.57 -0.00573342
7.58 -0.00663179
7.59 -0.00797531
7.6 -0.00975683
7.61 -0.0119305
7.62 -0.0144245
7.63 -0.0171847
7.64 -0.0201525
7.65 -0.0232661
7.66 -0.026462
7.67 -0.0296722
7.68 -0.0328271
7.69 -0.0358687
7.7 -0.0387437
7.71 -0.0414043
7.72 -0.0438097
7.73 -0.0459111
7.74 -0.0476742
7.75 -0.0491047
7.76 -0.0501971
7.77 -0.0509546
7.78 -0.0513887
7.79 -0.051519
7.8 -0.0513482
7.81 -0.0509379
7.82 -0.0503332
7.83 -0.0495785
7.84 -0.0487214
7.85 -0.0478106
7.86 -0.0468969
7.87 -0.0460358
7.88 -0.0452707
7.89 -0.0446406
7.9 -0.0441786
7.91 -0.0439108
7.92 -0.0438554
7.93 -0.0440419
7.94 -0.0444551
7.95 -0.0450771
7.96 -0.0458867
7.97 -0.0468541
7.98 -0.047941
7.99 -0.0491025
8 -0.0502814
8.01 -0.0514151
8.02 -0.052445
8.03 -0.0533123
8.04 -0.05396
8.05 -0.0543352
8.06 -0.0543625
8.07 -0.0540118
8.08 -0.0532693
8.09 -0.0521199
8.1 -0.0505613
8.11 -0.0486044
8.12 -0.0462691
8.13 -0.0435706
8.14 -0.0406014
8.15 -0.0374277
8.16 -0.0341259
8.17 -0.0307799
8.18 -0.0274797
8.19 -0.0243336
8.2 -0.0214452
8.21 -0.0188953
8.22 -0.0167655
8.23 -0.0151278
8.24 -0.0140416
8.25 -0.0135541
8.26 -0.0137635
8.27 -0.0146058
8.28 -0.0160664
8.29 -0.0181114
8.3 -0.0206875
8.31 -0.023724
8.32 -0.0271486
8.33 -0.0308438
8.34 -0.0346729
8.35 -0.038514
8.36 -0.0422422
8.37 -0.0457326
8.38 -0.048865
8.39 -0.0514643
8.4 -0.0534708
8.41 -0.0548071
8.42 -0.0554111
8.43 -0.0552411
8.44 -0.0542775
8.45 -0.0524891
8.46 -0.0498891
8.47 -0.0465884
8.48 -0.0426614
8.49 -0.0382003
8.5 -0.0333119
8.51 -0.0281146
8.52 -0.0227294
8.53 -0.0173145
8.54 -0.012001
8.55 -0.00691012
8.56 -0.00215357
8.57 0.00217062
8.58 0.00596108
8.59 0.00912158
8.6 0.0116603
8.61 0.0135636
8.62 0.0148403
8.63 0.0155201
8.64 0.0156527
8.65 0.0152712
8.66 0.0144977
8.67 0.0134425
8.68 0.0122086
8.69 0.0109016
8.7 0.00962573
8.71 0.00848515
8.72 0.00759561
8.73 0.0070167
8.74 0.006806
8.75 0.00700316
8.76 0.00762862
8.77 0.008683
8.78 0.0101756
8.79 0.0120463
8.8 0.0142196
8.81 0.0166231
8.82 0.0191736
8.83 0.0217808
8.84 0.0243491
8.85 0.0267617
8.86 0.0289369
8.87 0.0307962
8.88 0.0322733
8.89 0.0333164
8.9 0.0338908
8.91 0.033949
8.92 0.0335036
8.93 0.0326072
8.94 0.0313047
8.95 0.0296575
8.96 0.0277405
8.97 0.0256395
8.98 0.023449
8.99 0.0212858
9 0.0192462
9.01 0.0174214
9.02 0.0158942
9.03 0.0147352
9.04 0.0140253
9.05 0.0138107
9.06 0.0140785
9.07 0.0148236
9.08 0.0160212
9.09 0.0176278
9.1 0.0195826
9.11 0.0218298
9.12 0.0242447
9.13 0.0267266
9.14 0.0291739
9.15 0.0314853
9.16 0.0335633
9.17 0.0353009
9.18 0.0365983
9.19 0.0374213
9.2 0.0377286
9.21 0.037498
9.22 0.0367275
9.23 0.0354354
9.24 0.0336192
9.25 0.031381
9.26 0.0288077
9.27 0.0259888
9.28 0.0230229
9.29 0.0200142
9.3 0.0170739
9.31 0.0143279
9.32 0.0118638
9.33 0.00976497
9.34 0.00810102
9.35 0.0069246
9.36 0.00626976
9.37 0.0061954
9.38 0.00666266
9.39 0.00762221
9.4 0.00902349
9.41 0.0107994
9.42 0.0128686
9.43 0.0151411
9.44 0.0175115
9.45 0.0198589
9.46 0.0220815
9.47 0.0240827
9.48 0.0257752
9.49 0.0270836
9.5 0.0279116
9.51 0.0282266
9.52 0.0280293
9.53 0.0273202
9.54 0.0261193
9.55 0.0244651
9.56 0.0224098
9.57 0.0200016
9.58 0.0173665
9.59 0.014597
9.6 0.0117897
9.61 0.00904133
9.62 0.00644574
9.63 0.00411004
9.64 0.00211922
9.65 0.000519928
9.66 -0.00064291
9.67 -0.00134134
9.68 -0.00156514
9.69 -0.00132198
9.7 -0.000590508
9.71 0.000531097
9.72 0.00198348
9.73 0.003697
9.74 0.00559394
9.75 0.00759165
9.76 0.00960224
9.77 0.0115304
9.78 0.0133006
9.79 0.0148459
9.8 0.0161109
9.81 0.0170534
9.82 0.0176458
9.83 0.0178388
9.84 0.0176729
9.85 0.0171758
9.86 0.0163848
9.87 0.0153489
9.88 0.0141274
9.89 0.012785
9.9 0.0114014
9.91 0.010057
9.92 0.00882161
9.93 0.00775978
9.94 0.00692805
9.95 0.0063728
9.96 0.00615936
9.97 0.00628685
9.98 0.00675048
9.99 0.00753861
10 0.00862583
10.01 0.00997401
10.02 0.0115383
10.03 0.0132603
10.04 0.0150559
10.05 0.0168552
10.06 0.018588
10.07 0.0201862
10.08 0.0215866
10.09 0.0227085
10.1 0.0235134
10.11 0.0239786
10.12 0.0240851
10.13 0.0238272
10.14 0.0232127
10.15 0.022257
10.16 0.0209742
10.17 0.0194435
10.18 0.0177196
10.19 0.0158634
10.2 0.0139396
10.21 0.0120142
10.22 0.0101609
10.23 0.00844718
10.24 0.00692289
10.25 0.00563296
10.26 0.00461248
10.27 0.00388555
10.28 0.00346688
10.29 0.00338744
10.3 0.00359934
10.31 0.00407803
10.32 0.00478958
10.33 0.00569221
10.34 0.00673805
10.35 0.00787717
10.36 0.00904679
10.37 0.0101885
10.38 0.0112514
10.39 0.0121886
10.4 0.0129594
10.41 0.0135302
10.42 0.013848
10.43 0.0139207
10.44 0.0137437
10.45 0.0133198
10.46 0.01266
10.47 0.0117823
10.48 0.0107024
10.49 0.00945035
10.5 0.0080712
10.51 0.00659825
10.52 0.00506452
10.53 0.00350144
10.54 0.00193768
10.55 0.000402756
10.56 -0.00108369
10.57 -0.00250791
10.58 -0.00386075
10.59 -0.00513791
10.6 -0.00633941
10.61 -0.00746649
10.62 -0.00852415
10.63 -0.0095266
10.64 -0.0104828
10.65 -0.011401
10.66 -0.0122879
10.67 -0.0131473
10.68 -0.0139774
10.69 -0.0147758
10.7 -0.0155349
10.71 -0.0162425
10.72 -0.0168829
10.73 -0.0174374
10.74 -0.0178815
10.75 -0.0181824
10.76 -0.0183283
10.77 -0.0182995
10.78 -0.0180795
10.79 -0.0176558
10.8 -0.0170216
10.81 -0.0161603
10.82 -0.0150898
10.83 -0.0138345
10.84 -0.0124188
10.85 -0.0108744
10.86 -0.00923991
10.87 -0.0075598
10.88 -0.00589013
10.89 -0.00428738
10.9 -0.0028052
10.91 -0.00149623
10.92 -0.000410203
10.93 0.000407945
10.94 0.000896686
10.95 0.0010293
10.96 0.000803268
10.97 0.000211908
10.98 -0.000739952
10.99 -0.00203576
11 -0.00364869
11.01 -0.00556377
11.02 -0.00769476
11.03 -0.00998222
11.04 -0.0123605
11.05 -0.0147597
11.06 -0.0171081
11.07 -0.0193226
11.08 -0.021324
11.09 -0.0230578
11.1 -0.0244692
11.11 -0.0255124
11.12 -0.0261527
11.13 -0.0263667
11.14 -0.0260959
11.15 -0.0253904
11.16 -0.0242709
11.17 -0.0227672
11.18 -0.0209194
11.19 -0.0187766
11.2 -0.0163875
11.21 -0.0138193
11.22 -0.011154
11.23 -0.00845757
11.24 -0.00579454
11.25 -0.00322565
11.26 -0.000806198
11.27 0.00139188
11.28 0.00334217
11.29 0.00502026
11.3 0.006408
11.31 0.00749715
11.32 0.00828904
11.33 0.00878446
11.34 0.00899274
11.35 0.00896375
11.36 0.00872896
11.37 0.00832316
11.38 0.00778284
11.39 0.00714463
11.4 0.00644125
11.41 0.00571234
11.42 0.00498705
11.43 0.00428795
11.44 0.00363218
11.45 0.00303122
11.46 0.00249243
11.47 0.00202005
11.48 0.00160316
11.49 0.00123295
11.5 0.000898041
11.51 0.000585586
11.52 0.000282382
11.53 -2.51091e-05
11.54 -0.000348381
11.55 -0.000694253
11.56 -0.00106614
11.57 -0.00146346
11.58 -0.00188141
11.59 -0.00231104
11.6 -0.00273755
11.61 -0.00314321
11.62 -0.00350915
11.63 -0.00381533
11.64 -0.00404166
11.65 -0.00416913
11.66 -0.00417242
11.67 -0.00403866
11.68 -0.00376623
11.69 -0.0033529
11.7 -0.00280233
11.71 -0.00212433
11.72 -0.00133465
11.73 -0.000448144
11.74 0.000494492
11.75 0.00146092
11.76 0.00241593
11.77 0.00332285
11.78 0.00414493
11.79 0.00483846
11.8 0.00536597
11.81 0.00570917
11.82 0.00584826
