# xPDFsuite Configuration #
[PDF]
wavelength = 0.1
dataformat = QA
inputfile = BiMsol6_insitu_700 C-00500.xy
backgroundfile = Quartz2mm-dist500-00000.xy
mode = xray
bgscale = 0.0042
composition = Bi2Fe4O9
outputtype = gr
qmaxinst = 24.998449118
qmin = 0.1
qmax = 21.4986662415
rmax = 80.0
rmin = 0.0
rstep = 0.01
rpoly = 0.9

[Misc]
inputdir = C:/Data/Seafile/CPH/Beamtime/Desy Oct 20/In situ data/Processed/BiMsol6/PDF
savedir = C:/Data/Seafile/CPH/Beamtime/Desy Oct 20/In situ data/PDF/BiMsol6
backgroundfilefull = C:/Data/Seafile/CPH/Beamtime/Desy Oct 20/In situ data/Processed/Standard_Empty_Cap/Quartz2mm-dist500-00000.xy

#### start data
#S 1
#L r($\AA$)  G($\AA^{-2}$)
0 0
0.01 0.00608873
0.02 0.0118291
0.03 0.0169232
0.04 0.0211037
0.05 0.0241468
0.06 0.0258823
0.07 0.0261246
0.08 0.0248213
0.09 0.0221121
0.1 0.0181128
0.11 0.0130017
0.12 0.00701183
0.13 0.000420678
0.14 -0.00645857
0.15 -0.0132369
0.16 -0.0195858
0.17 -0.0251977
0.18 -0.0297978
0.19 -0.0331583
0.2 -0.0350457
0.21 -0.0353037
0.22 -0.0340336
0.23 -0.031306
0.24 -0.0272674
0.25 -0.0221348
0.26 -0.016188
0.27 -0.00974766
0.28 -0.00326383
0.29 0.00286293
0.3 0.0082445
0.31 0.0125138
0.32 0.0153429
0.33 0.016401
0.34 0.0153674
0.35 0.0123051
0.36 0.00722297
0.37 0.000231752
0.38 -0.00845473
0.39 -0.0185229
0.4 -0.0296067
0.41 -0.0410956
0.42 -0.0523928
0.43 -0.0628917
0.44 -0.0719675
0.45 -0.0790001
0.46 -0.0833357
0.47 -0.0841315
0.48 -0.0812206
0.49 -0.0742727
0.5 -0.0630794
0.51 -0.0475667
0.52 -0.027805
0.53 -0.00374803
0.54 0.0240468
0.55 0.0548555
0.56 0.088005
0.57 0.122713
0.58 0.158108
0.59 0.193248
0.6 0.226921
0.61 0.258206
0.62 0.286167
0.63 0.309932
0.64 0.328719
0.65 0.341867
0.66 0.348449
0.67 0.348107
0.68 0.341042
0.69 0.327289
0.7 0.307059
0.71 0.280741
0.72 0.248884
0.73 0.211725
0.74 0.17073
0.75 0.126856
0.76 0.0811114
0.77 0.0345401
0.78 -0.0118136
0.79 -0.056821
0.8 -0.0993595
0.81 -0.138682
0.82 -0.174068
0.83 -0.204932
0.84 -0.230841
0.85 -0.251522
0.86 -0.266319
0.87 -0.275804
0.88 -0.280299
0.89 -0.280194
0.9 -0.275999
0.91 -0.268325
0.92 -0.25778
0.93 -0.245132
0.94 -0.23135
0.95 -0.217185
0.96 -0.203351
0.97 -0.190505
0.98 -0.179222
0.99 -0.170207
1 -0.163717
1.01 -0.159922
1.02 -0.158925
1.03 -0.160712
1.04 -0.165156
1.05 -0.172089
1.06 -0.181275
1.07 -0.192102
1.08 -0.204126
1.09 -0.216877
1.1 -0.229879
1.11 -0.242672
1.12 -0.254742
1.13 -0.265701
1.14 -0.275276
1.15 -0.283244
1.16 -0.289464
1.17 -0.293875
1.18 -0.296475
1.19 -0.297244
1.2 -0.296548
1.21 -0.294628
1.22 -0.291768
1.23 -0.288277
1.24 -0.284475
1.25 -0.2807
1.26 -0.277288
1.27 -0.274485
1.28 -0.272497
1.29 -0.271469
1.3 -0.271484
1.31 -0.272568
1.32 -0.274764
1.33 -0.277828
1.34 -0.281579
1.35 -0.285791
1.36 -0.290205
1.37 -0.294541
1.38 -0.298474
1.39 -0.301684
1.4 -0.303945
1.41 -0.305044
1.42 -0.304819
1.43 -0.303161
1.44 -0.300029
1.45 -0.295291
1.46 -0.289216
1.47 -0.281983
1.48 -0.273821
1.49 -0.265008
1.5 -0.255858
1.51 -0.246728
1.52 -0.238028
1.53 -0.230094
1.54 -0.223243
1.55 -0.217757
1.56 -0.213865
1.57 -0.211738
1.58 -0.211667
1.59 -0.213507
1.6 -0.217155
1.61 -0.22246
1.62 -0.2292
1.63 -0.237088
1.64 -0.245794
1.65 -0.254891
1.66 -0.2639
1.67 -0.272391
1.68 -0.279941
1.69 -0.28615
1.7 -0.290655
1.71 -0.292943
1.72 -0.292875
1.73 -0.290356
1.74 -0.285315
1.75 -0.277766
1.76 -0.267807
1.77 -0.255567
1.78 -0.24121
1.79 -0.225272
1.8 -0.208136
1.81 -0.190219
1.82 -0.171959
1.83 -0.153798
1.84 -0.136241
1.85 -0.119713
1.86 -0.104538
1.87 -0.0910012
1.88 -0.079322
1.89 -0.0696442
1.9 -0.062063
1.91 -0.0567319
1.92 -0.0533255
1.93 -0.0516607
1.94 -0.0514936
1.95 -0.05253
1.96 -0.054439
1.97 -0.0568766
1.98 -0.0594209
1.99 -0.0617022
2 -0.0634018
2.01 -0.0642425
2.02 -0.0640005
2.03 -0.0625106
2.04 -0.0595346
2.05 -0.0552233
2.06 -0.0496597
2.07 -0.0429999
2.08 -0.0354685
2.09 -0.0273496
2.1 -0.0189847
2.11 -0.0108059
2.12 -0.00322135
2.13 0.00337042
2.14 0.00858373
2.15 0.0120607
2.16 0.0134854
2.17 0.0123211
2.18 0.00860287
2.19 0.00224755
2.2 -0.0067652
2.21 -0.0183738
2.22 -0.032436
2.23 -0.0488204
2.24 -0.0672368
2.25 -0.0871642
2.26 -0.108194
2.27 -0.129885
2.28 -0.151781
2.29 -0.173423
2.3 -0.194255
2.31 -0.213879
2.32 -0.231945
2.33 -0.248151
2.34 -0.262257
2.35 -0.274096
2.36 -0.283496
2.37 -0.290337
2.38 -0.2949
2.39 -0.297337
2.4 -0.297865
2.41 -0.296751
2.42 -0.294307
2.43 -0.29082
2.44 -0.286752
2.45 -0.282489
2.46 -0.27838
2.47 -0.274744
2.48 -0.271867
2.49 -0.270017
2.5 -0.269481
2.51 -0.270274
2.52 -0.272447
2.53 -0.275992
2.54 -0.280843
2.55 -0.286879
2.56 -0.293996
2.57 -0.301917
2.58 -0.310362
2.59 -0.319074
2.6 -0.327791
2.61 -0.336254
2.62 -0.344211
2.63 -0.351354
2.64 -0.357561
2.65 -0.362693
2.66 -0.366655
2.67 -0.369394
2.68 -0.370906
2.69 -0.371156
2.7 -0.370256
2.71 -0.368389
2.72 -0.365705
2.73 -0.362374
2.74 -0.358578
2.75 -0.354501
2.76 -0.350335
2.77 -0.346274
2.78 -0.342463
2.79 -0.339023
2.8 -0.336043
2.81 -0.333581
2.82 -0.331691
2.83 -0.330361
2.84 -0.329507
2.85 -0.329053
2.86 -0.328896
2.87 -0.328919
2.88 -0.32899
2.89 -0.328946
2.9 -0.328646
2.91 -0.327962
2.92 -0.326777
2.93 -0.324993
2.94 -0.322532
2.95 -0.319304
2.96 -0.315254
2.97 -0.310435
2.98 -0.304869
2.99 -0.298593
3 -0.291664
3.01 -0.284145
3.02 -0.276067
3.03 -0.267546
3.04 -0.258657
3.05 -0.249454
3.06 -0.239973
3.07 -0.230232
3.08 -0.220218
3.09 -0.209881
3.1 -0.199185
3.11 -0.188051
3.12 -0.176378
3.13 -0.164051
3.14 -0.15094
3.15 -0.136825
3.16 -0.121601
3.17 -0.105176
3.18 -0.0874393
3.19 -0.0683025
3.2 -0.047704
3.21 -0.025583
3.22 -0.0018393
3.23 0.023327
3.24 0.049819
3.25 0.0774994
3.26 0.106192
3.27 0.135683
3.28 0.165749
3.29 0.19606
3.3 0.226298
3.31 0.256155
3.32 0.28532
3.33 0.313486
3.34 0.340344
3.35 0.365434
3.36 0.388659
3.37 0.409811
3.38 0.428719
3.39 0.445255
3.4 0.45933
3.41 0.470747
3.42 0.479531
3.43 0.485871
3.44 0.489856
3.45 0.491606
3.46 0.491268
3.47 0.489013
3.48 0.484845
3.49 0.479177
3.5 0.472206
3.51 0.464125
3.52 0.455117
3.53 0.445352
3.54 0.43496
3.55 0.424086
3.56 0.412878
3.57 0.401426
3.58 0.389798
3.59 0.378048
3.6 0.366214
3.61 0.354318
3.62 0.342385
3.63 0.330431
3.64 0.318469
3.65 0.306518
3.66 0.294605
3.67 0.282771
3.68 0.271077
3.69 0.259582
3.7 0.248365
3.71 0.237518
3.72 0.227144
3.73 0.217357
3.74 0.208353
3.75 0.200223
3.76 0.193071
3.77 0.187015
3.78 0.182166
3.79 0.178621
3.8 0.176503
3.81 0.175967
3.82 0.176927
3.83 0.179396
3.84 0.183367
3.85 0.188806
3.86 0.19566
3.87 0.203955
3.88 0.21352
3.89 0.224194
3.9 0.235852
3.91 0.248361
3.92 0.261582
3.93 0.275382
3.94 0.289642
3.95 0.304176
3.96 0.318859
3.97 0.333579
3.98 0.348231
3.99 0.362726
4 0.376961
4.01 0.390867
4.02 0.404398
4.03 0.417508
4.04 0.430155
4.05 0.442301
4.06 0.453905
4.07 0.464869
4.08 0.475213
4.09 0.484891
4.1 0.493854
4.11 0.502045
4.12 0.509401
4.13 0.515794
4.14 0.521139
4.15 0.525409
4.16 0.528523
4.17 0.530403
4.18 0.530971
4.19 0.530157
4.2 0.527733
4.21 0.523805
4.22 0.518346
4.23 0.511344
4.24 0.502801
4.25 0.492738
4.26 0.481127
4.27 0.468011
4.28 0.453568
4.29 0.437895
4.3 0.421097
4.31 0.40329
4.32 0.384597
4.33 0.365075
4.34 0.34493
4.35 0.324288
4.36 0.30326
4.37 0.281944
4.38 0.260424
4.39 0.238768
4.4 0.217032
4.41 0.195261
4.42 0.173472
4.43 0.15167
4.44 0.129847
4.45 0.107987
4.46 0.0860579
4.47 0.064034
4.48 0.0418915
4.49 0.0196097
4.5 -0.00282381
4.51 -0.0254104
4.52 -0.0481406
4.53 -0.0709877
4.54 -0.0938893
4.55 -0.116778
4.56 -0.13957
4.57 -0.162164
4.58 -0.184447
4.59 -0.206248
4.6 -0.227433
4.61 -0.247883
4.62 -0.267461
4.63 -0.286036
4.64 -0.303488
4.65 -0.31969
4.66 -0.33443
4.67 -0.347775
4.68 -0.359686
4.69 -0.370152
4.7 -0.379188
4.71 -0.386837
4.72 -0.393081
4.73 -0.398057
4.74 -0.401945
4.75 -0.404882
4.76 -0.407014
4.77 -0.4085
4.78 -0.409497
4.79 -0.410149
4.8 -0.410658
4.81 -0.411164
4.82 -0.411791
4.83 -0.412644
4.84 -0.413808
4.85 -0.415367
4.86 -0.417362
4.87 -0.419773
4.88 -0.422583
4.89 -0.425751
4.9 -0.429216
4.91 -0.432903
4.92 -0.436722
4.93 -0.440551
4.94 -0.44428
4.95 -0.447803
4.96 -0.451015
4.97 -0.453819
4.98 -0.4561
4.99 -0.45776
5 -0.458778
5.01 -0.459112
5.02 -0.458737
5.03 -0.457643
5.04 -0.455837
5.05 -0.453272
5.06 -0.45004
5.07 -0.446197
5.08 -0.441791
5.09 -0.436873
5.1 -0.431496
5.11 -0.425697
5.12 -0.41951
5.13 -0.413006
5.14 -0.406214
5.15 -0.399155
5.16 -0.39184
5.17 -0.384271
5.18 -0.376418
5.19 -0.368281
5.2 -0.359848
5.21 -0.351098
5.22 -0.342007
5.23 -0.332556
5.24 -0.322719
5.25 -0.312459
5.26 -0.301813
5.27 -0.290792
5.28 -0.279421
5.29 -0.267734
5.3 -0.255778
5.31 -0.243603
5.32 -0.231295
5.33 -0.218944
5.34 -0.206638
5.35 -0.194466
5.36 -0.182522
5.37 -0.170904
5.38 -0.159744
5.39 -0.149088
5.4 -0.139003
5.41 -0.129548
5.42 -0.120764
5.43 -0.112682
5.44 -0.105363
5.45 -0.0987922
5.46 -0.0929127
5.47 -0.0876914
5.48 -0.0830834
5.49 -0.0790338
5.5 -0.0754813
5.51 -0.0723985
5.52 -0.06966
5.53 -0.067197
5.54 -0.0649439
5.55 -0.0628404
5.56 -0.0608338
5.57 -0.0588808
5.58 -0.0569432
5.59 -0.0549967
5.6 -0.0530295
5.61 -0.0510389
5.62 -0.0490305
5.63 -0.0470159
5.64 -0.0450146
5.65 -0.0430465
5.66 -0.0411299
5.67 -0.0392805
5.68 -0.0375093
5.69 -0.0358206
5.7 -0.0342134
5.71 -0.0326726
5.72 -0.0311665
5.73 -0.0296587
5.74 -0.0281032
5.75 -0.0264457
5.76 -0.0246246
5.77 -0.0225443
5.78 -0.0201456
5.79 -0.0173647
5.8 -0.0141367
5.81 -0.010403
5.82 -0.00611453
5.83 -0.001213
5.84 0.00435792
5.85 0.0105517
5.86 0.0173551
5.87 0.0247375
5.88 0.0326511
5.89 0.0410319
5.9 0.0498262
5.91 0.0589075
5.92 0.0681599
5.93 0.0774732
5.94 0.0867344
5.95 0.0958312
5.96 0.104648
5.97 0.113045
5.98 0.120967
5.99 0.128343
6 0.135122
6.01 0.14127
6.02 0.146774
6.03 0.151594
6.04 0.155786
6.05 0.159427
6.06 0.162582
6.07 0.16533
6.08 0.167762
6.09 0.169971
6.1 0.172056
6.11 0.174133
6.12 0.17629
6.13 0.178606
6.14 0.181142
6.15 0.183946
6.16 0.187064
6.17 0.190494
6.18 0.194199
6.19 0.198133
6.2 0.202229
6.21 0.206403
6.22 0.21055
6.23 0.214522
6.24 0.218195
6.25 0.221434
6.26 0.224103
6.27 0.226069
6.28 0.227209
6.29 0.227356
6.3 0.226391
6.31 0.224303
6.32 0.221045
6.33 0.216593
6.34 0.210949
6.35 0.20414
6.36 0.196109
6.37 0.187049
6.38 0.177075
6.39 0.166307
6.4 0.154879
6.41 0.142933
6.42 0.130612
6.43 0.11808
6.44 0.105509
6.45 0.0930375
6.46 0.0807902
6.47 0.0688778
6.48 0.0573928
6.49 0.0464595
6.5 0.0360945
6.51 0.0263091
6.52 0.0171043
6.53 0.00846063
6.54 0.000340004
6.55 -0.00729996
6.56 -0.0145155
6.57 -0.0214264
6.58 -0.0281181
6.59 -0.0346778
6.6 -0.0411906
6.61 -0.0477361
6.62 -0.0543983
6.63 -0.0612358
6.64 -0.0682847
6.65 -0.075568
6.66 -0.083091
6.67 -0.0908407
6.68 -0.0987886
6.69 -0.106889
6.7 -0.115055
6.71 -0.123204
6.72 -0.131242
6.73 -0.139068
6.74 -0.146576
6.75 -0.153617
6.76 -0.160081
6.77 -0.165886
6.78 -0.170938
6.79 -0.175153
6.8 -0.17846
6.81 -0.180792
6.82 -0.182004
6.83 -0.182179
6.84 -0.18131
6.85 -0.179406
6.86 -0.17649
6.87 -0.172597
6.88 -0.16772
6.89 -0.161926
6.9 -0.155331
6.91 -0.147998
6.92 -0.139994
6.93 -0.131382
6.94 -0.122221
6.95 -0.112516
6.96 -0.10237
6.97 -0.0918187
6.98 -0.0808886
6.99 -0.0695946
7 -0.0579423
7.01 -0.0459091
7.02 -0.0334742
7.03 -0.0206417
7.04 -0.00738679
7.05 0.00631754
7.06 0.0204987
7.07 0.0351821
7.08 0.0504444
7.09 0.0662534
7.1 0.0826052
7.11 0.0994923
7.12 0.116895
7.13 0.134779
7.14 0.153113
7.15 0.171838
7.16 0.190841
7.17 0.210029
7.18 0.229296
7.19 0.248527
7.2 0.267596
7.21 0.286333
7.22 0.304604
7.23 0.322279
7.24 0.339222
7.25 0.355302
7.26 0.370394
7.27 0.384347
7.28 0.39697
7.29 0.408276
7.3 0.418193
7.31 0.426662
7.32 0.433645
7.33 0.439118
7.34 0.442949
7.35 0.445221
7.36 0.446014
7.37 0.445367
7.38 0.44333
7.39 0.439961
7.4 0.435307
7.41 0.429344
7.42 0.422271
7.43 0.414159
7.44 0.405074
7.45 0.395081
7.46 0.384237
7.47 0.37254
7.48 0.360055
7.49 0.346853
7.5 0.332958
7.51 0.318389
7.52 0.303157
7.53 0.287268
7.54 0.270657
7.55 0.253403
7.56 0.235513
7.57 0.216997
7.58 0.197874
7.59 0.178171
7.6 0.157896
7.61 0.13711
7.62 0.115911
7.63 0.0943823
7.64 0.0726198
7.65 0.050735
7.66 0.0288529
7.67 0.00714269
7.68 -0.014247
7.69 -0.0351601
7.7 -0.0554357
7.71 -0.0749122
7.72 -0.0934304
7.73 -0.110777
7.74 -0.126764
7.75 -0.141343
7.76 -0.154409
7.77 -0.165874
7.78 -0.175675
7.79 -0.183774
7.8 -0.189987
7.81 -0.194482
7.82 -0.197335
7.83 -0.198621
7.84 -0.198439
7.85 -0.196909
7.86 -0.194132
7.87 -0.19024
7.88 -0.185496
7.89 -0.180073
7.9 -0.174145
7.91 -0.167884
7.92 -0.161454
7.93 -0.155019
7.94 -0.14873
7.95 -0.142702
7.96 -0.137026
7.97 -0.131772
7.98 -0.126986
7.99 -0.122701
8 -0.118947
8.01 -0.115648
8.02 -0.112758
8.03 -0.110214
8.04 -0.10794
8.05 -0.105852
8.06 -0.103862
8.07 -0.101865
8.08 -0.0997735
8.09 -0.0975125
8.1 -0.0950176
8.11 -0.0922389
8.12 -0.0891387
8.13 -0.0856732
8.14 -0.0818849
8.15 -0.0778018
8.16 -0.0734698
8.17 -0.0689506
8.18 -0.0643198
8.19 -0.0596684
8.2 -0.0551048
8.21 -0.0507267
8.22 -0.0466297
8.23 -0.0429036
8.24 -0.0396288
8.25 -0.0368749
8.26 -0.0347601
8.27 -0.0332513
8.28 -0.0323548
8.29 -0.0320555
8.3 -0.0323163
8.31 -0.0330789
8.32 -0.0342839
8.33 -0.0358205
8.34 -0.037551
8.35 -0.0393531
8.36 -0.0410988
8.37 -0.0426593
8.38 -0.0439085
8.39 -0.0446698
8.4 -0.0448731
8.41 -0.0444367
8.42 -0.0432955
8.43 -0.0414073
8.44 -0.038754
8.45 -0.0353103
8.46 -0.0310986
8.47 -0.0262374
8.48 -0.0208133
8.49 -0.0149328
8.5 -0.00871898
8.51 -0.00230748
8.52 0.00414815
8.53 0.0104793
8.54 0.0165398
8.55 0.0221909
8.56 0.0273054
8.57 0.0317712
8.58 0.0354666
8.59 0.0382733
8.6 0.0402118
8.61 0.0412648
8.62 0.0414395
8.63 0.0407667
8.64 0.0392997
8.65 0.0370565
8.66 0.0341819
8.67 0.0308026
8.68 0.0270324
8.69 0.0229883
8.7 0.0187868
8.71 0.0145409
8.72 0.0103689
8.73 0.00635936
8.74 0.00258177
8.75 -0.000912663
8.76 -0.00409269
8.77 -0.0069476
8.78 -0.00946548
8.79 -0.0116939
8.8 -0.0136975
8.81 -0.0155428
8.82 -0.0173081
8.83 -0.0190799
8.84 -0.020952
8.85 -0.0230452
8.86 -0.0254347
8.87 -0.0282006
8.88 -0.0314115
8.89 -0.0351228
8.9 -0.0393738
8.91 -0.0442231
8.92 -0.0496646
8.93 -0.055649
8.94 -0.0621387
8.95 -0.0690801
8.96 -0.0764055
8.97 -0.0840356
8.98 -0.0918963
8.99 -0.0998601
9 -0.107832
9.01 -0.115719
9.02 -0.123434
9.03 -0.130899
9.04 -0.138026
9.05 -0.144752
9.06 -0.151063
9.07 -0.156939
9.08 -0.162379
9.09 -0.167392
9.1 -0.172007
9.11 -0.176227
9.12 -0.180142
9.13 -0.183813
9.14 -0.187301
9.15 -0.190667
9.16 -0.193971
9.17 -0.197266
9.18 -0.200606
9.19 -0.204022
9.2 -0.207535
9.21 -0.211149
9.22 -0.214857
9.23 -0.218638
9.24 -0.222453
9.25 -0.226247
9.26 -0.229957
9.27 -0.233516
9.28 -0.236853
9.29 -0.239892
9.3 -0.242547
9.31 -0.244715
9.32 -0.246369
9.33 -0.24746
9.34 -0.247947
9.35 -0.247805
9.36 -0.247023
9.37 -0.245552
9.38 -0.243447
9.39 -0.240764
9.4 -0.237549
9.41 -0.233859
9.42 -0.229756
9.43 -0.225303
9.44 -0.220557
9.45 -0.215619
9.46 -0.21055
9.47 -0.205405
9.48 -0.200228
9.49 -0.195052
9.5 -0.189895
9.51 -0.184758
9.52 -0.179625
9.53 -0.174466
9.54 -0.169234
9.55 -0.163875
9.56 -0.158317
9.57 -0.152452
9.58 -0.146219
9.59 -0.13954
9.6 -0.132334
9.61 -0.124529
9.62 -0.11606
9.63 -0.106824
9.64 -0.0967841
9.65 -0.0859584
9.66 -0.0743433
9.67 -0.0619522
9.68 -0.0488159
9.69 -0.0349822
9.7 -0.0204498
9.71 -0.00537768
9.72 0.0101419
9.73 0.0260096
9.74 0.0421205
9.75 0.0583677
9.76 0.0746408
9.77 0.0908218
9.78 0.106816
9.79 0.12254
9.8 0.13792
9.81 0.152897
9.82 0.167425
9.83 0.181421
9.84 0.194912
9.85 0.207903
9.86 0.220406
9.87 0.232441
9.88 0.244035
9.89 0.255209
9.9 0.265991
9.91 0.276447
9.92 0.286611
9.93 0.29651
9.94 0.306166
9.95 0.31559
9.96 0.324761
9.97 0.333684
9.98 0.34234
9.99 0.350696
10 0.358709
10.01 0.366328
10.02 0.373478
10.03 0.38006
10.04 0.38605
10.05 0.391384
10.06 0.396005
10.07 0.39986
10.08 0.402905
10.09 0.405037
10.1 0.406274
10.11 0.406643
10.12 0.406156
10.13 0.404842
10.14 0.40274
10.15 0.399897
10.16 0.396336
10.17 0.392212
10.18 0.387616
10.19 0.382643
10.2 0.377394
10.21 0.37197
10.22 0.366472
10.23 0.361007
10.24 0.355665
10.25 0.350521
10.26 0.345639
10.27 0.341069
10.28 0.336852
10.29 0.333051
10.3 0.329631
10.31 0.326582
10.32 0.323882
10.33 0.321496
10.34 0.319379
10.35 0.317487
10.36 0.315747
10.37 0.314079
10.38 0.312415
10.39 0.310683
10.4 0.308814
10.41 0.306741
10.42 0.304364
10.43 0.30165
10.44 0.29855
10.45 0.295019
10.46 0.291021
10.47 0.286527
10.48 0.281486
10.49 0.275869
10.5 0.269703
10.51 0.262982
10.52 0.255704
10.53 0.247873
10.54 0.239493
10.55 0.230518
10.56 0.221003
10.57 0.210967
10.58 0.200422
10.59 0.189379
10.6 0.177852
10.61 0.165839
10.62 0.153338
10.63 0.140405
10.64 0.127062
10.65 0.113331
10.66 0.0992398
10.67 0.0848187
10.68 0.0700778
10.69 0.0550789
10.7 0.0398714
10.71 0.0245003
10.72 0.00901283
10.73 -0.00654157
10.74 -0.0221115
10.75 -0.0376374
10.76 -0.0530693
10.77 -0.0683598
10.78 -0.0834651
10.79 -0.098345
10.8 -0.112965
10.81 -0.127271
10.82 -0.141252
10.83 -0.154905
10.84 -0.168224
10.85 -0.18121
10.86 -0.193871
10.87 -0.206217
10.88 -0.218246
10.89 -0.230015
10.9 -0.241551
10.91 -0.252887
10.92 -0.264053
10.93 -0.275079
10.94 -0.285987
10.95 -0.296807
10.96 -0.307561
10.97 -0.318263
10.98 -0.328916
10.99 -0.33952
11 -0.350062
11.01 -0.360515
11.02 -0.370857
11.03 -0.381054
11.04 -0.391063
11.05 -0.400839
11.06 -0.410329
11.07 -0.419455
11.08 -0.428152
11.09 -0.436381
11.1 -0.444086
11.11 -0.451212
11.12 -0.457708
11.13 -0.463525
11.14 -0.468537
11.15 -0.472781
11.16 -0.476233
11.17 -0.478869
11.18 -0.480676
11.19 -0.481643
11.2 -0.48173
11.21 -0.480921
11.22 -0.479283
11.23 -0.476833
11.24 -0.473587
11.25 -0.469567
11.26 -0.464797
11.27 -0.45923
11.28 -0.452956
11.29 -0.446015
11.3 -0.438432
11.31 -0.430234
11.32 -0.421447
11.33 -0.412076
11.34 -0.402123
11.35 -0.391659
11.36 -0.380705
11.37 -0.369285
11.38 -0.357419
11.39 -0.345131
11.4 -0.332411
11.41 -0.319306
11.42 -0.305853
11.43 -0.292075
11.44 -0.277997
11.45 -0.263645
11.46 -0.249037
11.47 -0.23419
11.48 -0.219151
11.49 -0.203947
11.5 -0.188604
11.51 -0.173148
11.52 -0.157603
11.53 -0.141991
11.54 -0.126342
11.55 -0.110682
11.56 -0.095033
11.57 -0.0794176
11.58 -0.0638582
11.59 -0.0483786
11.6 -0.0330138
11.61 -0.0177792
11.62 -0.00269961
11.63 0.0121986
11.64 0.0268876
11.65 0.0413376
11.66 0.0554973
11.67 0.0693323
11.68 0.0828215
11.69 0.0959286
11.7 0.108616
11.71 0.120847
11.72 0.132583
11.73 0.143723
11.74 0.154293
11.75 0.164259
11.76 0.173596
11.77 0.182281
11.78 0.190295
11.79 0.197588
11.8 0.20415
11.81 0.210025
11.82 0.215221
11.83 0.219754
11.84 0.223644
11.85 0.226919
11.86 0.229551
11.87 0.231638
11.88 0.233223
11.89 0.234348
11.9 0.235051
11.91 0.235372
11.92 0.235333
11.93 0.234961
11.94 0.234305
11.95 0.233383
11.96 0.232206
11.97 0.230776
11.98 0.229086
11.99 0.227092
12 0.224786
12.01 0.222139
12.02 0.219109
12.03 0.215647
12.04 0.2117
12.05 0.207191
12.06 0.202021
12.07 0.196176
12.08 0.1896
12.09 0.182239
12.1 0.174044
12.11 0.164974
12.12 0.154917
12.13 0.1439
12.14 0.131943
