# xPDFsuite Configuration #
[PDF]
wavelength = 0.1
dataformat = QA
inputfile = BiMsol6_insitu_700 C-00609.xy
backgroundfile = Quartz2mm-dist500-00000.xy
mode = xray
bgscale = 0.0042
composition = Bi2Fe4O9
outputtype = gr
qmaxinst = 24.998449118
qmin = 0.1
qmax = 21.4986662415
rmax = 80.0
rmin = 0.0
rstep = 0.01
rpoly = 0.9

[Misc]
inputdir = C:/Data/Seafile/CPH/Beamtime/Desy Oct 20/In situ data/Processed/BiMsol6/PDF
savedir = C:/Data/Seafile/CPH/Beamtime/Desy Oct 20/In situ data/PDF/BiMsol6
backgroundfilefull = C:/Data/Seafile/CPH/Beamtime/Desy Oct 20/In situ data/Processed/Standard_Empty_Cap/Quartz2mm-dist500-00000.xy

#### start data
#S 1
#L r($\AA$)  G($\AA^{-2}$)
0 0
0.01 0.00655353
0.02 0.0127375
0.03 0.0182358
0.04 0.0227643
0.05 0.0260849
0.06 0.0280156
0.07 0.0283573
0.08 0.0270516
0.09 0.0242442
0.1 0.0200548
0.11 0.0146692
0.12 0.00833141
0.13 0.00133288
0.14 -0.00599948
0.15 -0.0132523
0.16 -0.020077
0.17 -0.0261465
0.18 -0.0311672
0.19 -0.0348934
0.2 -0.0370729
0.21 -0.0375321
0.22 -0.0363693
0.23 -0.0336499
0.24 -0.0295192
0.25 -0.0241971
0.26 -0.0179698
0.27 -0.0111619
0.28 -0.00424492
0.29 0.00236214
0.3 0.00825236
0.31 0.0130387
0.32 0.0163729
0.33 0.0179024
0.34 0.0172823
0.35 0.0145622
0.36 0.00973693
0.37 0.00290667
0.38 -0.00572191
0.39 -0.0158385
0.4 -0.0270846
0.41 -0.0388387
0.42 -0.0504906
0.43 -0.0614212
0.44 -0.0709899
0.45 -0.0785591
0.46 -0.0834554
0.47 -0.0848142
0.48 -0.0824463
0.49 -0.0760031
0.5 -0.0652591
0.51 -0.0501261
0.52 -0.0306632
0.53 -0.00680974
0.54 0.0208782
0.55 0.0516712
0.56 0.0848909
0.57 0.119746
0.58 0.155353
0.59 0.190752
0.6 0.224719
0.61 0.256304
0.62 0.284553
0.63 0.308574
0.64 0.327568
0.65 0.340855
0.66 0.34749
0.67 0.347105
0.68 0.339902
0.69 0.325914
0.7 0.305357
0.71 0.278629
0.72 0.246292
0.73 0.208599
0.74 0.167042
0.75 0.122605
0.76 0.0763235
0.77 0.0292663
0.78 -0.017495
0.79 -0.0628001
0.8 -0.105498
0.81 -0.144832
0.82 -0.180065
0.83 -0.210604
0.84 -0.236013
0.85 -0.256022
0.86 -0.269969
0.87 -0.278457
0.88 -0.281833
0.89 -0.280516
0.9 -0.275047
0.91 -0.266072
0.92 -0.254239
0.93 -0.240361
0.94 -0.225445
0.95 -0.210277
0.96 -0.195606
0.97 -0.182114
0.98 -0.170403
0.99 -0.161216
1 -0.154805
1.01 -0.151334
1.02 -0.150898
1.03 -0.153467
1.04 -0.158893
1.05 -0.166983
1.06 -0.177465
1.07 -0.189674
1.08 -0.203118
1.09 -0.217282
1.1 -0.231642
1.11 -0.24569
1.12 -0.258855
1.13 -0.27071
1.14 -0.280954
1.15 -0.289337
1.16 -0.2957
1.17 -0.299973
1.18 -0.302145
1.19 -0.302184
1.2 -0.300503
1.21 -0.29737
1.22 -0.293101
1.23 -0.288047
1.24 -0.282574
1.25 -0.277068
1.26 -0.271925
1.27 -0.267447
1.28 -0.263888
1.29 -0.261441
1.3 -0.260233
1.31 -0.260326
1.32 -0.261823
1.33 -0.264473
1.34 -0.268104
1.35 -0.272491
1.36 -0.277367
1.37 -0.282434
1.38 -0.287352
1.39 -0.291762
1.4 -0.295381
1.41 -0.297952
1.42 -0.29926
1.43 -0.299147
1.44 -0.297517
1.45 -0.294176
1.46 -0.289349
1.47 -0.283176
1.48 -0.27585
1.49 -0.267623
1.5 -0.258788
1.51 -0.24968
1.52 -0.2407
1.53 -0.232214
1.54 -0.224559
1.55 -0.21804
1.56 -0.212921
1.57 -0.20941
1.58 -0.207834
1.59 -0.208111
1.6 -0.210184
1.61 -0.213952
1.62 -0.219237
1.63 -0.225791
1.64 -0.233332
1.65 -0.241472
1.66 -0.249742
1.67 -0.257726
1.68 -0.265007
1.69 -0.271183
1.7 -0.275883
1.71 -0.278591
1.72 -0.279128
1.73 -0.277363
1.74 -0.273189
1.75 -0.266582
1.76 -0.257599
1.77 -0.246327
1.78 -0.232884
1.79 -0.217769
1.8 -0.201332
1.81 -0.183966
1.82 -0.166086
1.83 -0.148118
1.84 -0.130545
1.85 -0.1138
1.86 -0.0982217
1.87 -0.0841112
1.88 -0.0717079
1.89 -0.0611818
1.9 -0.0526576
1.91 -0.0463213
1.92 -0.0418925
1.93 -0.0392242
1.94 -0.0381078
1.95 -0.0382826
1.96 -0.0394479
1.97 -0.0412972
1.98 -0.0434297
1.99 -0.0454824
2 -0.0471449
2.01 -0.048142
2.02 -0.0482457
2.03 -0.0472814
2.04 -0.0450111
2.05 -0.0415443
2.06 -0.0369389
2.07 -0.0313235
2.08 -0.024893
2.09 -0.0179017
2.1 -0.0106594
2.11 -0.00356594
2.12 0.00299506
2.13 0.00864656
2.14 0.0130202
2.15 0.0157709
2.16 0.0165903
2.17 0.0149577
2.18 0.0108916
2.19 0.00429952
2.2 -0.00485189
2.21 -0.0165177
2.22 -0.0305751
2.23 -0.0469138
2.24 -0.0652698
2.25 -0.0851478
2.26 -0.106161
2.27 -0.127891
2.28 -0.149898
2.29 -0.171739
2.3 -0.19288
2.31 -0.212921
2.32 -0.231514
2.33 -0.248352
2.34 -0.263188
2.35 -0.275844
2.36 -0.286134
2.37 -0.293922
2.38 -0.299458
2.39 -0.302874
2.4 -0.30436
2.41 -0.304162
2.42 -0.302568
2.43 -0.299836
2.44 -0.296409
2.45 -0.292664
2.46 -0.288935
2.47 -0.285536
2.48 -0.282749
2.49 -0.280837
2.5 -0.280084
2.51 -0.280527
2.52 -0.282232
2.53 -0.285205
2.54 -0.289397
2.55 -0.294708
2.56 -0.301052
2.57 -0.30818
2.58 -0.315833
2.59 -0.323773
2.6 -0.331758
2.61 -0.339545
2.62 -0.346898
2.63 -0.353528
2.64 -0.359313
2.65 -0.36412
2.66 -0.367855
2.67 -0.370466
2.68 -0.371945
2.69 -0.372257
2.7 -0.371506
2.71 -0.369861
2.72 -0.367463
2.73 -0.364471
2.74 -0.361059
2.75 -0.357402
2.76 -0.353684
2.77 -0.350088
2.78 -0.346753
2.79 -0.343795
2.8 -0.341299
2.81 -0.339322
2.82 -0.337916
2.83 -0.337069
2.84 -0.336701
2.85 -0.336734
2.86 -0.337072
2.87 -0.337598
2.88 -0.338184
2.89 -0.338674
2.9 -0.338928
2.91 -0.33882
2.92 -0.338236
2.93 -0.337079
2.94 -0.335273
2.95 -0.332732
2.96 -0.3294
2.97 -0.32533
2.98 -0.320541
2.99 -0.315073
3 -0.30898
3.01 -0.302327
3.02 -0.295142
3.03 -0.287539
3.04 -0.279592
3.05 -0.271349
3.06 -0.262845
3.07 -0.254092
3.08 -0.245069
3.09 -0.235719
3.1 -0.225994
3.11 -0.215802
3.12 -0.205029
3.13 -0.193542
3.14 -0.181194
3.15 -0.16773
3.16 -0.153026
3.17 -0.136967
3.18 -0.119417
3.19 -0.100259
3.2 -0.0794066
3.21 -0.0567656
3.22 -0.0321883
3.23 -0.00587944
3.24 0.0220809
3.25 0.0515675
3.26 0.0824106
3.27 0.114398
3.28 0.147323
3.29 0.180829
3.3 0.214559
3.31 0.248175
3.32 0.281326
3.33 0.313662
3.34 0.344818
3.35 0.374277
3.36 0.401865
3.37 0.427307
3.38 0.450363
3.39 0.470834
3.4 0.488566
3.41 0.503268
3.42 0.514903
3.43 0.523624
3.44 0.529478
3.45 0.532548
3.46 0.532958
3.47 0.530862
3.48 0.526195
3.49 0.519447
3.5 0.510839
3.51 0.500596
3.52 0.488942
3.53 0.476097
3.54 0.462231
3.55 0.447558
3.56 0.432314
3.57 0.416657
3.58 0.400721
3.59 0.384624
3.6 0.368464
3.61 0.352328
3.62 0.336286
3.63 0.320385
3.64 0.304668
3.65 0.289171
3.66 0.273928
3.67 0.258987
3.68 0.244404
3.69 0.230204
3.7 0.216439
3.71 0.203174
3.72 0.19048
3.73 0.178437
3.74 0.167213
3.75 0.156864
3.76 0.147472
3.77 0.13914
3.78 0.13197
3.79 0.126058
3.8 0.12154
3.81 0.11859
3.82 0.117157
3.83 0.117293
3.84 0.119038
3.85 0.122412
3.86 0.12742
3.87 0.134176
3.88 0.142565
3.89 0.152479
3.9 0.163847
3.91 0.176586
3.92 0.190602
3.93 0.205805
3.94 0.222151
3.95 0.239401
3.96 0.257426
3.97 0.276095
3.98 0.295274
3.99 0.314828
4 0.334633
4.01 0.354531
4.02 0.374383
4.03 0.394063
4.04 0.413446
4.05 0.432411
4.06 0.450836
4.07 0.468524
4.08 0.485426
4.09 0.501432
4.1 0.516439
4.11 0.530346
4.12 0.543057
4.13 0.554399
4.14 0.56428
4.15 0.572701
4.16 0.579594
4.17 0.584907
4.18 0.588592
4.19 0.590619
4.2 0.590777
4.21 0.589243
4.22 0.586036
4.23 0.58118
4.24 0.57471
4.25 0.566676
4.26 0.557066
4.27 0.545935
4.28 0.533463
4.29 0.519734
4.3 0.504834
4.31 0.48885
4.32 0.47187
4.33 0.453891
4.34 0.435079
4.35 0.415516
4.36 0.395264
4.37 0.374376
4.38 0.352896
4.39 0.330839
4.4 0.308215
4.41 0.285085
4.42 0.261466
4.43 0.237368
4.44 0.212805
4.45 0.187789
4.46 0.162302
4.47 0.136401
4.48 0.110134
4.49 0.0835488
4.5 0.0567047
4.51 0.029675
4.52 0.00254663
4.53 -0.0245655
4.54 -0.0515384
4.55 -0.0782464
4.56 -0.104555
4.57 -0.130326
4.58 -0.155417
4.59 -0.179609
4.6 -0.202784
4.61 -0.224849
4.62 -0.245689
4.63 -0.265207
4.64 -0.283324
4.65 -0.299958
4.66 -0.314945
4.67 -0.328428
4.68 -0.340428
4.69 -0.350987
4.7 -0.360171
4.71 -0.368068
4.72 -0.374708
4.73 -0.380257
4.74 -0.384904
4.75 -0.38879
4.76 -0.392058
4.77 -0.39485
4.78 -0.397301
4.79 -0.39953
4.8 -0.401681
4.81 -0.403851
4.82 -0.406116
4.83 -0.408533
4.84 -0.411139
4.85 -0.413966
4.86 -0.417006
4.87 -0.420225
4.88 -0.423582
4.89 -0.427023
4.9 -0.430487
4.91 -0.433903
4.92 -0.437176
4.93 -0.440236
4.94 -0.443012
4.95 -0.44544
4.96 -0.447459
4.97 -0.449023
4.98 -0.450066
4.99 -0.450549
5 -0.450493
5.01 -0.449897
5.02 -0.448769
5.03 -0.447123
5.04 -0.444984
5.05 -0.442335
5.06 -0.439246
5.07 -0.435755
5.08 -0.43189
5.09 -0.427674
5.1 -0.423126
5.11 -0.418246
5.12 -0.413024
5.13 -0.407484
5.14 -0.401615
5.15 -0.395404
5.16 -0.388832
5.17 -0.381878
5.18 -0.374485
5.19 -0.366657
5.2 -0.358393
5.21 -0.349689
5.22 -0.34055
5.23 -0.330989
5.24 -0.321025
5.25 -0.310682
5.26 -0.300052
5.27 -0.289205
5.28 -0.278221
5.29 -0.267192
5.3 -0.256218
5.31 -0.245424
5.32 -0.234928
5.33 -0.22483
5.34 -0.215232
5.35 -0.206231
5.36 -0.197912
5.37 -0.190358
5.38 -0.183704
5.39 -0.177906
5.4 -0.172978
5.41 -0.168918
5.42 -0.165702
5.43 -0.16329
5.44 -0.161669
5.45 -0.16074
5.46 -0.160379
5.47 -0.160488
5.48 -0.160965
5.49 -0.161707
5.5 -0.162608
5.51 -0.163568
5.52 -0.164481
5.53 -0.165268
5.54 -0.165864
5.55 -0.166216
5.56 -0.166285
5.57 -0.166032
5.58 -0.165445
5.59 -0.164548
5.6 -0.16336
5.61 -0.161902
5.62 -0.160206
5.63 -0.158304
5.64 -0.156209
5.65 -0.153971
5.66 -0.151608
5.67 -0.149132
5.68 -0.146541
5.69 -0.143821
5.7 -0.140938
5.71 -0.137839
5.72 -0.13448
5.73 -0.130796
5.74 -0.126713
5.75 -0.122152
5.76 -0.117032
5.77 -0.111202
5.78 -0.104626
5.79 -0.0972538
5.8 -0.0890312
5.81 -0.079921
5.82 -0.0699039
5.83 -0.0589515
5.84 -0.0470476
5.85 -0.0343188
5.86 -0.0208379
5.87 -0.00669834
5.88 0.00798793
5.89 0.0230927
5.9 0.0384857
5.91 0.0539818
5.92 0.0694179
5.93 0.0846398
5.94 0.0994988
5.95 0.113856
5.96 0.12757
5.97 0.140467
5.98 0.15253
5.99 0.163698
6 0.173941
6.01 0.183248
6.02 0.191635
6.03 0.199081
6.04 0.205685
6.05 0.211565
6.06 0.216816
6.07 0.221543
6.08 0.225852
6.09 0.22985
6.1 0.233632
6.11 0.237319
6.12 0.240986
6.13 0.244691
6.14 0.248472
6.15 0.252345
6.16 0.256304
6.17 0.26031
6.18 0.264297
6.19 0.268186
6.2 0.271879
6.21 0.275263
6.22 0.278217
6.23 0.28053
6.24 0.282128
6.25 0.282884
6.26 0.282685
6.27 0.281426
6.28 0.279025
6.29 0.275349
6.3 0.270339
6.31 0.264065
6.32 0.256541
6.33 0.247807
6.34 0.237928
6.35 0.226991
6.36 0.215013
6.37 0.202222
6.38 0.188765
6.39 0.174787
6.4 0.160435
6.41 0.145852
6.42 0.13118
6.43 0.116564
6.44 0.102121
6.45 0.0879431
6.46 0.0741055
6.47 0.060661
6.48 0.0476421
6.49 0.0351002
6.5 0.0229904
6.51 0.0112709
6.52 -0.000105803
6.53 -0.0111993
6.54 -0.0220785
6.55 -0.0328158
6.56 -0.043494
6.57 -0.054197
6.58 -0.0649916
6.59 -0.0759347
6.6 -0.0870712
6.61 -0.0984318
6.62 -0.110051
6.63 -0.121909
6.64 -0.133975
6.65 -0.146207
6.66 -0.158546
6.67 -0.170919
6.68 -0.183241
6.69 -0.19539
6.7 -0.20727
6.71 -0.218772
6.72 -0.22979
6.73 -0.240215
6.74 -0.249947
6.75 -0.258825
6.76 -0.266775
6.77 -0.27376
6.78 -0.279719
6.79 -0.284603
6.8 -0.288376
6.81 -0.291003
6.82 -0.292358
6.83 -0.292563
6.84 -0.291627
6.85 -0.289567
6.86 -0.286404
6.87 -0.282161
6.88 -0.276802
6.89 -0.270363
6.9 -0.262928
6.91 -0.254518
6.92 -0.245152
6.93 -0.234845
6.94 -0.223609
6.95 -0.211345
6.96 -0.198159
6.97 -0.184056
6.98 -0.169035
6.99 -0.153096
7 -0.136239
7.01 -0.118423
7.02 -0.099641
7.03 -0.0799691
7.04 -0.0594279
7.05 -0.0380456
7.06 -0.0158587
7.07 0.00708783
7.08 0.0308064
7.09 0.0551628
7.1 0.0800742
7.11 0.105459
7.12 0.13123
7.13 0.157293
7.14 0.183552
7.15 0.209892
7.16 0.236194
7.17 0.26235
7.18 0.288254
7.19 0.313798
7.2 0.338878
7.21 0.36333
7.22 0.387082
7.23 0.410055
7.24 0.432158
7.25 0.453305
7.26 0.473414
7.27 0.492374
7.28 0.510031
7.29 0.526416
7.3 0.541465
7.31 0.555117
7.32 0.567316
7.33 0.57801
7.34 0.587019
7.35 0.594365
7.36 0.600064
7.37 0.604082
7.38 0.606392
7.39 0.606971
7.4 0.605773
7.41 0.602644
7.42 0.597759
7.43 0.591129
7.44 0.58277
7.45 0.572711
7.46 0.560987
7.47 0.547533
7.48 0.532452
7.49 0.515886
7.5 0.497908
7.51 0.478603
7.52 0.45806
7.53 0.436372
7.54 0.413547
7.55 0.389821
7.56 0.365308
7.57 0.340129
7.58 0.314406
7.59 0.288262
7.6 0.261816
7.61 0.235214
7.62 0.208598
7.63 0.182094
7.64 0.155828
7.65 0.129921
7.66 0.104493
7.67 0.0797407
7.68 0.0557235
7.69 0.0325447
7.7 0.0103056
7.71 -0.0108989
7.72 -0.0309812
7.73 -0.0498005
7.74 -0.0672501
7.75 -0.0833561
7.76 -0.0980718
7.77 -0.111362
7.78 -0.123205
7.79 -0.133591
7.8 -0.142379
7.81 -0.149715
7.82 -0.155658
7.83 -0.160256
7.84 -0.163571
7.85 -0.165675
7.86 -0.166615
7.87 -0.166451
7.88 -0.165373
7.89 -0.163488
7.9 -0.160903
7.91 -0.157726
7.92 -0.154064
7.93 -0.149992
7.94 -0.145639
7.95 -0.1411
7.96 -0.136448
7.97 -0.131744
7.98 -0.127035
7.99 -0.12236
8 -0.117744
8.01 -0.113188
8.02 -0.108688
8.03 -0.104225
8.04 -0.0997752
8.05 -0.0953071
8.06 -0.0907781
8.07 -0.0861487
8.08 -0.0813866
8.09 -0.0764614
8.1 -0.0713498
8.11 -0.0660373
8.12 -0.0605173
8.13 -0.0547831
8.14 -0.0488807
8.15 -0.0428479
8.16 -0.036735
8.17 -0.0306044
8.18 -0.0245284
8.19 -0.0186024
8.2 -0.0129232
8.21 -0.00757242
8.22 -0.00263772
8.23 0.00179785
8.24 0.00565896
8.25 0.0088787
8.26 0.0113259
8.27 0.0130448
8.28 0.0140237
8.29 0.0142709
8.3 0.0138148
8.31 0.0127034
8.32 0.0109758
8.33 0.00873017
8.34 0.00610472
8.35 0.00321385
8.36 0.000179521
8.37 -0.00287266
8.38 -0.00581764
8.39 -0.00849795
8.4 -0.0108169
8.41 -0.0126826
8.42 -0.0140192
8.43 -0.0147717
8.44 -0.0149078
8.45 -0.014393
8.46 -0.013236
8.47 -0.0115322
8.48 -0.00935656
8.49 -0.00680591
8.5 -0.00399652
8.51 -0.00106049
8.52 0.00184141
8.53 0.00454177
8.54 0.00688792
8.55 0.00873046
8.56 0.00992882
8.57 0.0103558
8.58 0.00986821
8.59 0.00832159
8.6 0.00573326
8.61 0.00207279
8.62 -0.00266254
8.63 -0.00844767
8.64 -0.0152306
8.65 -0.0230052
8.66 -0.0316027
8.67 -0.0408718
8.68 -0.0506741
8.69 -0.0608617
8.7 -0.0712815
8.71 -0.0817782
8.72 -0.09218
8.73 -0.102346
8.74 -0.112155
8.75 -0.121504
8.76 -0.130309
8.77 -0.13851
8.78 -0.146021
8.79 -0.152853
8.8 -0.159051
8.81 -0.164651
8.82 -0.169711
8.83 -0.174302
8.84 -0.178506
8.85 -0.182399
8.86 -0.186116
8.87 -0.189753
8.88 -0.193398
8.89 -0.19713
8.9 -0.201018
8.91 -0.205127
8.92 -0.209492
8.93 -0.214111
8.94 -0.218975
8.95 -0.224056
8.96 -0.229307
8.97 -0.234669
8.98 -0.24006
8.99 -0.245383
9 -0.250547
9.01 -0.255458
9.02 -0.260025
9.03 -0.264163
9.04 -0.267764
9.05 -0.270752
9.06 -0.273114
9.07 -0.274822
9.08 -0.275868
9.09 -0.276258
9.1 -0.276022
9.11 -0.275144
9.12 -0.273751
9.13 -0.271921
9.14 -0.269738
9.15 -0.267291
9.16 -0.264671
9.17 -0.261968
9.18 -0.259279
9.19 -0.256683
9.2 -0.254243
9.21 -0.252008
9.22 -0.25001
9.23 -0.248268
9.24 -0.246804
9.25 -0.245578
9.26 -0.244549
9.27 -0.24367
9.28 -0.24288
9.29 -0.242113
9.3 -0.241293
9.31 -0.240331
9.32 -0.23916
9.33 -0.237717
9.34 -0.235946
9.35 -0.233802
9.36 -0.231256
9.37 -0.228256
9.38 -0.224826
9.39 -0.221
9.4 -0.216813
9.41 -0.212314
9.42 -0.207563
9.43 -0.202628
9.44 -0.197588
9.45 -0.192537
9.46 -0.187554
9.47 -0.182712
9.48 -0.178075
9.49 -0.173698
9.5 -0.169643
9.51 -0.165926
9.52 -0.162533
9.53 -0.159446
9.54 -0.156629
9.55 -0.154026
9.56 -0.151563
9.57 -0.149147
9.58 -0.14666
9.59 -0.143989
9.6 -0.141019
9.61 -0.137629
9.62 -0.133703
9.63 -0.129083
9.64 -0.123659
9.65 -0.117382
9.66 -0.110183
9.67 -0.102011
9.68 -0.0928356
9.69 -0.0826456
9.7 -0.0713385
9.71 -0.0590654
9.72 -0.0458818
9.73 -0.0318584
9.74 -0.0170799
9.75 -0.00164258
9.76 0.0143712
9.77 0.0308408
9.78 0.0476192
9.79 0.0645965
9.8 0.0816681
9.81 0.0987369
9.82 0.115715
9.83 0.132504
9.84 0.149049
9.85 0.165308
9.86 0.181246
9.87 0.196842
9.88 0.212087
9.89 0.226966
9.9 0.241475
9.91 0.255656
9.92 0.269525
9.93 0.283098
9.94 0.296389
9.95 0.309408
9.96 0.322132
9.97 0.334573
9.98 0.346724
9.99 0.358558
10 0.370042
10.01 0.381132
10.02 0.391762
10.03 0.401838
10.04 0.411336
10.05 0.420192
10.06 0.428342
10.07 0.435724
10.08 0.442282
10.09 0.447894
10.1 0.45256
10.11 0.456287
10.12 0.459065
10.13 0.460901
10.14 0.461814
10.15 0.461824
10.16 0.460922
10.17 0.459261
10.18 0.456922
10.19 0.453991
10.2 0.450567
10.21 0.44675
10.22 0.442631
10.23 0.438338
10.24 0.433982
10.25 0.429658
10.26 0.425452
10.27 0.421439
10.28 0.417685
10.29 0.414278
10.3 0.411218
10.31 0.408524
10.32 0.406197
10.33 0.404226
10.34 0.402585
10.35 0.40125
10.36 0.400161
10.37 0.399241
10.38 0.398421
10.39 0.397628
10.4 0.396783
10.41 0.395808
10.42 0.39459
10.43 0.393067
10.44 0.391165
10.45 0.388816
10.46 0.385955
10.47 0.382524
10.48 0.378437
10.49 0.373631
10.5 0.368114
10.51 0.361855
10.52 0.354832
10.53 0.347029
10.54 0.338437
10.55 0.32897
10.56 0.318702
10.57 0.307653
10.58 0.295838
10.59 0.283276
10.6 0.269993
10.61 0.255995
10.62 0.241294
10.63 0.225989
10.64 0.210125
10.65 0.193756
10.66 0.176938
10.67 0.159734
10.68 0.142187
10.69 0.124396
10.7 0.106443
10.71 0.0884033
10.72 0.070352
10.73 0.0523646
10.74 0.0345202
10.75 0.0169109
10.76 -0.000412513
10.77 -0.0173924
10.78 -0.0339784
10.79 -0.0501292
10.8 -0.0658131
10.81 -0.0809691
10.82 -0.0956085
10.83 -0.109754
10.84 -0.123421
10.85 -0.136635
10.86 -0.149433
10.87 -0.161853
10.88 -0.173927
10.89 -0.18575
10.9 -0.197383
10.91 -0.208889
10.92 -0.220329
10.93 -0.23176
10.94 -0.243242
10.95 -0.254823
10.96 -0.266535
10.97 -0.278398
10.98 -0.290425
10.99 -0.30261
11 -0.31494
11.01 -0.327392
11.02 -0.339905
11.03 -0.352421
11.04 -0.364875
11.05 -0.377189
11.06 -0.38928
11.07 -0.401038
11.08 -0.412356
11.09 -0.423163
11.1 -0.433371
11.11 -0.442896
11.12 -0.451662
11.13 -0.459598
11.14 -0.466542
11.15 -0.472536
11.16 -0.477551
11.17 -0.481567
11.18 -0.484574
11.19 -0.486573
11.2 -0.487534
11.21 -0.48746
11.22 -0.486454
11.23 -0.484557
11.24 -0.481814
11.25 -0.478273
11.26 -0.473984
11.27 -0.468932
11.28 -0.463227
11.29 -0.456925
11.3 -0.450065
11.31 -0.442682
11.32 -0.434804
11.33 -0.426437
11.34 -0.417579
11.35 -0.408277
11.36 -0.398535
11.37 -0.388354
11.38 -0.377731
11.39 -0.366662
11.4 -0.355103
11.41 -0.343075
11.42 -0.330589
11.43 -0.31765
11.44 -0.304261
11.45 -0.290437
11.46 -0.276186
11.47 -0.26151
11.48 -0.24648
11.49 -0.231137
11.5 -0.215528
11.51 -0.199705
11.52 -0.183727
11.53 -0.167654
11.54 -0.151565
11.55 -0.135532
11.56 -0.119624
11.57 -0.10391
11.58 -0.0884575
11.59 -0.0733352
11.6 -0.0586462
11.61 -0.0444093
11.62 -0.030673
11.63 -0.017479
11.64 -0.00486232
11.65 0.00714939
11.66 0.0184935
11.67 0.0291659
11.68 0.0391945
11.69 0.048582
11.7 0.0573376
11.71 0.0654758
11.72 0.0730153
11.73 0.0799188
11.74 0.0862831
11.75 0.0921397
11.76 0.0975219
11.77 0.102464
11.78 0.107002
11.79 0.111152
11.8 0.114951
11.81 0.118454
11.82 0.121691
11.83 0.124691
11.84 0.127478
11.85 0.130074
11.86 0.13248
11.87 0.134726
11.88 0.136823
11.89 0.138773
11.9 0.140576
11.91 0.142225
11.92 0.143701
11.93 0.144979
11.94 0.14605
11.95 0.146886
11.96 0.147456
11.97 0.147725
11.98 0.147654
11.99 0.14716
12 0.146223
12.01 0.144805
12.02 0.14286
12.03 0.140341
12.04 0.137203
12.05 0.13338
12.06 0.128791
12.07 0.123458
12.08 0.117351
12.09 0.110447
12.1 0.102728
12.11 0.0941835
12.12 0.0847417
12.13 0.0744553
12.14 0.0633665
12.15 0.0515004
12.16 0.03889
12.17 0.0255768
