# xPDFsuite Configuration #
[PDF]
wavelength = 0.1
dataformat = QA
inputfile = BiMsol6_insitu_700 C-00738.xy
backgroundfile = Quartz2mm-dist500-00000.xy
mode = xray
bgscale = 0.0042
composition = Bi2Fe4O9
outputtype = gr
qmaxinst = 24.998449118
qmin = 0.1
qmax = 21.4986662415
rmax = 80.0
rmin = 0.0
rstep = 0.01
rpoly = 0.9

[Misc]
inputdir = C:/Data/Seafile/CPH/Beamtime/Desy Oct 20/In situ data/Processed/BiMsol6/PDF
savedir = C:/Data/Seafile/CPH/Beamtime/Desy Oct 20/In situ data/PDF/BiMsol6
backgroundfilefull = C:/Data/Seafile/CPH/Beamtime/Desy Oct 20/In situ data/Processed/Standard_Empty_Cap/Quartz2mm-dist500-00000.xy

#### start data
#S 1
#L r($\AA$)  G($\AA^{-2}$)
0 0
0.01 0.00568716
0.02 0.0110484
0.03 0.015805
0.04 0.0197069
0.05 0.0225445
0.06 0.0241582
0.07 0.0243741
0.08 0.0231427
0.09 0.0205941
0.1 0.0168362
0.11 0.0120353
0.12 0.00640901
0.13 0.000216421
0.14 -0.00625011
0.15 -0.0126263
0.16 -0.0186046
0.17 -0.0238968
0.18 -0.0282455
0.19 -0.0314364
0.2 -0.0332503
0.21 -0.0335398
0.22 -0.0323984
0.23 -0.0298913
0.24 -0.0261545
0.25 -0.0213904
0.26 -0.0158605
0.27 -0.00986447
0.28 -0.00382416
0.29 0.00188452
0.3 0.00689697
0.31 0.0108679
0.32 0.0134883
0.33 0.0144461
0.34 0.0134379
0.35 0.010521
0.36 0.00570159
0.37 -0.000917871
0.38 -0.00913791
0.39 -0.0186647
0.4 -0.0291546
0.41 -0.0400324
0.42 -0.0507341
0.43 -0.0606856
0.44 -0.0692943
0.45 -0.0759707
0.46 -0.0800914
0.47 -0.0808513
0.48 -0.078085
0.49 -0.0714712
0.5 -0.0608026
0.51 -0.0459992
0.52 -0.0271172
0.53 -0.00409758
0.54 0.0225399
0.55 0.0521135
0.56 0.0839899
0.57 0.11743
0.58 0.151607
0.59 0.185622
0.6 0.218327
0.61 0.248822
0.62 0.276204
0.63 0.299623
0.64 0.318316
0.65 0.331624
0.66 0.338634
0.67 0.338971
0.68 0.332798
0.69 0.320116
0.7 0.3011
0.71 0.276092
0.72 0.245595
0.73 0.209787
0.74 0.170081
0.75 0.127385
0.76 0.0826677
0.77 0.0369339
0.78 -0.00880014
0.79 -0.0534373
0.8 -0.0958682
0.81 -0.135326
0.82 -0.171073
0.83 -0.202501
0.84 -0.22914
0.85 -0.250677
0.86 -0.266407
0.87 -0.276835
0.88 -0.282227
0.89 -0.282916
0.9 -0.279359
0.91 -0.272121
0.92 -0.261757
0.93 -0.248991
0.94 -0.234794
0.95 -0.219911
0.96 -0.205065
0.97 -0.190931
0.98 -0.178118
0.99 -0.167362
1 -0.158995
1.01 -0.153256
1.02 -0.150317
1.03 -0.150235
1.04 -0.152957
1.05 -0.158393
1.06 -0.166393
1.07 -0.176381
1.08 -0.187953
1.09 -0.20067
1.1 -0.214071
1.11 -0.227694
1.12 -0.241043
1.13 -0.253671
1.14 -0.265241
1.15 -0.275466
1.16 -0.284131
1.17 -0.291095
1.18 -0.296263
1.19 -0.29951
1.2 -0.301109
1.21 -0.301219
1.22 -0.300044
1.23 -0.297828
1.24 -0.294838
1.25 -0.291337
1.26 -0.28765
1.27 -0.28405
1.28 -0.28076
1.29 -0.277964
1.3 -0.2758
1.31 -0.274358
1.32 -0.273748
1.33 -0.273854
1.34 -0.274595
1.35 -0.275847
1.36 -0.277449
1.37 -0.279218
1.38 -0.280939
1.39 -0.28238
1.4 -0.283351
1.41 -0.283681
1.42 -0.283232
1.43 -0.281899
1.44 -0.279624
1.45 -0.276295
1.46 -0.272066
1.47 -0.267044
1.48 -0.261373
1.49 -0.255238
1.5 -0.248854
1.51 -0.24247
1.52 -0.236374
1.53 -0.230811
1.54 -0.226009
1.55 -0.222175
1.56 -0.219476
1.57 -0.218036
1.58 -0.218066
1.59 -0.219459
1.6 -0.222136
1.61 -0.225978
1.62 -0.230815
1.63 -0.236422
1.64 -0.242542
1.65 -0.248838
1.66 -0.254949
1.67 -0.260541
1.68 -0.265289
1.69 -0.268883
1.7 -0.271044
1.71 -0.271367
1.72 -0.269757
1.73 -0.26615
1.74 -0.260498
1.75 -0.252821
1.76 -0.243208
1.77 -0.231768
1.78 -0.218645
1.79 -0.204273
1.8 -0.188965
1.81 -0.173062
1.82 -0.156919
1.83 -0.140895
1.84 -0.125398
1.85 -0.11077
1.86 -0.0972692
1.87 -0.0851225
1.88 -0.0745031
1.89 -0.0655224
1.9 -0.0582525
1.91 -0.0528119
1.92 -0.0489308
1.93 -0.0464558
1.94 -0.0451849
1.95 -0.0448767
1.96 -0.0452609
1.97 -0.0460576
1.98 -0.0469272
1.99 -0.0475752
2 -0.0477498
2.01 -0.0472357
2.02 -0.0458633
2.03 -0.0435131
2.04 -0.0400171
2.05 -0.0355132
2.06 -0.0300904
2.07 -0.0238993
2.08 -0.0171464
2.09 -0.0100876
2.1 -0.00303788
2.11 0.00362273
2.12 0.00955216
2.13 0.0144061
2.14 0.0178533
2.15 0.0195885
2.16 0.0193446
2.17 0.0166445
2.18 0.0115487
2.19 0.00399752
2.2 -0.00601456
2.21 -0.0184212
2.22 -0.0330849
2.23 -0.0498812
2.24 -0.0685425
2.25 -0.0885913
2.26 -0.109655
2.27 -0.131331
2.28 -0.153203
2.29 -0.174851
2.3 -0.195767
2.31 -0.215577
2.32 -0.233959
2.33 -0.250623
2.34 -0.265338
2.35 -0.277935
2.36 -0.288236
2.37 -0.296106
2.38 -0.301783
2.39 -0.305385
2.4 -0.307088
2.41 -0.307117
2.42 -0.305739
2.43 -0.303184
2.44 -0.299873
2.45 -0.296164
2.46 -0.292374
2.47 -0.288804
2.48 -0.285728
2.49 -0.283407
2.5 -0.282122
2.51 -0.281933
2.52 -0.282924
2.53 -0.285124
2.54 -0.288514
2.55 -0.293025
2.56 -0.298609
2.57 -0.305056
2.58 -0.312138
2.59 -0.31965
2.6 -0.327373
2.61 -0.335089
2.62 -0.342577
2.63 -0.349574
2.64 -0.355936
2.65 -0.361517
2.66 -0.366202
2.67 -0.369913
2.68 -0.372605
2.69 -0.374206
2.7 -0.374765
2.71 -0.3744
2.72 -0.373201
2.73 -0.371281
2.74 -0.368768
2.75 -0.365796
2.76 -0.362487
2.77 -0.359026
2.78 -0.355539
2.79 -0.35214
2.8 -0.348924
2.81 -0.345966
2.82 -0.34334
2.83 -0.34108
2.84 -0.339169
2.85 -0.33759
2.86 -0.336305
2.87 -0.335264
2.88 -0.334405
2.89 -0.333658
2.9 -0.33293
2.91 -0.332143
2.92 -0.331225
2.93 -0.330107
2.94 -0.328732
2.95 -0.327035
2.96 -0.324963
2.97 -0.322511
2.98 -0.319662
2.99 -0.316406
3 -0.312736
3.01 -0.308648
3.02 -0.304096
3.03 -0.2991
3.04 -0.29365
3.05 -0.287719
3.06 -0.281266
3.07 -0.274237
3.08 -0.266541
3.09 -0.258043
3.1 -0.248701
3.11 -0.238406
3.12 -0.227043
3.13 -0.21449
3.14 -0.200627
3.15 -0.185211
3.16 -0.168201
3.17 -0.149557
3.18 -0.129217
3.19 -0.107144
3.2 -0.0833274
3.21 -0.0577592
3.22 -0.0303864
3.23 -0.00147998
3.24 0.028817
3.25 0.0603262
3.26 0.0928362
3.27 0.126106
3.28 0.159883
3.29 0.193822
3.3 0.227599
3.31 0.260902
3.32 0.293419
3.33 0.324846
3.34 0.354874
3.35 0.383037
3.36 0.409248
3.37 0.433297
3.38 0.455005
3.39 0.474232
3.4 0.490873
3.41 0.504697
3.42 0.515699
3.43 0.524043
3.44 0.52978
3.45 0.532991
3.46 0.533784
3.47 0.532286
3.48 0.528413
3.49 0.522584
3.5 0.514969
3.51 0.505735
3.52 0.495052
3.53 0.483081
3.54 0.469928
3.55 0.455748
3.56 0.440746
3.57 0.425048
3.58 0.408765
3.59 0.392003
3.6 0.374857
3.61 0.357395
3.62 0.339739
3.63 0.321974
3.64 0.304184
3.65 0.286452
3.66 0.268868
3.67 0.251537
3.68 0.234585
3.69 0.218097
3.7 0.202181
3.71 0.186953
3.72 0.172529
3.73 0.159025
3.74 0.146668
3.75 0.135509
3.76 0.125631
3.77 0.117131
3.78 0.110095
3.79 0.104599
3.8 0.10075
3.81 0.098693
3.82 0.0983087
3.83 0.0996035
3.84 0.102566
3.85 0.10717
3.86 0.113372
3.87 0.121236
3.88 0.130611
3.89 0.14136
3.9 0.153396
3.91 0.166622
3.92 0.18094
3.93 0.196265
3.94 0.212556
3.95 0.229615
3.96 0.247345
3.97 0.26565
3.98 0.284437
3.99 0.303616
4 0.323111
4.01 0.342814
4.02 0.362624
4.03 0.38245
4.04 0.402199
4.05 0.421776
4.06 0.441076
4.07 0.459941
4.08 0.478293
4.09 0.496012
4.1 0.512979
4.11 0.529068
4.12 0.544153
4.13 0.558029
4.14 0.570559
4.15 0.581686
4.16 0.5913
4.17 0.599298
4.18 0.605589
4.19 0.610098
4.2 0.612551
4.21 0.613107
4.22 0.611756
4.23 0.608498
4.24 0.603354
4.25 0.596364
4.26 0.5875
4.27 0.576817
4.28 0.564523
4.29 0.550721
4.3 0.535516
4.31 0.519021
4.32 0.50135
4.33 0.482516
4.34 0.462731
4.35 0.442109
4.36 0.420741
4.37 0.398705
4.38 0.376071
4.39 0.352877
4.4 0.329153
4.41 0.304975
4.42 0.280369
4.43 0.255355
4.44 0.229948
4.45 0.204164
4.46 0.17799
4.47 0.151473
4.48 0.124654
4.49 0.0975732
4.5 0.0702832
4.51 0.0428485
4.52 0.015348
4.53 -0.0121114
4.54 -0.0394176
4.55 -0.0664524
4.56 -0.0930888
4.57 -0.119194
4.58 -0.144631
4.59 -0.169189
4.6 -0.192753
4.61 -0.215232
4.62 -0.236517
4.63 -0.25651
4.64 -0.275137
4.65 -0.292317
4.66 -0.30789
4.67 -0.321996
4.68 -0.334654
4.69 -0.345907
4.7 -0.355818
4.71 -0.36447
4.72 -0.371892
4.73 -0.37824
4.74 -0.383696
4.75 -0.38839
4.76 -0.392456
4.77 -0.396023
4.78 -0.399214
4.79 -0.402126
4.8 -0.404896
4.81 -0.407604
4.82 -0.410314
4.83 -0.41307
4.84 -0.4159
4.85 -0.418816
4.86 -0.421807
4.87 -0.424841
4.88 -0.427878
4.89 -0.430871
4.9 -0.433763
4.91 -0.436498
4.92 -0.438987
4.93 -0.441191
4.94 -0.443062
4.95 -0.444561
4.96 -0.445654
4.97 -0.44632
4.98 -0.446527
4.99 -0.446267
5 -0.44558
5.01 -0.444487
5.02 -0.443013
5.03 -0.441187
5.04 -0.439041
5.05 -0.436577
5.06 -0.43385
5.07 -0.430885
5.08 -0.427693
5.09 -0.424277
5.1 -0.420633
5.11 -0.416733
5.12 -0.412535
5.13 -0.408023
5.14 -0.403153
5.15 -0.39788
5.16 -0.392153
5.17 -0.385925
5.18 -0.379102
5.19 -0.371679
5.2 -0.363648
5.21 -0.355002
5.22 -0.345749
5.23 -0.335916
5.24 -0.325535
5.25 -0.314651
5.26 -0.3034
5.27 -0.291887
5.28 -0.280232
5.29 -0.268568
5.3 -0.257036
5.31 -0.245815
5.32 -0.23506
5.33 -0.2249
5.34 -0.215464
5.35 -0.20687
5.36 -0.199216
5.37 -0.192595
5.38 -0.18716
5.39 -0.182825
5.4 -0.179583
5.41 -0.177401
5.42 -0.17622
5.43 -0.175957
5.44 -0.176552
5.45 -0.17785
5.46 -0.179672
5.47 -0.181873
5.48 -0.184303
5.49 -0.186815
5.5 -0.189269
5.51 -0.191502
5.52 -0.193415
5.53 -0.194919
5.54 -0.195946
5.55 -0.196451
5.56 -0.196411
5.57 -0.1958
5.58 -0.19464
5.59 -0.19301
5.6 -0.190968
5.61 -0.188584
5.62 -0.185931
5.63 -0.183086
5.64 -0.180115
5.65 -0.177097
5.66 -0.174081
5.67 -0.171098
5.68 -0.168159
5.69 -0.165253
5.7 -0.162345
5.71 -0.159368
5.72 -0.156243
5.73 -0.152869
5.74 -0.149135
5.75 -0.144917
5.76 -0.140088
5.77 -0.134434
5.78 -0.127876
5.79 -0.120322
5.8 -0.111681
5.81 -0.101885
5.82 -0.0908902
5.83 -0.0786454
5.84 -0.0651158
5.85 -0.0504637
5.86 -0.0347824
5.87 -0.0181956
5.88 -0.00085497
5.89 0.0170636
5.9 0.0353793
5.91 0.0538341
5.92 0.0721995
5.93 0.0902587
5.94 0.107802
5.95 0.124634
5.96 0.140556
5.97 0.155325
5.98 0.168916
5.99 0.181251
6 0.192287
6.01 0.202018
6.02 0.210473
6.03 0.217633
6.04 0.22365
6.05 0.228701
6.06 0.232934
6.07 0.236509
6.08 0.239594
6.09 0.242357
6.1 0.244961
6.11 0.24758
6.12 0.250339
6.13 0.253333
6.14 0.25663
6.15 0.260264
6.16 0.264256
6.17 0.268557
6.18 0.273072
6.19 0.277694
6.2 0.282289
6.21 0.286701
6.22 0.290757
6.23 0.294192
6.24 0.296865
6.25 0.298598
6.26 0.299223
6.27 0.298591
6.28 0.296576
6.29 0.293001
6.3 0.28778
6.31 0.280988
6.32 0.272643
6.33 0.262797
6.34 0.251537
6.35 0.238982
6.36 0.225174
6.37 0.210411
6.38 0.194897
6.39 0.178827
6.4 0.162405
6.41 0.145828
6.42 0.12929
6.43 0.112993
6.44 0.0970759
6.45 0.0816558
6.46 0.0668214
6.47 0.0526303
6.48 0.0391085
6.49 0.0263106
6.5 0.0141451
6.51 0.00252916
6.52 -0.00862649
6.53 -0.0194282
6.54 -0.0299942
6.55 -0.0404495
6.56 -0.050936
6.57 -0.0615785
6.58 -0.0724821
6.59 -0.0837348
6.6 -0.0954043
6.61 -0.107534
6.62 -0.120181
6.63 -0.133306
6.64 -0.146846
6.65 -0.160733
6.66 -0.17487
6.67 -0.189143
6.68 -0.203414
6.69 -0.217506
6.7 -0.231264
6.71 -0.24453
6.72 -0.257146
6.73 -0.268963
6.74 -0.279844
6.75 -0.289579
6.76 -0.298082
6.77 -0.305321
6.78 -0.31124
6.79 -0.315802
6.8 -0.318994
6.81 -0.320812
6.82 -0.321151
6.83 -0.320206
6.84 -0.31803
6.85 -0.31469
6.86 -0.310254
6.87 -0.30479
6.88 -0.29831
6.89 -0.290888
6.9 -0.282626
6.91 -0.273562
6.92 -0.263718
6.93 -0.253107
6.94 -0.241726
6.95 -0.229467
6.96 -0.216387
6.97 -0.202449
6.98 -0.18761
6.99 -0.171823
7 -0.155042
7.01 -0.137168
7.02 -0.118144
7.03 -0.0980168
7.04 -0.0767753
7.05 -0.0544255
7.06 -0.0309899
7.07 -0.00650952
7.08 0.0190496
7.09 0.0455094
7.1 0.0727559
7.11 0.100673
7.12 0.129131
7.13 0.157988
7.14 0.1871
7.15 0.216292
7.16 0.245391
7.17 0.274242
7.18 0.302695
7.19 0.330608
7.2 0.357848
7.21 0.38421
7.22 0.409627
7.23 0.434029
7.24 0.457336
7.25 0.479485
7.26 0.500422
7.27 0.520067
7.28 0.538308
7.29 0.555231
7.3 0.570816
7.31 0.585047
7.32 0.597905
7.33 0.609373
7.34 0.619311
7.35 0.627755
7.36 0.634722
7.37 0.640176
7.38 0.644073
7.39 0.646368
7.4 0.646983
7.41 0.645717
7.42 0.642689
7.43 0.637852
7.44 0.631165
7.45 0.622598
7.46 0.612129
7.47 0.599618
7.48 0.58512
7.49 0.568753
7.5 0.550567
7.51 0.530627
7.52 0.509023
7.53 0.48585
7.54 0.461101
7.55 0.435092
7.56 0.407987
7.57 0.379959
7.58 0.351193
7.59 0.321881
7.6 0.292212
7.61 0.262416
7.62 0.232705
7.63 0.20327
7.64 0.174294
7.65 0.145947
7.66 0.118388
7.67 0.0918795
7.68 0.0664604
7.69 0.042232
7.7 0.0192835
7.71 -0.00231363
7.72 -0.0225052
7.73 -0.0411837
7.74 -0.0582952
7.75 -0.0739369
7.76 -0.0881188
7.77 -0.100863
7.78 -0.1122
7.79 -0.122171
7.8 -0.130696
7.81 -0.137946
7.82 -0.144
7.83 -0.148922
7.84 -0.152772
7.85 -0.155617
7.86 -0.157489
7.87 -0.158424
7.88 -0.158558
7.89 -0.157955
7.9 -0.156674
7.91 -0.154775
7.92 -0.152314
7.93 -0.149306
7.94 -0.145839
7.95 -0.141976
7.96 -0.137764
7.97 -0.133245
7.98 -0.128461
7.99 -0.123444
8 -0.118219
8.01 -0.112837
8.02 -0.107325
8.03 -0.101709
8.04 -0.0960085
8.05 -0.0902443
8.06 -0.084431
8.07 -0.0785881
8.08 -0.0727318
8.09 -0.0668762
8.1 -0.0610356
8.11 -0.055225
8.12 -0.0494617
8.13 -0.0437718
8.14 -0.0381709
8.15 -0.0326818
8.16 -0.0273298
8.17 -0.0221426
8.18 -0.0171495
8.19 -0.012399
8.2 -0.00792334
8.21 -0.00374292
8.22 0.000111761
8.23 0.00361239
8.24 0.00673387
8.25 0.00945399
8.26 0.0117104
8.27 0.0135417
8.28 0.0149477
8.29 0.0159362
8.3 0.0165227
8.31 0.0167309
8.32 0.0165748
8.33 0.0160985
8.34 0.0153687
8.35 0.0144362
8.36 0.0133547
8.37 0.0121791
8.38 0.0109641
8.39 0.00976846
8.4 0.00864206
8.41 0.00762391
8.42 0.00674452
8.43 0.00602433
8.44 0.00547246
8.45 0.00509264
8.46 0.00486904
8.47 0.00475817
8.48 0.00471643
8.49 0.00468929
8.5 0.00461275
8.51 0.00441515
8.52 0.00399185
8.53 0.00326925
8.54 0.00217109
8.55 0.000620339
8.56 -0.00145424
8.57 -0.0041155
8.58 -0.00743892
8.59 -0.0115003
8.6 -0.0162669
8.61 -0.0217434
8.62 -0.0279185
8.63 -0.0347646
8.64 -0.0422383
8.65 -0.050325
8.66 -0.0589106
8.67 -0.0678943
8.68 -0.0771845
8.69 -0.0866851
8.7 -0.0962986
8.71 -0.105927
8.72 -0.115461
8.73 -0.124819
8.74 -0.13393
8.75 -0.142736
8.76 -0.15119
8.77 -0.159263
8.78 -0.16691
8.79 -0.17415
8.8 -0.181017
8.81 -0.187544
8.82 -0.193772
8.83 -0.199753
8.84 -0.20554
8.85 -0.211188
8.86 -0.216771
8.87 -0.222341
8.88 -0.227945
8.89 -0.233616
8.9 -0.239377
8.91 -0.245243
8.92 -0.251204
8.93 -0.257228
8.94 -0.263275
8.95 -0.269291
8.96 -0.275209
8.97 -0.280952
8.98 -0.286396
8.99 -0.291474
9 -0.296097
9.01 -0.300178
9.02 -0.303639
9.03 -0.30641
9.04 -0.308392
9.05 -0.309534
9.06 -0.309865
9.07 -0.309384
9.08 -0.308112
9.09 -0.306088
9.1 -0.303368
9.11 -0.29997
9.12 -0.296055
9.13 -0.29173
9.14 -0.287107
9.15 -0.282298
9.16 -0.277418
9.17 -0.272583
9.18 -0.267913
9.19 -0.263491
9.2 -0.259392
9.21 -0.25567
9.22 -0.252364
9.23 -0.249491
9.24 -0.247087
9.25 -0.245092
9.26 -0.243454
9.27 -0.242111
9.28 -0.240989
9.29 -0.240007
9.3 -0.239074
9.31 -0.238083
9.32 -0.236942
9.33 -0.23557
9.34 -0.233893
9.35 -0.231852
9.36 -0.229402
9.37 -0.226478
9.38 -0.223096
9.39 -0.219285
9.4 -0.215081
9.41 -0.210532
9.42 -0.205705
9.43 -0.200674
9.44 -0.195531
9.45 -0.190385
9.46 -0.185331
9.47 -0.180456
9.48 -0.175843
9.49 -0.171561
9.5 -0.167696
9.51 -0.164275
9.52 -0.161291
9.53 -0.158733
9.54 -0.156567
9.55 -0.154736
9.56 -0.153165
9.57 -0.151756
9.58 -0.150368
9.59 -0.148869
9.6 -0.147119
9.61 -0.144977
9.62 -0.142299
9.63 -0.138896
9.64 -0.134624
9.65 -0.129411
9.66 -0.123162
9.67 -0.115803
9.68 -0.107282
9.69 -0.0975742
9.7 -0.0865426
9.71 -0.0743538
9.72 -0.0610637
9.73 -0.0467486
9.74 -0.0315036
9.75 -0.0154402
9.76 0.00134609
9.77 0.0187095
9.78 0.0364681
9.79 0.0544845
9.8 0.072626
9.81 0.0907678
9.82 0.108796
9.83 0.126581
9.84 0.14405
9.85 0.161146
9.86 0.177822
9.87 0.194052
9.88 0.209824
9.89 0.225123
9.9 0.239952
9.91 0.254374
9.92 0.268421
9.93 0.282129
9.94 0.295534
9.95 0.308667
9.96 0.321534
9.97 0.334169
9.98 0.34658
9.99 0.35876
10 0.370687
10.01 0.382326
10.02 0.393619
10.03 0.404476
10.04 0.41486
10.05 0.424694
10.06 0.433902
10.07 0.442405
10.08 0.450127
10.09 0.456925
10.1 0.462774
10.11 0.467658
10.12 0.471548
10.13 0.474433
10.14 0.476317
10.15 0.477207
10.16 0.477079
10.17 0.476092
10.18 0.47433
10.19 0.471887
10.2 0.46887
10.21 0.465394
10.22 0.461566
10.23 0.457534
10.24 0.453432
10.25 0.449374
10.26 0.445465
10.27 0.441796
10.28 0.438447
10.29 0.435523
10.3 0.433024
10.31 0.430966
10.32 0.429347
10.33 0.428145
10.34 0.427321
10.35 0.426832
10.36 0.426595
10.37 0.426506
10.38 0.426469
10.39 0.426385
10.4 0.42615
10.41 0.425662
10.42 0.424768
10.43 0.423404
10.44 0.421488
10.45 0.418942
10.46 0.415704
10.47 0.41172
10.48 0.406911
10.49 0.401231
10.5 0.394723
10.51 0.387384
10.52 0.379224
10.53 0.37026
10.54 0.360518
10.55 0.349953
10.56 0.338672
10.57 0.326722
10.58 0.314143
10.59 0.300975
10.6 0.287255
10.61 0.273004
10.62 0.258241
10.63 0.24304
10.64 0.227434
10.65 0.211453
10.66 0.195127
10.67 0.178487
10.68 0.161541
10.69 0.144344
10.7 0.126939
10.71 0.109364
10.72 0.0916593
10.73 0.0738683
10.74 0.0560379
10.75 0.0382244
10.76 0.0204815
10.77 0.00286093
10.78 -0.0145861
10.79 -0.0318097
10.8 -0.0487628
10.81 -0.0653743
10.82 -0.0816158
10.83 -0.0974698
10.84 -0.112915
10.85 -0.127937
10.86 -0.142533
10.87 -0.156701
10.88 -0.170422
10.89 -0.183762
10.9 -0.196754
10.91 -0.209434
10.92 -0.221845
10.93 -0.234032
10.94 -0.246033
10.95 -0.257901
10.96 -0.269687
10.97 -0.281427
10.98 -0.293149
10.99 -0.304873
11 -0.31661
11.01 -0.328358
11.02 -0.340101
11.03 -0.35181
11.04 -0.363447
11.05 -0.374962
11.06 -0.386297
11.07 -0.397364
11.08 -0.408077
11.09 -0.418372
11.1 -0.428168
11.11 -0.437384
11.12 -0.445944
11.13 -0.453774
11.14 -0.460714
11.15 -0.466786
11.16 -0.471952
11.17 -0.47618
11.18 -0.479448
11.19 -0.481749
11.2 -0.483044
11.21 -0.483328
11.22 -0.482699
11.23 -0.481194
11.24 -0.478857
11.25 -0.475738
11.26 -0.471891
11.27 -0.467307
11.28 -0.4621
11.29 -0.456332
11.3 -0.450046
11.31 -0.443283
11.32 -0.436072
11.33 -0.428424
11.34 -0.420334
11.35 -0.411842
11.36 -0.402945
11.37 -0.393634
11.38 -0.383895
11.39 -0.373708
11.4 -0.36301
11.41 -0.351805
11.42 -0.340088
11.43 -0.327844
11.44 -0.315065
11.45 -0.301748
11.46 -0.287888
11.47 -0.273469
11.48 -0.258571
11.49 -0.243234
11.5 -0.22751
11.51 -0.211459
11.52 -0.195152
11.53 -0.17866
11.54 -0.162087
11.55 -0.14553
11.56 -0.129082
11.57 -0.112836
11.58 -0.0968827
11.59 -0.0813158
11.6 -0.0662679
11.61 -0.0517691
11.62 -0.0378818
11.63 -0.0246576
11.64 -0.0121371
11.65 -0.000348859
11.66 0.0106403
11.67 0.0208377
11.68 0.0302904
11.69 0.0390173
11.7 0.0470459
11.71 0.0544113
11.72 0.0611532
11.73 0.0672575
11.74 0.0728432
11.75 0.0779595
11.76 0.0826547
11.77 0.0869749
11.78 0.0909629
11.79 0.094643
11.8 0.0980511
11.81 0.101231
11.82 0.104204
11.83 0.106983
11.84 0.109579
11.85 0.111994
11.86 0.114208
11.87 0.116232
11.88 0.118059
11.89 0.119678
11.9 0.121076
11.91 0.122238
11.92 0.12314
11.93 0.123756
11.94 0.124091
11.95 0.124133
11.96 0.123868
11.97 0.123284
11.98 0.122368
11.99 0.121074
12 0.119413
12.01 0.117378
12.02 0.114952
12.03 0.112117
12.04 0.108851
12.05 0.105117
12.06 0.100859
12.07 0.0960878
12.08 0.0907717
12.09 0.0848785
12.1 0.0783751
12.11 0.0712286
12.12 0.0633469
12.13 0.0547345
12.14 0.0453886
12.15 0.0352904
12.16 0.0244282
12.17 0.0127983
12.18 0.000390286
