# xPDFsuite Configuration #
[PDF]
wavelength = 0.1
dataformat = QA
inputfile = BiMsol6_insitu_700 C-00549.xy
backgroundfile = Quartz2mm-dist500-00000.xy
mode = xray
bgscale = 0.0042
composition = Bi2Fe4O9
outputtype = gr
qmaxinst = 24.998449118
qmin = 0.1
qmax = 21.4986662415
rmax = 80.0
rmin = 0.0
rstep = 0.01
rpoly = 0.9

[Misc]
inputdir = C:/Data/Seafile/CPH/Beamtime/Desy Oct 20/In situ data/Processed/BiMsol6/PDF
savedir = C:/Data/Seafile/CPH/Beamtime/Desy Oct 20/In situ data/PDF/BiMsol6
backgroundfilefull = C:/Data/Seafile/CPH/Beamtime/Desy Oct 20/In situ data/Processed/Standard_Empty_Cap/Quartz2mm-dist500-00000.xy

#### start data
#S 1
#L r($\AA$)  G($\AA^{-2}$)
0 0
0.01 0.00657928
0.02 0.0127874
0.03 0.0183067
0.04 0.0228521
0.05 0.0261841
0.06 0.0281204
0.07 0.0284609
0.08 0.0271473
0.09 0.024326
0.1 0.0201174
0.11 0.0147084
0.12 0.00834441
0.13 0.00131818
0.14 -0.00604153
0.15 -0.0133196
0.16 -0.020166
0.17 -0.0262523
0.18 -0.0312839
0.19 -0.0350143
0.2 -0.0371907
0.21 -0.0376395
0.22 -0.03646
0.23 -0.0337191
0.24 -0.0295634
0.25 -0.0242148
0.26 -0.0179618
0.27 -0.011132
0.28 -0.00419936
0.29 0.00241462
0.3 0.00830077
0.31 0.0130701
0.32 0.016373
0.33 0.0178554
0.34 0.0171714
0.35 0.0143729
0.36 0.00945645
0.37 0.00252463
0.38 -0.00621238
0.39 -0.01644
0.4 -0.0277941
0.41 -0.0396466
0.42 -0.0513814
0.43 -0.0623726
0.44 -0.0719731
0.45 -0.0795388
0.46 -0.0843894
0.47 -0.0856503
0.48 -0.0831324
0.49 -0.0764838
0.5 -0.0654771
0.51 -0.050024
0.52 -0.0301848
0.53 -0.00589842
0.54 0.0222714
0.55 0.053586
0.56 0.0873576
0.57 0.122784
0.58 0.158971
0.59 0.194945
0.6 0.229461
0.61 0.261559
0.62 0.290267
0.63 0.314678
0.64 0.333979
0.65 0.347477
0.66 0.354206
0.67 0.353789
0.68 0.346424
0.69 0.332139
0.7 0.311149
0.71 0.283851
0.72 0.250812
0.73 0.212276
0.74 0.169764
0.75 0.124271
0.76 0.07685
0.77 0.0285895
0.78 -0.0194178
0.79 -0.065988
0.8 -0.109942
0.81 -0.150495
0.82 -0.186885
0.83 -0.218495
0.84 -0.244864
0.85 -0.265698
0.86 -0.280299
0.87 -0.289264
0.88 -0.292931
0.89 -0.291708
0.9 -0.286131
0.91 -0.276846
0.92 -0.264497
0.93 -0.2499
0.94 -0.234093
0.95 -0.217879
0.96 -0.202029
0.97 -0.187252
0.98 -0.174179
0.99 -0.163582
1 -0.155752
1.01 -0.150888
1.02 -0.149119
1.03 -0.150447
1.04 -0.154752
1.05 -0.161876
1.06 -0.171583
1.07 -0.183214
1.08 -0.196291
1.09 -0.210306
1.1 -0.224741
1.11 -0.239085
1.12 -0.252774
1.13 -0.265357
1.14 -0.276504
1.15 -0.285943
1.16 -0.293484
1.17 -0.299027
1.18 -0.302526
1.19 -0.303913
1.2 -0.303558
1.21 -0.301694
1.22 -0.298604
1.23 -0.294608
1.24 -0.290044
1.25 -0.285263
1.26 -0.280644
1.27 -0.276487
1.28 -0.273041
1.29 -0.2705
1.3 -0.268997
1.31 -0.268607
1.32 -0.269437
1.33 -0.271279
1.34 -0.273991
1.35 -0.277378
1.36 -0.281207
1.37 -0.285214
1.38 -0.289099
1.39 -0.292539
1.4 -0.295282
1.41 -0.297097
1.42 -0.297792
1.43 -0.297229
1.44 -0.295323
1.45 -0.291908
1.46 -0.287191
1.47 -0.281302
1.48 -0.274424
1.49 -0.266788
1.5 -0.258669
1.51 -0.250375
1.52 -0.242276
1.53 -0.2347
1.54 -0.227951
1.55 -0.222303
1.56 -0.217989
1.57 -0.215188
1.58 -0.214191
1.59 -0.214902
1.6 -0.217255
1.61 -0.22114
1.62 -0.226376
1.63 -0.232721
1.64 -0.239896
1.65 -0.247527
1.66 -0.255178
1.67 -0.262459
1.68 -0.268982
1.69 -0.274375
1.7 -0.2783
1.71 -0.28028
1.72 -0.280168
1.73 -0.277859
1.74 -0.273271
1.75 -0.266399
1.76 -0.257318
1.77 -0.246126
1.78 -0.232957
1.79 -0.21829
1.8 -0.202465
1.81 -0.185856
1.82 -0.168858
1.83 -0.151872
1.84 -0.135352
1.85 -0.119692
1.86 -0.105192
1.87 -0.0921191
1.88 -0.0806781
1.89 -0.0710066
1.9 -0.0631974
1.91 -0.0573937
1.92 -0.0533102
1.93 -0.0507859
1.94 -0.0496039
1.95 -0.0495014
1.96 -0.0501818
1.97 -0.0513366
1.98 -0.0525874
1.99 -0.0536034
2 -0.0541006
2.01 -0.0538337
2.02 -0.0526075
2.03 -0.0502813
2.04 -0.0466565
2.05 -0.0418792
2.06 -0.0360395
2.07 -0.0292958
2.08 -0.0218694
2.09 -0.0140371
2.1 -0.00613725
2.11 0.00141516
2.12 0.00824048
2.13 0.01396
2.14 0.0182089
2.15 0.0206497
2.16 0.0209868
2.17 0.0187002
2.18 0.0138467
2.19 0.00635724
2.2 -0.00377696
2.21 -0.0164854
2.22 -0.0316194
2.23 -0.0490417
2.24 -0.0684589
2.25 -0.0893519
2.26 -0.111312
2.27 -0.133899
2.28 -0.156658
2.29 -0.179127
2.3 -0.200747
2.31 -0.221116
2.32 -0.239881
2.33 -0.256731
2.34 -0.271414
2.35 -0.283754
2.36 -0.29356
2.37 -0.300691
2.38 -0.30542
2.39 -0.307885
2.4 -0.308288
2.41 -0.306889
2.42 -0.30399
2.43 -0.299858
2.44 -0.294967
2.45 -0.289715
2.46 -0.284461
2.47 -0.279545
2.48 -0.275275
2.49 -0.271945
2.5 -0.269879
2.51 -0.269137
2.52 -0.269813
2.53 -0.27194
2.54 -0.275496
2.55 -0.280403
2.56 -0.286615
2.57 -0.29389
2.58 -0.301967
2.59 -0.310612
2.6 -0.319578
2.61 -0.328612
2.62 -0.337462
2.63 -0.345832
2.64 -0.353542
2.65 -0.360417
2.66 -0.366321
2.67 -0.371149
2.68 -0.374842
2.69 -0.377301
2.7 -0.378565
2.71 -0.378752
2.72 -0.377951
2.73 -0.376274
2.74 -0.37385
2.75 -0.37082
2.76 -0.367298
2.77 -0.363493
2.78 -0.359544
2.79 -0.355574
2.8 -0.351689
2.81 -0.347976
2.82 -0.344516
2.83 -0.341356
2.84 -0.338493
2.85 -0.335919
2.86 -0.333608
2.87 -0.331519
2.88 -0.329597
2.89 -0.327784
2.9 -0.325994
2.91 -0.324159
2.92 -0.322215
2.93 -0.320101
2.94 -0.317766
2.95 -0.315158
2.96 -0.312229
2.97 -0.308981
2.98 -0.305401
2.99 -0.301482
3 -0.297222
3.01 -0.292619
3.02 -0.287634
3.03 -0.282281
3.04 -0.276548
3.05 -0.270403
3.06 -0.2638
3.07 -0.256681
3.08 -0.248949
3.09 -0.240465
3.1 -0.231177
3.11 -0.220968
3.12 -0.209718
3.13 -0.197302
3.14 -0.183598
3.15 -0.16836
3.16 -0.15155
3.17 -0.133131
3.18 -0.113045
3.19 -0.0912641
3.2 -0.0677884
3.21 -0.0426216
3.22 -0.0157308
3.23 0.012605
3.24 0.0422287
3.25 0.0729486
3.26 0.104541
3.27 0.136753
3.28 0.169314
3.29 0.201877
3.3 0.234123
3.31 0.265743
3.32 0.296434
3.33 0.325902
3.34 0.353855
3.35 0.379841
3.36 0.403812
3.37 0.425587
3.38 0.445021
3.39 0.462009
3.4 0.476486
3.41 0.488265
3.42 0.497386
3.43 0.504042
3.44 0.508319
3.45 0.51033
3.46 0.510208
3.47 0.508105
3.48 0.503993
3.49 0.498264
3.5 0.491093
3.51 0.482646
3.52 0.473082
3.53 0.46255
3.54 0.451152
3.55 0.439015
3.56 0.426299
3.57 0.413092
3.58 0.399474
3.59 0.385512
3.6 0.371264
3.61 0.356763
3.62 0.342084
3.63 0.327279
3.64 0.312398
3.65 0.297499
3.66 0.282644
3.67 0.267914
3.68 0.253408
3.69 0.239209
3.7 0.22542
3.71 0.212149
3.72 0.199512
3.73 0.187627
3.74 0.17671
3.75 0.16683
3.76 0.158083
3.77 0.150572
3.78 0.144394
3.79 0.139631
3.8 0.136396
3.81 0.134834
3.82 0.134841
3.83 0.136427
3.84 0.139583
3.85 0.144281
3.86 0.150478
3.87 0.158227
3.88 0.167375
3.89 0.177786
3.9 0.189364
3.91 0.202008
3.92 0.215611
3.93 0.230081
3.94 0.245355
3.95 0.261244
3.96 0.277647
3.97 0.294462
3.98 0.311593
3.99 0.328947
4 0.346437
4.01 0.363958
4.02 0.381419
4.03 0.398732
4.04 0.415809
4.05 0.432561
4.06 0.44889
4.07 0.464636
4.08 0.479744
4.09 0.494111
4.1 0.50763
4.11 0.520192
4.12 0.531688
4.13 0.541933
4.14 0.550813
4.15 0.558298
4.16 0.564302
4.17 0.568748
4.18 0.571571
4.19 0.572724
4.2 0.57198
4.21 0.569512
4.22 0.565336
4.23 0.559479
4.24 0.551985
4.25 0.542915
4.26 0.532277
4.27 0.520146
4.28 0.506724
4.29 0.492118
4.3 0.476438
4.31 0.459794
4.32 0.44229
4.33 0.423961
4.34 0.40497
4.35 0.385407
4.36 0.365336
4.37 0.344807
4.38 0.323858
4.39 0.302498
4.4 0.280723
4.41 0.258564
4.42 0.236012
4.43 0.213054
4.44 0.189678
4.45 0.165871
4.46 0.141588
4.47 0.116862
4.48 0.0917226
4.49 0.0662013
4.5 0.0403468
4.51 0.0142248
4.52 -0.0120831
4.53 -0.0384655
4.54 -0.0647864
4.55 -0.0909108
4.56 -0.116694
4.57 -0.141983
4.58 -0.166621
4.59 -0.190378
4.6 -0.213118
4.61 -0.234736
4.62 -0.255109
4.63 -0.274133
4.64 -0.291725
4.65 -0.307804
4.66 -0.322207
4.67 -0.33509
4.68 -0.346481
4.69 -0.356437
4.7 -0.365039
4.71 -0.372388
4.72 -0.378536
4.73 -0.383662
4.74 -0.387966
4.75 -0.391598
4.76 -0.394708
4.77 -0.397439
4.78 -0.399926
4.79 -0.40229
4.8 -0.404654
4.81 -0.407098
4.82 -0.409681
4.83 -0.412438
4.84 -0.415383
4.85 -0.418519
4.86 -0.421813
4.87 -0.425207
4.88 -0.428641
4.89 -0.432045
4.9 -0.435343
4.91 -0.438457
4.92 -0.441275
4.93 -0.443746
4.94 -0.445812
4.95 -0.447424
4.96 -0.448544
4.97 -0.449152
4.98 -0.449214
4.99 -0.448727
5 -0.447751
5.01 -0.446317
5.02 -0.444466
5.03 -0.442244
5.04 -0.4397
5.05 -0.436859
5.06 -0.433791
5.07 -0.430536
5.08 -0.427119
5.09 -0.423555
5.1 -0.419846
5.11 -0.415973
5.12 -0.411897
5.13 -0.407591
5.14 -0.403005
5.15 -0.39808
5.16 -0.392753
5.17 -0.38696
5.18 -0.380586
5.19 -0.3736
5.2 -0.365972
5.21 -0.35767
5.22 -0.34868
5.23 -0.339003
5.24 -0.328649
5.25 -0.317627
5.26 -0.30607
5.27 -0.294068
5.28 -0.28173
5.29 -0.269179
5.3 -0.256552
5.31 -0.244009
5.32 -0.231716
5.33 -0.219815
5.34 -0.208446
5.35 -0.197737
5.36 -0.1878
5.37 -0.178743
5.38 -0.170728
5.39 -0.163703
5.4 -0.157684
5.41 -0.152659
5.42 -0.148592
5.43 -0.145421
5.44 -0.143111
5.45 -0.141533
5.46 -0.140529
5.47 -0.139972
5.48 -0.139732
5.49 -0.139681
5.5 -0.139694
5.51 -0.139642
5.52 -0.139422
5.53 -0.138958
5.54 -0.138191
5.55 -0.137083
5.56 -0.13562
5.57 -0.133788
5.58 -0.131615
5.59 -0.129168
5.6 -0.126507
5.61 -0.123698
5.62 -0.120812
5.63 -0.117921
5.64 -0.115108
5.65 -0.112427
5.66 -0.10992
5.67 -0.107613
5.68 -0.105511
5.69 -0.103599
5.7 -0.101844
5.71 -0.10018
5.72 -0.0985111
5.73 -0.0967383
5.74 -0.0947475
5.75 -0.0924156
5.76 -0.0896147
5.77 -0.0861473
5.78 -0.0819255
5.79 -0.0768545
5.8 -0.0708446
5.81 -0.0638274
5.82 -0.05576
5.83 -0.0465924
5.84 -0.0362923
5.85 -0.025003
5.86 -0.0128084
5.87 0.000180141
5.88 0.0138257
5.89 0.0279704
5.9 0.0424511
5.91 0.0570399
5.92 0.0715365
5.93 0.0857525
5.94 0.0995084
5.95 0.112639
5.96 0.124981
5.97 0.136337
5.98 0.146699
5.99 0.156016
6 0.164271
6.01 0.171478
6.02 0.177685
6.03 0.182907
6.04 0.187296
6.05 0.191019
6.06 0.19422
6.07 0.197053
6.08 0.199672
6.09 0.20223
6.1 0.20489
6.11 0.207773
6.12 0.210977
6.13 0.21457
6.14 0.21859
6.15 0.223044
6.16 0.227926
6.17 0.233159
6.18 0.238623
6.19 0.244194
6.2 0.249723
6.21 0.255046
6.22 0.259985
6.23 0.264272
6.24 0.267775
6.25 0.270324
6.26 0.271765
6.27 0.271965
6.28 0.270814
6.29 0.268157
6.3 0.263929
6.31 0.258221
6.32 0.251066
6.33 0.242528
6.34 0.232704
6.35 0.22172
6.36 0.209632
6.37 0.196722
6.38 0.183183
6.39 0.169199
6.4 0.154956
6.41 0.14063
6.42 0.126397
6.43 0.112428
6.44 0.0988347
6.45 0.0857084
6.46 0.0731138
6.47 0.0610868
6.48 0.0496347
6.49 0.0387856
6.5 0.0284453
6.51 0.0185295
6.52 0.00895019
6.53 -0.000392514
6.54 -0.00960498
6.55 -0.0187978
6.56 -0.0280928
6.57 -0.0375824
6.58 -0.0473444
6.59 -0.0574385
6.6 -0.067904
6.61 -0.078757
6.62 -0.090019
6.63 -0.101631
6.64 -0.11352
6.65 -0.125603
6.66 -0.137782
6.67 -0.149942
6.68 -0.161953
6.69 -0.173644
6.7 -0.184898
6.71 -0.195587
6.72 -0.205587
6.73 -0.214788
6.74 -0.223094
6.75 -0.23035
6.76 -0.236517
6.77 -0.241604
6.78 -0.245595
6.79 -0.248493
6.8 -0.250319
6.81 -0.251099
6.82 -0.25079
6.83 -0.249561
6.84 -0.247475
6.85 -0.244596
6.86 -0.240985
6.87 -0.236698
6.88 -0.231744
6.89 -0.226165
6.9 -0.220015
6.91 -0.213297
6.92 -0.206001
6.93 -0.198102
6.94 -0.189563
6.95 -0.180249
6.96 -0.170173
6.97 -0.159273
6.98 -0.147482
6.99 -0.134736
7 -0.120977
7.01 -0.106098
7.02 -0.0900379
7.03 -0.0728495
7.04 -0.0545298
7.05 -0.0350954
7.06 -0.0145823
7.07 0.00695348
7.08 0.029524
7.09 0.0529369
7.1 0.0770638
7.11 0.101776
7.12 0.126931
7.13 0.152383
7.14 0.177976
7.15 0.203532
7.16 0.22889
7.17 0.253902
7.18 0.278429
7.19 0.302343
7.2 0.325526
7.21 0.34779
7.22 0.369093
7.23 0.389384
7.24 0.408606
7.25 0.426713
7.26 0.44367
7.27 0.459419
7.28 0.473869
7.29 0.487114
7.3 0.499145
7.31 0.509955
7.32 0.519536
7.33 0.527878
7.34 0.534863
7.35 0.540525
7.36 0.544886
7.37 0.547916
7.38 0.549583
7.39 0.549851
7.4 0.54866
7.41 0.545845
7.42 0.541518
7.43 0.535653
7.44 0.528226
7.45 0.519227
7.46 0.508653
7.47 0.496408
7.48 0.482557
7.49 0.467216
7.5 0.450443
7.51 0.432308
7.52 0.412898
7.53 0.392307
7.54 0.370547
7.55 0.347871
7.56 0.324413
7.57 0.30031
7.58 0.275704
7.59 0.250739
7.6 0.225556
7.61 0.200316
7.62 0.175166
7.63 0.150237
7.64 0.125649
7.65 0.101517
7.66 0.0779463
7.67 0.0551151
7.68 0.0330471
7.69 0.0118142
7.7 -0.00851661
7.71 -0.0278862
7.72 -0.0462426
7.73 -0.0634878
7.74 -0.0795534
7.75 -0.0944804
7.76 -0.108241
7.77 -0.12081
7.78 -0.13217
7.79 -0.142306
7.8 -0.151084
7.81 -0.158602
7.82 -0.164886
7.83 -0.169946
7.84 -0.173798
7.85 -0.176468
7.86 -0.17795
7.87 -0.178247
7.88 -0.177505
7.89 -0.175789
7.9 -0.173171
7.91 -0.169734
7.92 -0.165565
7.93 -0.160711
7.94 -0.155324
7.95 -0.149522
7.96 -0.143409
7.97 -0.137084
7.98 -0.130645
7.99 -0.124185
8 -0.117801
8.01 -0.111565
8.02 -0.105536
8.03 -0.0997632
8.04 -0.094281
8.05 -0.0891118
8.06 -0.0842899
8.07 -0.0797972
8.08 -0.0756046
8.09 -0.0716862
8.1 -0.0680087
8.11 -0.0645335
8.12 -0.0612205
8.13 -0.0580321
8.14 -0.0549121
8.15 -0.051824
8.16 -0.0487373
8.17 -0.0456287
8.18 -0.0424837
8.19 -0.0392945
8.2 -0.0360688
8.21 -0.0328253
8.22 -0.0295893
8.23 -0.026394
8.24 -0.0232782
8.25 -0.0202857
8.26 -0.0174859
8.27 -0.0149086
8.28 -0.0125955
8.29 -0.0105832
8.3 -0.008901
8.31 -0.00756922
8.32 -0.00661811
8.33 -0.00604567
8.34 -0.00581335
8.35 -0.00589274
8.36 -0.00624431
8.37 -0.00681855
8.38 -0.00755763
8.39 -0.00840083
8.4 -0.0092626
8.41 -0.010073
8.42 -0.010765
8.43 -0.0112769
8.44 -0.0115546
8.45 -0.01154
8.46 -0.0111913
8.47 -0.010516
8.48 -0.00951678
8.49 -0.00821288
8.5 -0.00663962
8.51 -0.00484793
8.52 -0.00289584
8.53 -0.000884117
8.54 0.00109413
8.55 0.00294191
8.56 0.0045588
8.57 0.00584417
8.58 0.00668259
8.59 0.00694662
8.6 0.00659535
8.61 0.00556428
8.62 0.00380457
8.63 0.00128482
8.64 -0.00200776
8.65 -0.0061312
8.66 -0.0110094
8.67 -0.0165706
8.68 -0.0227493
8.69 -0.0294657
8.7 -0.0366283
8.71 -0.0441419
8.72 -0.0519031
8.73 -0.0597734
8.74 -0.0676471
8.75 -0.0754241
8.76 -0.0830136
8.77 -0.0903358
8.78 -0.0972956
8.79 -0.103851
8.8 -0.109986
8.81 -0.115691
8.82 -0.120971
8.83 -0.125848
8.84 -0.130355
8.85 -0.134518
8.86 -0.138438
8.87 -0.142183
8.88 -0.145824
8.89 -0.149434
8.9 -0.153083
8.91 -0.156846
8.92 -0.160785
8.93 -0.164937
8.94 -0.169331
8.95 -0.173982
8.96 -0.178894
8.97 -0.184052
8.98 -0.18945
8.99 -0.195016
9 -0.200695
9.01 -0.206423
9.02 -0.212129
9.03 -0.21774
9.04 -0.223165
9.05 -0.228317
9.06 -0.233137
9.07 -0.237562
9.08 -0.24154
9.09 -0.245026
9.1 -0.247989
9.11 -0.250351
9.12 -0.252159
9.13 -0.253428
9.14 -0.254179
9.15 -0.254443
9.16 -0.25426
9.17 -0.253662
9.18 -0.252699
9.19 -0.251455
9.2 -0.249986
9.21 -0.248346
9.22 -0.246586
9.23 -0.244752
9.24 -0.242883
9.25 -0.241014
9.26 -0.239169
9.27 -0.23736
9.28 -0.235592
9.29 -0.233865
9.3 -0.23217
9.31 -0.23049
9.32 -0.228806
9.33 -0.227095
9.34 -0.225336
9.35 -0.223507
9.36 -0.221588
9.37 -0.219552
9.38 -0.217391
9.39 -0.215101
9.4 -0.212679
9.41 -0.210125
9.42 -0.207447
9.43 -0.204651
9.44 -0.201742
9.45 -0.198744
9.46 -0.195671
9.47 -0.192534
9.48 -0.18934
9.49 -0.186095
9.5 -0.182793
9.51 -0.179426
9.52 -0.17598
9.53 -0.172432
9.54 -0.16875
9.55 -0.164898
9.56 -0.160829
9.57 -0.156461
9.58 -0.151765
9.59 -0.146684
9.6 -0.141161
9.61 -0.135142
9.62 -0.128574
9.63 -0.121372
9.64 -0.113493
9.65 -0.10494
9.66 -0.0956929
9.67 -0.0857411
9.68 -0.0750847
9.69 -0.0637347
9.7 -0.0516392
9.71 -0.0389115
9.72 -0.0255964
9.73 -0.0117451
9.74 0.0025845
9.75 0.0173301
9.76 0.0324403
9.77 0.0478423
9.78 0.0634473
9.79 0.0791914
9.8 0.0950141
9.81 0.11086
9.82 0.126677
9.83 0.142411
9.84 0.158027
9.85 0.173494
9.86 0.188787
9.87 0.203886
9.88 0.218774
9.89 0.233425
9.9 0.247816
9.91 0.26195
9.92 0.275812
9.93 0.289384
9.94 0.302643
9.95 0.315563
9.96 0.328075
9.97 0.340162
9.98 0.35179
9.99 0.362913
10 0.373479
10.01 0.383435
10.02 0.392708
10.03 0.401195
10.04 0.408906
10.05 0.415796
10.06 0.421828
10.07 0.42697
10.08 0.431204
10.09 0.434444
10.1 0.436738
10.11 0.438137
10.12 0.438673
10.13 0.438389
10.14 0.437341
10.15 0.435583
10.16 0.433153
10.17 0.430204
10.18 0.426826
10.19 0.423114
10.2 0.419162
10.21 0.415064
10.22 0.410913
10.23 0.406804
10.24 0.402814
10.25 0.399007
10.26 0.395435
10.27 0.392141
10.28 0.389153
10.29 0.386522
10.3 0.384211
10.31 0.382207
10.32 0.380486
10.33 0.379013
10.34 0.377745
10.35 0.376636
10.36 0.37562
10.37 0.374628
10.38 0.373596
10.39 0.372461
10.4 0.37116
10.41 0.369632
10.42 0.367783
10.43 0.365583
10.44 0.362988
10.45 0.359953
10.46 0.35644
10.47 0.352416
10.48 0.347823
10.49 0.342622
10.5 0.33683
10.51 0.330428
10.52 0.323401
10.53 0.315738
10.54 0.307427
10.55 0.298393
10.56 0.288685
10.57 0.278311
10.58 0.267269
10.59 0.255563
10.6 0.243198
10.61 0.230163
10.62 0.21645
10.63 0.202134
10.64 0.187245
10.65 0.17182
10.66 0.155904
10.67 0.139547
10.68 0.12278
10.69 0.1057
10.7 0.0883895
10.71 0.0709234
10.72 0.0533811
10.73 0.0358427
10.74 0.018393
10.75 0.00113025
10.76 -0.0158818
10.77 -0.0325769
10.78 -0.0488964
10.79 -0.0647918
10.8 -0.0802249
10.81 -0.0951298
10.82 -0.109514
10.83 -0.1234
10.84 -0.136803
10.85 -0.149751
10.86 -0.162284
10.87 -0.174445
10.88 -0.186273
10.89 -0.197867
10.9 -0.209295
10.91 -0.220622
10.92 -0.231914
10.93 -0.24323
10.94 -0.254633
10.95 -0.266166
10.96 -0.277857
10.97 -0.289718
10.98 -0.301753
10.99 -0.313947
11 -0.326271
11.01 -0.338686
11.02 -0.351118
11.03 -0.363493
11.04 -0.375732
11.05 -0.387744
11.06 -0.399434
11.07 -0.410676
11.08 -0.421356
11.09 -0.431409
11.1 -0.440746
11.11 -0.449289
11.12 -0.456972
11.13 -0.463737
11.14 -0.469435
11.15 -0.474136
11.16 -0.477838
11.17 -0.480544
11.18 -0.482274
11.19 -0.483055
11.2 -0.482889
11.21 -0.481811
11.22 -0.479942
11.23 -0.477341
11.24 -0.474068
11.25 -0.470182
11.26 -0.465738
11.27 -0.460739
11.28 -0.455271
11.29 -0.449374
11.3 -0.443069
11.31 -0.436366
11.32 -0.429266
11.33 -0.421744
11.34 -0.41376
11.35 -0.405321
11.36 -0.396394
11.37 -0.386946
11.38 -0.376941
11.39 -0.366344
11.4 -0.355068
11.41 -0.343124
11.42 -0.330516
11.43 -0.317238
11.44 -0.303298
11.45 -0.288715
11.46 -0.273507
11.47 -0.257686
11.48 -0.241371
11.49 -0.224631
11.5 -0.207549
11.51 -0.190215
11.52 -0.172726
11.53 -0.155185
11.54 -0.137714
11.55 -0.120414
11.56 -0.103385
11.57 -0.0867213
11.58 -0.0705073
11.59 -0.0548279
11.6 -0.0398091
11.61 -0.025445
11.62 -0.0117729
11.63 0.00118299
11.64 0.0134113
11.65 0.0249132
11.66 0.0356558
11.67 0.0456782
11.68 0.0550509
11.69 0.0638153
11.7 0.0720175
11.71 0.079707
11.72 0.0869338
11.73 0.0937076
11.74 0.100128
11.75 0.106238
11.76 0.112076
11.77 0.117674
11.78 0.123059
11.79 0.128239
11.8 0.133223
11.81 0.138027
11.82 0.142647
11.83 0.147073
11.84 0.15129
11.85 0.15528
11.86 0.158992
11.87 0.162423
11.88 0.165552
11.89 0.168354
11.9 0.170806
11.91 0.172886
11.92 0.174554
11.93 0.175781
11.94 0.17658
11.95 0.176939
11.96 0.176848
11.97 0.176299
11.98 0.175283
11.99 0.173748
12 0.171722
12.01 0.169207
12.02 0.166193
12.03 0.162669
12.04 0.158622
12.05 0.154018
12.06 0.148807
12.07 0.143013
12.08 0.136615
12.09 0.129587
12.1 0.121906
12.11 0.113548
12.12 0.104429
12.13 0.094566
12.14 0.0839659
12.15 0.0726199
12.16 0.0605258
12.17 0.047689
