# xPDFsuite Configuration #
[PDF]
wavelength = 0.1
dataformat = QA
inputfile = BiMsol6_insitu_700 C-00426.xy
backgroundfile = Quartz2mm-dist500-00000.xy
mode = xray
bgscale = 0.0042
composition = Bi2Fe4O9
outputtype = gr
qmaxinst = 24.998449118
qmin = 0.1
qmax = 21.4986662415
rmax = 80.0
rmin = 0.0
rstep = 0.01
rpoly = 0.9

[Misc]
inputdir = C:/Data/Seafile/CPH/Beamtime/Desy Oct 20/In situ data/Processed/BiMsol6/PDF
savedir = C:/Data/Seafile/CPH/Beamtime/Desy Oct 20/In situ data/PDF/BiMsol6
backgroundfilefull = C:/Data/Seafile/CPH/Beamtime/Desy Oct 20/In situ data/Processed/Standard_Empty_Cap/Quartz2mm-dist500-00000.xy

#### start data
#S 1
#L r($\AA$)  G($\AA^{-2}$)
0 0
0.01 0.00676795
0.02 0.0131559
0.03 0.0188386
0.04 0.0235242
0.05 0.0269673
0.06 0.0289807
0.07 0.0293596
0.08 0.0280433
0.09 0.0251815
0.1 0.0208967
0.11 0.0153799
0.12 0.00888158
0.13 0.00170118
0.14 -0.00582547
0.15 -0.013273
0.16 -0.0202828
0.17 -0.0265182
0.18 -0.0316768
0.19 -0.0355055
0.2 -0.037744
0.21 -0.0382133
0.22 -0.0370138
0.23 -0.0342124
0.24 -0.0299581
0.25 -0.0244772
0.26 -0.0180642
0.27 -0.0110539
0.28 -0.00393226
0.29 0.0028681
0.3 0.00892681
0.31 0.0138436
0.32 0.0172579
0.33 0.0188043
0.34 0.0181244
0.35 0.0152684
0.36 0.0102295
0.37 0.00310973
0.38 -0.00587807
0.39 -0.0164136
0.4 -0.0281264
0.41 -0.0403718
0.42 -0.052516
0.43 -0.0639146
0.44 -0.0738998
0.45 -0.0818054
0.46 -0.0869266
0.47 -0.0883559
0.48 -0.0858895
0.49 -0.0791553
0.5 -0.0679086
0.51 -0.0520467
0.52 -0.03162
0.53 -0.00654818
0.54 0.0225997
0.55 0.0550704
0.56 0.0901647
0.57 0.127063
0.58 0.16485
0.59 0.202524
0.6 0.238813
0.61 0.27271
0.62 0.303207
0.63 0.329357
0.64 0.350309
0.65 0.36533
0.66 0.373409
0.67 0.374129
0.68 0.367672
0.69 0.354043
0.7 0.33344
0.71 0.30625
0.72 0.273038
0.73 0.23402
0.74 0.19076
0.75 0.144274
0.76 0.0956394
0.77 0.0459743
0.78 -0.00359476
0.79 -0.0518506
0.8 -0.0975702
0.81 -0.139922
0.82 -0.178105
0.83 -0.211464
0.84 -0.239504
0.85 -0.261903
0.86 -0.277921
0.87 -0.288148
0.88 -0.292911
0.89 -0.292613
0.9 -0.287792
0.91 -0.279101
0.92 -0.267192
0.93 -0.252897
0.94 -0.237285
0.95 -0.221188
0.96 -0.205403
0.97 -0.190665
0.98 -0.177631
0.99 -0.167104
1 -0.159397
1.01 -0.154724
1.02 -0.153227
1.03 -0.154915
1.04 -0.159672
1.05 -0.167336
1.06 -0.17767
1.07 -0.189989
1.08 -0.203802
1.09 -0.218578
1.1 -0.233777
1.11 -0.248866
1.12 -0.263255
1.13 -0.276469
1.14 -0.288165
1.15 -0.298056
1.16 -0.305944
1.17 -0.311727
1.18 -0.315358
1.19 -0.316772
1.2 -0.316364
1.21 -0.314387
1.22 -0.31115
1.23 -0.307
1.24 -0.302305
1.25 -0.297455
1.26 -0.29286
1.27 -0.288848
1.28 -0.285693
1.29 -0.283608
1.3 -0.282742
1.31 -0.283178
1.32 -0.285042
1.33 -0.288096
1.34 -0.292179
1.35 -0.297074
1.36 -0.302513
1.37 -0.308197
1.38 -0.313779
1.39 -0.318885
1.4 -0.323214
1.41 -0.326488
1.42 -0.328472
1.43 -0.328986
1.44 -0.327914
1.45 -0.325029
1.46 -0.320551
1.47 -0.314608
1.48 -0.307387
1.49 -0.299139
1.5 -0.290164
1.51 -0.280801
1.52 -0.271472
1.53 -0.262575
1.54 -0.254473
1.55 -0.247506
1.56 -0.24197
1.57 -0.23811
1.58 -0.236303
1.59 -0.236491
1.6 -0.238649
1.61 -0.242696
1.62 -0.248473
1.63 -0.255743
1.64 -0.264231
1.65 -0.273556
1.66 -0.28321
1.67 -0.292753
1.68 -0.301736
1.69 -0.309719
1.7 -0.316285
1.71 -0.320869
1.72 -0.323237
1.73 -0.323205
1.74 -0.320623
1.75 -0.315424
1.76 -0.307629
1.77 -0.297292
1.78 -0.284495
1.79 -0.269755
1.8 -0.25343
1.81 -0.235931
1.82 -0.217703
1.83 -0.199217
1.84 -0.180997
1.85 -0.163553
1.86 -0.147294
1.87 -0.13259
1.88 -0.119752
1.89 -0.109019
1.9 -0.100586
1.91 -0.094733
1.92 -0.0911914
1.93 -0.0898465
1.94 -0.0905062
1.95 -0.0929103
1.96 -0.0967418
1.97 -0.101684
1.98 -0.107266
1.99 -0.113033
2 -0.118587
2.01 -0.123551
2.02 -0.127587
2.03 -0.130399
2.04 -0.13158
2.05 -0.131136
2.06 -0.129004
2.07 -0.125199
2.08 -0.119814
2.09 -0.113012
2.1 -0.104978
2.11 -0.0960492
2.12 -0.086641
2.13 -0.0771281
2.14 -0.0679001
2.15 -0.0593469
2.16 -0.0518436
2.17 -0.0459241
2.18 -0.0417718
2.19 -0.0396125
2.2 -0.0396192
2.21 -0.0418949
2.22 -0.0464701
2.23 -0.0533986
2.24 -0.0625939
2.25 -0.0736959
2.26 -0.0864482
2.27 -0.100546
2.28 -0.11565
2.29 -0.131393
2.3 -0.147389
2.31 -0.163203
2.32 -0.178479
2.33 -0.192894
2.34 -0.206168
2.35 -0.218069
2.36 -0.228363
2.37 -0.236849
2.38 -0.243622
2.39 -0.248711
2.4 -0.252202
2.41 -0.254236
2.42 -0.255
2.43 -0.254652
2.44 -0.253542
2.45 -0.251976
2.46 -0.250232
2.47 -0.248585
2.48 -0.24729
2.49 -0.246597
2.5 -0.246779
2.51 -0.247922
2.52 -0.250125
2.53 -0.25344
2.54 -0.257872
2.55 -0.263376
2.56 -0.269934
2.57 -0.277362
2.58 -0.285456
2.59 -0.294028
2.6 -0.302876
2.61 -0.311789
2.62 -0.320555
2.63 -0.328917
2.64 -0.336717
2.65 -0.343799
2.66 -0.350035
2.67 -0.355329
2.68 -0.359615
2.69 -0.362794
2.7 -0.364887
2.71 -0.365984
2.72 -0.366148
2.73 -0.365459
2.74 -0.364014
2.75 -0.361918
2.76 -0.359228
2.77 -0.356119
2.78 -0.352684
2.79 -0.349004
2.8 -0.345137
2.81 -0.341126
2.82 -0.336982
2.83 -0.332698
2.84 -0.328249
2.85 -0.323588
2.86 -0.31865
2.87 -0.313357
2.88 -0.307626
2.89 -0.301303
2.9 -0.294345
2.91 -0.286683
2.92 -0.278252
2.93 -0.269005
2.94 -0.258911
2.95 -0.247926
2.96 -0.236044
2.97 -0.223368
2.98 -0.209962
2.99 -0.195906
3 -0.181296
3.01 -0.16624
3.02 -0.150834
3.03 -0.135234
3.04 -0.119563
3.05 -0.103929
3.06 -0.0884263
3.07 -0.073136
3.08 -0.0581297
3.09 -0.0434674
3.1 -0.0291373
3.11 -0.0151298
3.12 -0.00141419
3.13 0.0120592
3.14 0.0253561
3.15 0.0385541
3.16 0.0517563
3.17 0.0650552
3.18 0.0785373
3.19 0.092281
3.2 0.106352
3.21 0.120808
3.22 0.135707
3.23 0.151011
3.24 0.16669
3.25 0.18269
3.26 0.19893
3.27 0.215305
3.28 0.231676
3.29 0.247876
3.3 0.26374
3.31 0.279097
3.32 0.293775
3.33 0.307601
3.34 0.320404
3.35 0.331906
3.36 0.342098
3.37 0.350883
3.38 0.35819
3.39 0.363984
3.4 0.368257
3.41 0.370947
3.42 0.37214
3.43 0.372014
3.44 0.370695
3.45 0.368329
3.46 0.365086
3.47 0.361146
3.48 0.356665
3.49 0.351912
3.5 0.34708
3.51 0.342354
3.52 0.337904
3.53 0.333886
3.54 0.330473
3.55 0.3278
3.56 0.325914
3.57 0.324875
3.58 0.324719
3.59 0.32546
3.6 0.327089
3.61 0.329666
3.62 0.333064
3.63 0.337215
3.64 0.342052
3.65 0.347505
3.66 0.353501
3.67 0.359986
3.68 0.366896
3.69 0.374135
3.7 0.381649
3.71 0.389392
3.72 0.397326
3.73 0.405419
3.74 0.413659
3.75 0.422016
3.76 0.430472
3.77 0.439011
3.78 0.447621
3.79 0.456281
3.8 0.46497
3.81 0.47365
3.82 0.48228
3.83 0.490809
3.84 0.499177
3.85 0.507315
3.86 0.515143
3.87 0.522535
3.88 0.529402
3.89 0.535659
3.9 0.541204
3.91 0.545935
3.92 0.549752
3.93 0.552542
3.94 0.554117
3.95 0.554504
3.96 0.553639
3.97 0.551469
3.98 0.547957
3.99 0.54308
4 0.536729
4.01 0.528947
4.02 0.519819
4.03 0.509376
4.04 0.497664
4.05 0.484733
4.06 0.470636
4.07 0.455334
4.08 0.439024
4.09 0.421776
4.1 0.403664
4.11 0.38476
4.12 0.365136
4.13 0.344825
4.14 0.323909
4.15 0.30249
4.16 0.280631
4.17 0.258398
4.18 0.235852
4.19 0.213058
4.2 0.190068
4.21 0.166976
4.22 0.143852
4.23 0.120767
4.24 0.0977976
4.25 0.075019
4.26 0.0525266
4.27 0.0304167
4.28 0.00874711
4.29 -0.0124079
4.3 -0.0329784
4.31 -0.0529005
4.32 -0.0721182
4.33 -0.0905042
4.34 -0.108087
4.35 -0.124857
4.36 -0.140809
4.37 -0.155949
4.38 -0.170299
4.39 -0.183866
4.4 -0.196676
4.41 -0.208849
4.42 -0.220454
4.43 -0.231568
4.44 -0.24227
4.45 -0.252641
4.46 -0.262744
4.47 -0.272676
4.48 -0.282508
4.49 -0.292294
4.5 -0.302073
4.51 -0.311871
4.52 -0.321699
4.53 -0.331549
4.54 -0.341392
4.55 -0.351184
4.56 -0.360869
4.57 -0.37038
4.58 -0.379638
4.59 -0.388525
4.6 -0.396955
4.61 -0.404855
4.62 -0.412142
4.63 -0.41874
4.64 -0.424586
4.65 -0.429614
4.66 -0.433717
4.67 -0.436965
4.68 -0.439364
4.69 -0.440942
4.7 -0.441743
4.71 -0.441832
4.72 -0.44125
4.73 -0.440121
4.74 -0.438582
4.75 -0.436749
4.76 -0.434739
4.77 -0.432672
4.78 -0.430665
4.79 -0.428857
4.8 -0.427334
4.81 -0.426179
4.82 -0.425459
4.83 -0.425225
4.84 -0.425508
4.85 -0.426352
4.86 -0.427751
4.87 -0.429647
4.88 -0.431998
4.89 -0.434751
4.9 -0.437839
4.91 -0.441191
4.92 -0.444737
4.93 -0.448371
4.94 -0.452009
4.95 -0.455575
4.96 -0.458997
4.97 -0.46221
4.98 -0.465143
4.99 -0.467736
5 -0.46997
5.01 -0.47182
5.02 -0.473264
5.03 -0.47429
5.04 -0.474889
5.05 -0.475009
5.06 -0.474681
5.07 -0.473903
5.08 -0.472663
5.09 -0.470943
5.1 -0.468718
5.11 -0.465932
5.12 -0.462508
5.13 -0.458438
5.14 -0.453656
5.15 -0.448093
5.16 -0.441673
5.17 -0.434314
5.18 -0.425835
5.19 -0.416208
5.2 -0.405385
5.21 -0.393295
5.22 -0.379879
5.23 -0.365087
5.24 -0.348852
5.25 -0.331057
5.26 -0.311839
5.27 -0.291218
5.28 -0.269237
5.29 -0.245954
5.3 -0.221444
5.31 -0.195717
5.32 -0.168938
5.33 -0.141267
5.34 -0.11283
5.35 -0.0837573
5.36 -0.0541806
5.37 -0.0242286
5.38 0.00597663
5.39 0.0362775
5.4 0.0665596
5.41 0.0967172
5.42 0.126654
5.43 0.156281
5.44 0.185492
5.45 0.214211
5.46 0.242397
5.47 0.269993
5.48 0.296944
5.49 0.323195
5.5 0.348688
5.51 0.373263
5.52 0.396941
5.53 0.419648
5.54 0.4413
5.55 0.461803
5.56 0.481058
5.57 0.498873
5.58 0.515103
5.59 0.529711
5.6 0.542573
5.61 0.553565
5.62 0.56257
5.63 0.569476
5.64 0.573937
5.65 0.576081
5.66 0.575865
5.67 0.573252
5.68 0.568226
5.69 0.560798
5.7 0.550904
5.71 0.538558
5.72 0.524031
5.73 0.507448
5.74 0.488958
5.75 0.46873
5.76 0.446951
5.77 0.42371
5.78 0.399345
5.79 0.374096
5.8 0.348177
5.81 0.321796
5.82 0.295152
5.83 0.268433
5.84 0.241835
5.85 0.215507
5.86 0.189576
5.87 0.164144
5.88 0.139295
5.89 0.115092
5.9 0.0916399
5.91 0.0689292
5.92 0.0469486
5.93 0.025699
5.94 0.00517509
5.95 -0.014631
5.96 -0.0337105
5.97 -0.0520135
5.98 -0.0696001
5.99 -0.0864526
6 -0.102541
6.01 -0.117823
6.02 -0.132241
6.03 -0.145652
6.04 -0.157991
6.05 -0.169207
6.06 -0.179202
6.07 -0.187875
6.08 -0.195127
6.09 -0.200845
6.1 -0.204783
6.11 -0.207035
6.12 -0.207553
6.13 -0.206306
6.14 -0.20329
6.15 -0.198526
6.16 -0.191958
6.17 -0.183696
6.18 -0.173938
6.19 -0.162821
6.2 -0.150503
6.21 -0.137159
6.22 -0.122983
6.23 -0.108132
6.24 -0.0929104
6.25 -0.0775296
6.26 -0.0621971
6.27 -0.0471101
6.28 -0.0324507
6.29 -0.0184211
6.3 -0.00518731
6.31 0.00718373
6.32 0.0186144
6.33 0.0290569
6.34 0.038494
6.35 0.0469378
6.36 0.0543357
6.37 0.0608561
6.38 0.0666058
6.39 0.0716994
6.4 0.0762661
6.41 0.0804452
6.42 0.0843782
6.43 0.0882288
6.44 0.0921545
6.45 0.0962878
6.46 0.100749
6.47 0.105645
6.48 0.111062
6.49 0.11713
6.5 0.123856
6.51 0.131249
6.52 0.139311
6.53 0.148025
6.54 0.157356
6.55 0.16727
6.56 0.177723
6.57 0.188592
6.58 0.199798
6.59 0.211257
6.6 0.222884
6.61 0.234599
6.62 0.246319
6.63 0.257965
6.64 0.269476
6.65 0.280803
6.66 0.291902
6.67 0.302743
6.68 0.313296
6.69 0.323522
6.7 0.333442
6.71 0.343055
6.72 0.352362
6.73 0.361364
6.74 0.370062
6.75 0.378433
6.76 0.386477
6.77 0.394194
6.78 0.401562
6.79 0.408552
6.8 0.415124
6.81 0.421227
6.82 0.426745
6.83 0.431664
6.84 0.435911
6.85 0.439409
6.86 0.442076
6.87 0.443829
6.88 0.444519
6.89 0.444059
6.9 0.442429
6.91 0.439561
6.92 0.435394
6.93 0.429876
6.94 0.422969
6.95 0.414481
6.96 0.404555
6.97 0.3932
6.98 0.380431
6.99 0.366278
7 0.350785
7.01 0.333945
7.02 0.315819
7.03 0.296571
7.04 0.276291
7.05 0.255077
7.06 0.233032
7.07 0.210263
7.08 0.18683
7.09 0.162912
7.1 0.138632
7.11 0.1141
7.12 0.0894241
7.13 0.0647104
7.14 0.0400651
7.15 0.0156013
7.16 -0.00860048
7.17 -0.0324609
7.18 -0.0559079
7.19 -0.0788771
7.2 -0.101312
7.21 -0.123105
7.22 -0.144251
7.23 -0.164734
7.24 -0.184528
7.25 -0.203614
7.26 -0.221981
7.27 -0.2396
7.28 -0.256427
7.29 -0.272528
7.3 -0.287909
7.31 -0.30258
7.32 -0.316551
7.33 -0.329834
7.34 -0.342386
7.35 -0.354254
7.36 -0.365472
7.37 -0.376052
7.38 -0.386004
7.39 -0.395335
7.4 -0.404044
7.41 -0.412085
7.42 -0.419526
7.43 -0.42637
7.44 -0.432622
7.45 -0.438284
7.46 -0.443363
7.47 -0.447824
7.48 -0.45169
7.49 -0.454996
7.5 -0.457756
7.51 -0.459984
7.52 -0.461698
7.53 -0.462915
7.54 -0.463611
7.55 -0.463865
7.56 -0.463703
7.57 -0.463153
7.58 -0.462239
7.59 -0.460989
7.6 -0.459409
7.61 -0.457521
7.62 -0.455361
7.63 -0.452938
7.64 -0.450259
7.65 -0.447323
7.66 -0.444123
7.67 -0.440613
7.68 -0.436803
7.69 -0.432666
7.7 -0.428173
7.71 -0.423292
7.72 -0.417988
7.73 -0.412202
7.74 -0.405885
7.75 -0.399042
7.76 -0.391651
7.77 -0.383695
7.78 -0.375171
7.79 -0.366085
7.8 -0.356404
7.81 -0.346212
7.82 -0.335568
7.83 -0.324536
7.84 -0.313194
7.85 -0.301633
7.86 -0.289953
7.87 -0.278284
7.88 -0.266753
7.89 -0.255483
7.9 -0.2446
7.91 -0.234225
7.92 -0.224475
7.93 -0.215534
7.94 -0.207462
7.95 -0.200316
7.96 -0.194158
7.97 -0.189028
7.98 -0.184951
7.99 -0.181951
8 -0.180072
8.01 -0.179172
8.02 -0.179186
8.03 -0.180032
8.04 -0.181616
8.05 -0.18383
8.06 -0.186591
8.07 -0.189742
8.08 -0.193144
8.09 -0.196682
8.1 -0.200247
8.11 -0.203739
8.12 -0.207071
8.13 -0.210143
8.14 -0.212923
8.15 -0.215379
8.16 -0.217495
8.17 -0.219271
8.18 -0.220725
8.19 -0.221867
8.2 -0.222749
8.21 -0.223432
8.22 -0.223966
8.23 -0.2244
8.24 -0.224779
8.25 -0.225139
8.26 -0.225505
8.27 -0.225885
8.28 -0.226267
8.29 -0.22662
8.3 -0.226895
8.31 -0.227022
8.32 -0.226893
8.33 -0.226382
8.34 -0.225381
8.35 -0.223756
8.36 -0.221364
8.37 -0.218062
8.38 -0.213707
8.39 -0.208018
8.4 -0.200979
8.41 -0.192493
8.42 -0.182473
8.43 -0.170855
8.44 -0.157598
8.45 -0.142618
8.46 -0.125891
8.47 -0.107588
8.48 -0.0877855
8.49 -0.0665837
8.5 -0.0441054
8.51 -0.0204908
8.52 0.00418595
8.53 0.029664
8.54 0.0557568
8.55 0.0822974
8.56 0.109125
8.57 0.136089
8.58 0.163049
8.59 0.189866
8.6 0.216448
8.61 0.242724
8.62 0.268644
8.63 0.294179
8.64 0.31932
8.65 0.344044
8.66 0.368404
8.67 0.392446
8.68 0.416214
8.69 0.439751
8.7 0.463097
8.71 0.486281
8.72 0.509312
8.73 0.532203
8.74 0.554931
8.75 0.57745
8.76 0.599692
8.77 0.621564
8.78 0.642899
8.79 0.663551
8.8 0.683376
8.81 0.702194
8.82 0.719811
8.83 0.736028
8.84 0.750623
8.85 0.763205
8.86 0.773763
8.87 0.782127
8.88 0.788145
8.89 0.791693
8.9 0.792673
8.91 0.790842
8.92 0.786198
8.93 0.778884
8.94 0.768936
8.95 0.756422
8.96 0.741435
8.97 0.724094
8.98 0.7043
8.99 0.682485
9 0.658817
9.01 0.633471
9.02 0.606625
9.03 0.578448
9.04 0.549052
9.05 0.518602
9.06 0.487303
9.07 0.455276
9.08 0.422621
9.09 0.389423
9.1 0.355753
9.11 0.321626
9.12 0.28713
9.13 0.252304
9.14 0.217179
9.15 0.181789
9.16 0.14617
9.17 0.110363
9.18 0.0744326
9.19 0.0384695
9.2 0.00257023
9.21 -0.0331487
9.22 -0.0685505
9.23 -0.103478
9.24 -0.137674
9.25 -0.170968
9.26 -0.203165
9.27 -0.234046
9.28 -0.263386
9.29 -0.290962
9.3 -0.316488
9.31 -0.339613
9.32 -0.360325
9.33 -0.378463
9.34 -0.393892
9.35 -0.406506
9.36 -0.416236
9.37 -0.422796
9.38 -0.426347
9.39 -0.427029
9.4 -0.424919
9.41 -0.42013
9.42 -0.412799
9.43 -0.403045
9.44 -0.390909
9.45 -0.376817
9.46 -0.360975
9.47 -0.343591
9.48 -0.324871
9.49 -0.305012
9.5 -0.284139
9.51 -0.262469
9.52 -0.240186
9.53 -0.21741
9.54 -0.194242
9.55 -0.170757
9.56 -0.147011
9.57 -0.123022
9.58 -0.0988347
9.59 -0.0744546
9.6 -0.0498808
9.61 -0.0251088
9.62 -0.000135212
9.63 0.02505
9.64 0.0504306
9.65 0.0759679
9.66 0.101618
9.67 0.127318
9.68 0.152988
9.69 0.178526
9.7 0.203768
9.71 0.228591
9.72 0.252839
9.73 0.276349
9.74 0.298948
9.75 0.320463
9.76 0.340649
9.77 0.3593
9.78 0.376353
9.79 0.391676
9.8 0.405163
9.81 0.416729
9.82 0.426318
9.83 0.433693
9.84 0.439045
9.85 0.442438
9.86 0.44394
9.87 0.443642
9.88 0.441658
9.89 0.438066
9.9 0.432986
9.91 0.426693
9.92 0.419352
9.93 0.411124
9.94 0.402166
9.95 0.392623
9.96 0.382597
9.97 0.372245
9.98 0.361665
9.99 0.350928
10 0.340078
10.01 0.329141
10.02 0.318116
10.03 0.30698
10.04 0.295703
10.05 0.284241
10.06 0.272537
10.07 0.260533
10.08 0.24817
10.09 0.235354
10.1 0.222054
10.11 0.208251
10.12 0.193928
10.13 0.179084
10.14 0.163736
10.15 0.147913
10.16 0.131646
10.17 0.115058
10.18 0.0982421
10.19 0.0813054
10.2 0.0643641
10.21 0.0475415
10.22 0.030991
10.23 0.0148491
10.24 -0.000777011
10.25 -0.0157779
10.26 -0.0300567
10.27 -0.0435322
10.28 -0.0561347
10.29 -0.0677243
10.3 -0.0783811
10.31 -0.0881098
10.32 -0.096936
10.33 -0.104905
10.34 -0.112079
10.35 -0.1185
10.36 -0.124278
10.37 -0.129554
10.38 -0.134439
10.39 -0.139042
10.4 -0.143473
10.41 -0.147835
10.42 -0.152238
10.43 -0.156773
10.44 -0.161511
10.45 -0.166508
10.46 -0.171807
10.47 -0.177436
10.48 -0.183423
10.49 -0.189773
10.5 -0.196443
10.51 -0.203407
10.52 -0.210629
10.53 -0.218067
10.54 -0.225675
10.55 -0.233414
10.56 -0.241222
10.57 -0.249054
10.58 -0.256875
10.59 -0.264653
10.6 -0.272366
10.61 -0.279994
10.62 -0.287529
10.63 -0.294979
10.64 -0.302356
10.65 -0.309676
10.66 -0.316959
10.67 -0.324231
10.68 -0.33152
10.69 -0.338856
10.7 -0.346259
10.71 -0.353749
10.72 -0.361341
10.73 -0.369043
10.74 -0.376858
10.75 -0.384784
10.76 -0.392797
10.77 -0.400872
10.78 -0.40898
10.79 -0.417086
10.8 -0.425151
10.81 -0.43312
10.82 -0.440947
10.83 -0.448591
10.84 -0.456009
10.85 -0.463161
10.86 -0.470011
10.87 -0.476524
10.88 -0.482642
10.89 -0.488385
10.9 -0.493742
10.91 -0.498711
10.92 -0.503294
10.93 -0.507501
10.94 -0.511318
10.95 -0.514771
10.96 -0.517893
10.97 -0.5207
10.98 -0.523206
10.99 -0.525422
11 -0.527352
11.01 -0.528965
11.02 -0.530287
11.03 -0.531301
11.04 -0.531986
11.05 -0.532315
11.06 -0.53225
11.07 -0.531724
11.08 -0.530684
11.09 -0.529106
11.1 -0.526941
11.11 -0.524139
11.12 -0.520652
11.13 -0.516438
11.14 -0.511371
11.15 -0.505499
11.16 -0.498808
11.17 -0.491288
11.18 -0.482942
11.19 -0.473782
11.2 -0.463795
11.21 -0.453004
11.22 -0.441511
11.23 -0.429372
11.24 -0.416648
11.25 -0.403408
11.26 -0.389724
11.27 -0.37564
11.28 -0.36127
11.29 -0.34669
11.3 -0.331967
11.31 -0.317163
11.32 -0.302331
11.33 -0.287518
11.34 -0.272763
11.35 -0.258086
11.36 -0.243499
11.37 -0.228999
11.38 -0.214577
11.39 -0.200212
11.4 -0.185873
11.41 -0.171517
11.42 -0.157099
11.43 -0.142569
11.44 -0.127879
11.45 -0.112975
11.46 -0.0977996
11.47 -0.0822782
11.48 -0.0663931
11.49 -0.0501076
11.5 -0.0333917
11.51 -0.0162229
11.52 0.00141311
11.53 0.0195584
11.54 0.0381905
11.55 0.057277
11.56 0.0767963
11.57 0.0967196
11.58 0.117011
11.59 0.137634
11.6 0.158561
11.61 0.179709
11.62 0.201026
11.63 0.222457
11.64 0.243949
11.65 0.265447
11.66 0.286892
11.67 0.308227
11.68 0.329408
11.69 0.350388
11.7 0.371125
11.71 0.391578
11.72 0.41171
11.73 0.43144
11.74 0.450772
11.75 0.469672
11.76 0.488109
11.77 0.506048
11.78 0.523457
11.79 0.540264
11.8 0.556424
11.81 0.571929
11.82 0.586736
11.83 0.600799
11.84 0.614066
11.85 0.626486
11.86 0.637896
11.87 0.648324
11.88 0.657715
11.89 0.666009
11.9 0.673143
11.91 0.679055
11.92 0.683629
11.93 0.686758
11.94 0.688487
11.95 0.688769
11.96 0.687561
11.97 0.684832
11.98 0.680556
11.99 0.674564
12 0.666971
12.01 0.657812
12.02 0.647107
12.03 0.634881
12.04 0.621172
12.05 0.605984
12.06 0.589315
12.07 0.571355
12.08 0.552183
12.09 0.531888
12.1 0.510563
12.11 0.488307
12.12 0.465164
12.13 0.441301
12.14 0.416854
12.15 0.391933
12.16 0.366649
12.17 0.341111
12.18 0.315425
12.19 0.289703
12.2 0.264057
12.21 0.238578
12.22 0.213357
12.23 0.188476
12.24 0.164013
12.25 0.140085
12.26 0.116752
