# xPDFsuite Configuration #
[PDF]
wavelength = 0.1
dataformat = QA
inputfile = BiMsol6_insitu_700 C-00598.xy
backgroundfile = Quartz2mm-dist500-00000.xy
mode = xray
bgscale = 0.0042
composition = Bi2Fe4O9
outputtype = gr
qmaxinst = 24.998449118
qmin = 0.1
qmax = 21.4986662415
rmax = 80.0
rmin = 0.0
rstep = 0.01
rpoly = 0.9

[Misc]
inputdir = C:/Data/Seafile/CPH/Beamtime/Desy Oct 20/In situ data/Processed/BiMsol6/PDF
savedir = C:/Data/Seafile/CPH/Beamtime/Desy Oct 20/In situ data/PDF/BiMsol6
backgroundfilefull = C:/Data/Seafile/CPH/Beamtime/Desy Oct 20/In situ data/Processed/Standard_Empty_Cap/Quartz2mm-dist500-00000.xy

#### start data
#S 1
#L r($\AA$)  G($\AA^{-2}$)
0 0
0.01 0.00610862
0.02 0.0118676
0.03 0.016978
0.04 0.0211717
0.05 0.0242239
0.06 0.025964
0.07 0.0262057
0.08 0.0248966
0.09 0.022177
0.1 0.0181631
0.11 0.013034
0.12 0.00702366
0.13 0.000410514
0.14 -0.00649105
0.15 -0.0132908
0.16 -0.019659
0.17 -0.0252873
0.18 -0.0299001
0.19 -0.0332691
0.2 -0.0351602
0.21 -0.0354169
0.22 -0.0341413
0.23 -0.0314045
0.24 -0.0273536
0.25 -0.0222067
0.26 -0.0162444
0.27 -0.00978874
0.28 -0.0032908
0.29 0.00284795
0.3 0.00823866
0.31 0.0125138
0.32 0.0153454
0.33 0.0164028
0.34 0.0153657
0.35 0.0122987
0.36 0.00721207
0.37 0.000218276
0.38 -0.00846684
0.39 -0.0185276
0.4 -0.0295947
0.41 -0.0410559
0.42 -0.0523127
0.43 -0.0627572
0.44 -0.0717634
0.45 -0.0787113
0.46 -0.0829472
0.47 -0.0836291
0.48 -0.0805937
0.49 -0.0735146
0.5 -0.0621878
0.51 -0.0465447
0.52 -0.0266621
0.53 -0.00250242
0.54 0.0253687
0.55 0.05622
0.56 0.0893703
0.57 0.124029
0.58 0.159319
0.59 0.194288
0.6 0.227715
0.61 0.258678
0.62 0.286241
0.63 0.309531
0.64 0.327769
0.65 0.340296
0.66 0.346187
0.67 0.345098
0.68 0.337243
0.69 0.32267
0.7 0.301606
0.71 0.274457
0.72 0.24179
0.73 0.203869
0.74 0.162176
0.75 0.117689
0.76 0.071437
0.77 0.0244798
0.78 -0.0221209
0.79 -0.0672132
0.8 -0.109659
0.81 -0.148713
0.82 -0.183651
0.83 -0.213886
0.84 -0.238989
0.85 -0.258695
0.86 -0.272346
0.87 -0.280545
0.88 -0.283637
0.89 -0.282038
0.9 -0.276284
0.91 -0.267018
0.92 -0.254881
0.93 -0.240681
0.94 -0.225419
0.95 -0.209881
0.96 -0.194814
0.97 -0.180902
0.98 -0.168749
0.99 -0.159106
1 -0.152233
1.01 -0.148309
1.02 -0.147441
1.03 -0.149615
1.04 -0.154699
1.05 -0.162519
1.06 -0.172828
1.07 -0.184967
1.08 -0.19846
1.09 -0.2128
1.1 -0.22747
1.11 -0.241965
1.12 -0.255723
1.13 -0.2683
1.14 -0.27938
1.15 -0.288694
1.16 -0.296061
1.17 -0.301383
1.18 -0.30462
1.19 -0.305703
1.2 -0.305009
1.21 -0.30277
1.22 -0.299272
1.23 -0.294834
1.24 -0.289795
1.25 -0.284502
1.26 -0.279338
1.27 -0.274606
1.28 -0.270559
1.29 -0.267396
1.3 -0.265258
1.31 -0.264227
1.32 -0.264423
1.33 -0.265651
1.34 -0.267781
1.35 -0.270635
1.36 -0.273993
1.37 -0.277607
1.38 -0.281195
1.39 -0.284451
1.4 -0.287126
1.41 -0.288999
1.42 -0.289883
1.43 -0.28964
1.44 -0.288186
1.45 -0.285361
1.46 -0.281347
1.47 -0.276261
1.48 -0.270267
1.49 -0.263578
1.5 -0.256443
1.51 -0.249147
1.52 -0.24203
1.53 -0.235392
1.54 -0.229512
1.55 -0.22464
1.56 -0.220987
1.57 -0.218714
1.58 -0.218081
1.59 -0.218994
1.6 -0.221384
1.61 -0.22514
1.62 -0.230088
1.63 -0.235994
1.64 -0.242589
1.65 -0.249516
1.66 -0.25637
1.67 -0.262785
1.68 -0.2684
1.69 -0.272871
1.7 -0.275883
1.71 -0.276991
1.72 -0.276071
1.73 -0.273036
1.74 -0.26782
1.75 -0.26043
1.76 -0.250946
1.77 -0.239473
1.78 -0.226149
1.79 -0.211436
1.8 -0.19566
1.81 -0.179183
1.82 -0.162383
1.83 -0.14564
1.84 -0.12939
1.85 -0.114004
1.86 -0.0997629
1.87 -0.0869176
1.88 -0.0756595
1.89 -0.0661162
1.9 -0.0583735
1.91 -0.0525677
1.92 -0.0484235
1.93 -0.0457879
1.94 -0.0444556
1.95 -0.0441792
1.96 -0.0446801
1.97 -0.045672
1.98 -0.0468004
1.99 -0.0477547
2 -0.0482703
2.01 -0.0481196
2.02 -0.0471217
2.03 -0.0451466
2.04 -0.0420155
2.05 -0.0378594
2.06 -0.0327617
2.07 -0.0268685
2.08 -0.0203835
2.09 -0.0135606
2.1 -0.00671138
2.11 -0.000214821
2.12 0.00558565
2.13 0.0103465
2.14 0.0137377
2.15 0.0154558
2.16 0.0152356
2.17 0.012608
2.18 0.00763268
2.19 0.000253121
2.2 -0.00953278
2.21 -0.0216554
2.22 -0.0359749
2.23 -0.0523621
2.24 -0.0705479
2.25 -0.0900612
2.26 -0.110532
2.27 -0.131566
2.28 -0.152753
2.29 -0.173685
2.3 -0.193862
2.31 -0.212931
2.32 -0.230585
2.33 -0.24655
2.34 -0.260614
2.35 -0.272623
2.36 -0.282419
2.37 -0.289888
2.38 -0.295272
2.39 -0.298701
2.4 -0.300354
2.41 -0.30046
2.42 -0.299285
2.43 -0.297063
2.44 -0.294199
2.45 -0.291032
2.46 -0.287864
2.47 -0.284977
2.48 -0.282624
2.49 -0.281043
2.5 -0.280488
2.51 -0.280998
2.52 -0.282634
2.53 -0.285408
2.54 -0.289283
2.55 -0.294178
2.56 -0.300028
2.57 -0.306621
2.58 -0.313737
2.59 -0.321172
2.6 -0.328721
2.61 -0.336174
2.62 -0.343328
2.63 -0.349936
2.64 -0.355879
2.65 -0.361033
2.66 -0.365306
2.67 -0.368635
2.68 -0.370996
2.69 -0.372336
2.7 -0.372715
2.71 -0.372254
2.72 -0.371047
2.73 -0.369205
2.74 -0.366848
2.75 -0.364102
2.76 -0.361079
2.77 -0.357938
2.78 -0.354788
2.79 -0.351721
2.8 -0.348811
2.81 -0.346113
2.82 -0.343677
2.83 -0.341517
2.84 -0.339606
2.85 -0.337919
2.86 -0.336413
2.87 -0.335037
2.88 -0.333729
2.89 -0.332421
2.9 -0.331041
2.91 -0.329529
2.92 -0.32783
2.93 -0.325898
2.94 -0.323696
2.95 -0.321184
2.96 -0.318332
2.97 -0.315155
2.98 -0.311654
2.99 -0.307829
3 -0.303687
3.01 -0.299228
3.02 -0.294418
3.03 -0.289266
3.04 -0.283753
3.05 -0.277842
3.06 -0.271478
3.07 -0.264591
3.08 -0.257075
3.09 -0.248776
3.1 -0.239634
3.11 -0.229524
3.12 -0.218318
3.13 -0.205886
3.14 -0.192104
3.15 -0.176722
3.16 -0.159706
3.17 -0.141026
3.18 -0.120633
3.19 -0.0985035
3.2 -0.0746494
3.21 -0.0490831
3.22 -0.0217819
3.23 0.00696464
3.24 0.0369922
3.25 0.0681032
3.26 0.10007
3.27 0.13264
3.28 0.165541
3.29 0.198433
3.3 0.231004
3.31 0.262954
3.32 0.29399
3.33 0.323832
3.34 0.352198
3.35 0.378656
3.36 0.403165
3.37 0.425552
3.38 0.445678
3.39 0.463442
3.4 0.478776
3.41 0.491495
3.42 0.501627
3.43 0.509345
3.44 0.514717
3.45 0.517832
3.46 0.518798
3.47 0.517736
3.48 0.514575
3.49 0.509682
3.5 0.503198
3.51 0.49526
3.52 0.485998
3.53 0.475537
3.54 0.463945
3.55 0.451331
3.56 0.437863
3.57 0.423631
3.58 0.408721
3.59 0.393214
3.6 0.37719
3.61 0.360692
3.62 0.343851
3.63 0.326762
3.64 0.30952
3.65 0.292228
3.66 0.274994
3.67 0.257953
3.68 0.24126
3.69 0.225035
3.7 0.209418
3.71 0.194551
3.72 0.180574
3.73 0.167628
3.74 0.155965
3.75 0.145638
3.76 0.13673
3.77 0.129331
3.78 0.123517
3.79 0.119345
3.8 0.116899
3.81 0.116294
3.82 0.11737
3.83 0.120096
3.84 0.124424
3.85 0.130288
3.86 0.137608
3.87 0.146397
3.88 0.156477
3.89 0.167694
3.9 0.179941
3.91 0.193108
3.92 0.207092
3.93 0.221804
3.94 0.237188
3.95 0.253091
3.96 0.269436
3.97 0.286153
3.98 0.303177
3.99 0.320449
4 0.337923
4.01 0.355532
4.02 0.37321
4.03 0.390899
4.04 0.408532
4.05 0.426037
4.06 0.44333
4.07 0.460277
4.08 0.476798
4.09 0.49278
4.1 0.5081
4.11 0.522626
4.12 0.536224
4.13 0.548681
4.14 0.559841
4.15 0.56963
4.16 0.577923
4.17 0.584603
4.18 0.589567
4.19 0.592731
4.2 0.593811
4.21 0.592967
4.22 0.590191
4.23 0.585491
4.24 0.578899
4.25 0.570467
4.26 0.560188
4.27 0.548141
4.28 0.534556
4.29 0.519558
4.3 0.503276
4.31 0.485847
4.32 0.467404
4.33 0.448003
4.34 0.427855
4.35 0.407084
4.36 0.385788
4.37 0.364048
4.38 0.341932
4.39 0.31948
4.4 0.296719
4.41 0.273692
4.42 0.250406
4.43 0.226859
4.44 0.203043
4.45 0.178947
4.46 0.154535
4.47 0.129821
4.48 0.104816
4.49 0.0795365
4.5 0.0540102
4.51 0.0282807
4.52 0.00240545
4.53 -0.0235324
4.54 -0.0494259
4.55 -0.0751664
4.56 -0.100633
4.57 -0.125697
4.58 -0.150223
4.59 -0.174008
4.6 -0.196928
4.61 -0.218881
4.62 -0.23975
4.63 -0.259432
4.64 -0.27784
4.65 -0.294885
4.66 -0.310402
4.67 -0.324513
4.68 -0.337226
4.69 -0.348572
4.7 -0.358604
4.71 -0.367395
4.72 -0.374963
4.73 -0.381452
4.74 -0.387034
4.75 -0.391833
4.76 -0.395971
4.77 -0.399573
4.78 -0.402752
4.79 -0.405597
4.8 -0.408244
4.81 -0.410771
4.82 -0.413243
4.83 -0.415706
4.84 -0.418188
4.85 -0.420708
4.86 -0.423261
4.87 -0.425828
4.88 -0.428382
4.89 -0.430888
4.9 -0.433306
4.91 -0.435593
4.92 -0.437682
4.93 -0.439549
4.94 -0.44116
4.95 -0.442488
4.96 -0.443512
4.97 -0.44422
4.98 -0.444592
4.99 -0.444624
5 -0.444349
5.01 -0.443779
5.02 -0.442931
5.03 -0.44182
5.04 -0.440461
5.05 -0.43884
5.06 -0.436979
5.07 -0.434876
5.08 -0.432519
5.09 -0.429882
5.1 -0.426933
5.11 -0.423617
5.12 -0.419859
5.13 -0.415634
5.14 -0.410884
5.15 -0.405553
5.16 -0.399587
5.17 -0.392939
5.18 -0.385505
5.19 -0.377303
5.2 -0.368349
5.21 -0.358655
5.22 -0.348254
5.23 -0.337199
5.24 -0.325551
5.25 -0.313385
5.26 -0.300869
5.27 -0.288133
5.28 -0.275321
5.29 -0.262584
5.3 -0.250077
5.31 -0.237996
5.32 -0.226496
5.33 -0.215696
5.34 -0.205718
5.35 -0.196663
5.36 -0.18861
5.37 -0.18163
5.38 -0.175847
5.39 -0.171142
5.4 -0.167482
5.41 -0.164803
5.42 -0.163023
5.43 -0.162036
5.44 -0.161754
5.45 -0.162013
5.46 -0.162635
5.47 -0.163476
5.48 -0.164398
5.49 -0.165268
5.5 -0.165969
5.51 -0.166361
5.52 -0.16639
5.53 -0.166006
5.54 -0.165182
5.55 -0.163913
5.56 -0.16222
5.57 -0.160124
5.58 -0.157692
5.59 -0.155024
5.6 -0.152202
5.61 -0.149313
5.62 -0.146445
5.63 -0.143676
5.64 -0.141098
5.65 -0.138749
5.66 -0.136656
5.67 -0.134822
5.68 -0.133229
5.69 -0.131831
5.7 -0.130561
5.71 -0.12931
5.72 -0.127952
5.73 -0.126355
5.74 -0.124373
5.75 -0.121857
5.76 -0.118657
5.77 -0.114535
5.78 -0.109411
5.79 -0.103193
5.8 -0.0957954
5.81 -0.0871614
5.82 -0.0772649
5.83 -0.0660736
5.84 -0.0535784
5.85 -0.0399704
5.86 -0.0253673
5.87 -0.00991644
5.88 0.00620998
5.89 0.0228195
5.9 0.0397098
5.91 0.0566235
5.92 0.0733372
5.93 0.089643
5.94 0.105347
5.95 0.120273
5.96 0.13425
5.97 0.14707
5.98 0.158745
5.99 0.169234
6 0.17853
6.01 0.186661
6.02 0.19369
6.03 0.199641
6.04 0.204684
6.05 0.209001
6.06 0.212748
6.07 0.216083
6.08 0.219164
6.09 0.222144
6.1 0.225178
6.11 0.228385
6.12 0.231851
6.13 0.235634
6.14 0.239759
6.15 0.244219
6.16 0.248988
6.17 0.253976
6.18 0.25906
6.19 0.264109
6.2 0.268972
6.21 0.273486
6.22 0.277479
6.23 0.280678
6.24 0.282985
6.25 0.284248
6.26 0.284336
6.27 0.283142
6.28 0.280585
6.29 0.27654
6.3 0.270977
6.31 0.264012
6.32 0.255704
6.33 0.24614
6.34 0.235434
6.35 0.223723
6.36 0.21109
6.37 0.197802
6.38 0.184041
6.39 0.169982
6.4 0.155791
6.41 0.141621
6.42 0.12762
6.43 0.113927
6.44 0.100612
6.45 0.0877313
6.46 0.0753146
6.47 0.0633638
6.48 0.0518547
6.49 0.0407705
6.5 0.0300036
6.51 0.0194576
6.52 0.00903473
6.53 -0.00136809
6.54 -0.0118537
6.55 -0.0225284
6.56 -0.0335049
6.57 -0.0448349
6.58 -0.0565679
6.59 -0.0687317
6.6 -0.0813308
6.61 -0.094345
6.62 -0.107755
6.63 -0.121463
6.64 -0.13536
6.65 -0.149337
6.66 -0.163266
6.67 -0.177011
6.68 -0.190422
6.69 -0.203302
6.7 -0.215547
6.71 -0.22703
6.72 -0.237634
6.73 -0.247259
6.74 -0.255824
6.75 -0.263183
6.76 -0.269324
6.77 -0.274282
6.78 -0.278064
6.79 -0.280692
6.8 -0.282207
6.81 -0.28265
6.82 -0.281992
6.83 -0.280413
6.84 -0.277982
6.85 -0.274764
6.86 -0.270819
6.87 -0.266196
6.88 -0.260895
6.89 -0.254947
6.9 -0.248391
6.91 -0.241219
6.92 -0.233405
6.93 -0.224911
6.94 -0.215687
6.95 -0.205576
6.96 -0.194593
6.97 -0.18267
6.98 -0.16974
6.99 -0.155738
7 -0.14061
7.01 -0.12425
7.02 -0.106607
7.03 -0.08775
7.04 -0.0676895
7.05 -0.0464548
7.06 -0.0240954
7.07 -0.000680238
7.08 0.0237919
7.09 0.0491154
7.1 0.0751534
7.11 0.10177
7.12 0.128822
7.13 0.156159
7.14 0.183625
7.15 0.211048
7.16 0.238269
7.17 0.265148
7.18 0.291552
7.19 0.317358
7.2 0.342454
7.21 0.36666
7.22 0.389934
7.23 0.412226
7.24 0.433476
7.25 0.453633
7.26 0.472655
7.27 0.490473
7.28 0.506979
7.29 0.522252
7.3 0.536266
7.31 0.548993
7.32 0.560407
7.33 0.570476
7.34 0.579053
7.35 0.586157
7.36 0.591798
7.37 0.595933
7.38 0.598519
7.39 0.599514
7.4 0.598849
7.41 0.596343
7.42 0.592132
7.43 0.586194
7.44 0.578518
7.45 0.569102
7.46 0.557958
7.47 0.544994
7.48 0.530296
7.49 0.514001
7.5 0.496179
7.51 0.476914
7.52 0.456303
7.53 0.434447
7.54 0.411363
7.55 0.387313
7.56 0.362433
7.57 0.336862
7.58 0.310741
7.59 0.284214
7.6 0.257416
7.61 0.23051
7.62 0.203646
7.63 0.176957
7.64 0.150568
7.65 0.124603
7.66 0.0991751
7.67 0.0744789
7.68 0.050557
7.69 0.027501
7.7 0.00539985
7.71 -0.0156639
7.72 -0.0356139
7.73 -0.0543207
7.74 -0.0716861
7.75 -0.0877392
7.76 -0.102434
7.77 -0.115734
7.78 -0.12761
7.79 -0.138044
7.8 -0.146886
7.81 -0.154263
7.82 -0.160221
7.83 -0.164793
7.84 -0.168025
7.85 -0.169977
7.86 -0.170679
7.87 -0.17018
7.88 -0.168673
7.89 -0.166263
7.9 -0.163063
7.91 -0.15919
7.92 -0.154764
7.93 -0.149875
7.94 -0.14468
7.95 -0.139299
7.96 -0.133832
7.97 -0.128367
7.98 -0.12298
7.99 -0.117736
8 -0.112698
8.01 -0.107876
8.02 -0.10328
8.03 -0.0989005
8.04 -0.0947185
8.05 -0.0907003
8.06 -0.0868077
8.07 -0.0829774
8.08 -0.0791493
8.09 -0.075267
8.1 -0.0712771
8.11 -0.067132
8.12 -0.0627898
8.13 -0.0582014
8.14 -0.0533775
8.15 -0.048323
8.16 -0.043059
8.17 -0.0376225
8.18 -0.0320657
8.19 -0.0264568
8.2 -0.020888
8.21 -0.0154512
8.22 -0.0102411
8.23 -0.00535459
8.24 -0.000886168
8.25 0.00307321
8.26 0.00637159
8.27 0.00900652
8.28 0.0109329
8.29 0.0121248
8.3 0.0125776
8.31 0.0123084
8.32 0.0113218
8.33 0.0096888
8.34 0.0075363
8.35 0.00496703
8.36 0.00209719
8.37 -0.000947455
8.38 -0.0040358
8.39 -0.00701238
8.4 -0.00974742
8.41 -0.0121266
8.42 -0.0140495
8.43 -0.0154346
8.44 -0.0162226
8.45 -0.0163499
8.46 -0.0157948
8.47 -0.0146307
8.48 -0.0129122
8.49 -0.0107203
8.5 -0.0081592
8.51 -0.00535373
8.52 -0.00245024
8.53 0.000371529
8.54 0.00294956
8.55 0.00512391
8.56 0.00674052
8.57 0.00765652
8.58 0.00771307
8.59 0.00674754
8.6 0.00475626
8.61 0.00169333
8.62 -0.00245738
8.63 -0.00768166
8.64 -0.0139353
8.65 -0.0212202
8.66 -0.0293662
8.67 -0.0382183
8.68 -0.0476324
8.69 -0.0574527
8.7 -0.0675163
8.71 -0.0776569
8.72 -0.0876892
8.73 -0.0974622
8.74 -0.106845
8.75 -0.115728
8.76 -0.124023
8.77 -0.13167
8.78 -0.13858
8.79 -0.144775
8.8 -0.150311
8.81 -0.15524
8.82 -0.159636
8.83 -0.163589
8.84 -0.167203
8.85 -0.170586
8.86 -0.17389
8.87 -0.177229
8.88 -0.180711
8.89 -0.184431
8.9 -0.188467
8.91 -0.192904
8.92 -0.197776
8.93 -0.203066
8.94 -0.208755
8.95 -0.2148
8.96 -0.221133
8.97 -0.22767
8.98 -0.234304
8.99 -0.240896
9 -0.247321
9.01 -0.253452
9.02 -0.259164
9.03 -0.26434
9.04 -0.268837
9.05 -0.27255
9.06 -0.275456
9.07 -0.277515
9.08 -0.278712
9.09 -0.279055
9.1 -0.278578
9.11 -0.277262
9.12 -0.275269
9.13 -0.272707
9.14 -0.269685
9.15 -0.266323
9.16 -0.262746
9.17 -0.259076
9.18 -0.255449
9.19 -0.251973
9.2 -0.24874
9.21 -0.24582
9.22 -0.243267
9.23 -0.241112
9.24 -0.2394
9.25 -0.238083
9.26 -0.237113
9.27 -0.236433
9.28 -0.235971
9.29 -0.235643
9.3 -0.235356
9.31 -0.234999
9.32 -0.234477
9.33 -0.233704
9.34 -0.232603
9.35 -0.23111
9.36 -0.229179
9.37 -0.226741
9.38 -0.223813
9.39 -0.220426
9.4 -0.216616
9.41 -0.212435
9.42 -0.20795
9.43 -0.203238
9.44 -0.198389
9.45 -0.193517
9.46 -0.188712
9.47 -0.184061
9.48 -0.179641
9.49 -0.175515
9.5 -0.171757
9.51 -0.168384
9.52 -0.165378
9.53 -0.162718
9.54 -0.160356
9.55 -0.158224
9.56 -0.156232
9.57 -0.154263
9.58 -0.152177
9.59 -0.149841
9.6 -0.147115
9.61 -0.143859
9.62 -0.139936
9.63 -0.135162
9.64 -0.129415
9.65 -0.122646
9.66 -0.114787
9.67 -0.105789
9.68 -0.09563
9.69 -0.084315
9.7 -0.0717497
9.71 -0.0581268
9.72 -0.0435316
9.73 -0.028067
9.74 -0.0118517
9.75 0.0049829
9.76 0.0223146
9.77 0.0399833
9.78 0.0578176
9.79 0.0756821
9.8 0.0934508
9.81 0.111011
9.82 0.128264
9.83 0.145084
9.84 0.161441
9.85 0.177304
9.86 0.192652
9.87 0.207485
9.88 0.221815
9.89 0.23565
9.9 0.249017
9.91 0.261994
9.92 0.274626
9.93 0.286959
9.94 0.29903
9.95 0.310873
9.96 0.322491
9.97 0.333909
9.98 0.345124
9.99 0.356115
10 0.366851
10.01 0.377282
10.02 0.38734
10.03 0.396922
10.04 0.405985
10.05 0.414452
10.06 0.422245
10.07 0.429291
10.08 0.435523
10.09 0.440808
10.1 0.445141
10.11 0.448527
10.12 0.450959
10.13 0.452448
10.14 0.453021
10.15 0.452712
10.16 0.451529
10.17 0.449641
10.18 0.447145
10.19 0.444144
10.2 0.440753
10.21 0.437086
10.22 0.433256
10.23 0.429395
10.24 0.42561
10.25 0.421995
10.26 0.418628
10.27 0.415571
10.28 0.412874
10.29 0.410607
10.3 0.408734
10.31 0.407241
10.32 0.4061
10.33 0.405264
10.34 0.404674
10.35 0.404267
10.36 0.403949
10.37 0.403623
10.38 0.403202
10.39 0.402596
10.4 0.401718
10.41 0.400488
10.42 0.398774
10.43 0.396552
10.44 0.39377
10.45 0.390382
10.46 0.386356
10.47 0.381667
10.48 0.376268
10.49 0.370142
10.5 0.363337
10.51 0.355863
10.52 0.347735
10.53 0.33897
10.54 0.329585
10.55 0.319542
10.56 0.308914
10.57 0.297726
10.58 0.285994
10.59 0.273733
10.6 0.260956
10.61 0.247654
10.62 0.233822
10.63 0.21951
10.64 0.204734
10.65 0.18951
10.66 0.17386
10.67 0.157807
10.68 0.141354
10.69 0.124567
10.7 0.1075
10.71 0.0902034
10.72 0.0727342
10.73 0.0551535
10.74 0.0375269
10.75 0.0199323
10.76 0.00244127
10.77 -0.0148793
10.78 -0.0319654
10.79 -0.0487579
10.8 -0.0652045
10.81 -0.0812265
10.82 -0.0968029
10.83 -0.111927
10.84 -0.126589
10.85 -0.140789
10.86 -0.154541
10.87 -0.167862
10.88 -0.180756
10.89 -0.193309
10.9 -0.205569
10.91 -0.21759
10.92 -0.229426
10.93 -0.241131
10.94 -0.252752
10.95 -0.264343
10.96 -0.275943
10.97 -0.287576
10.98 -0.299259
10.99 -0.310994
11 -0.322771
11.01 -0.334565
11.02 -0.346334
11.03 -0.358028
11.04 -0.369586
11.05 -0.380943
11.06 -0.392022
11.07 -0.402721
11.08 -0.412946
11.09 -0.42264
11.1 -0.431729
11.11 -0.440143
11.12 -0.44782
11.13 -0.454708
11.14 -0.460671
11.15 -0.465763
11.16 -0.469975
11.17 -0.473302
11.18 -0.475753
11.19 -0.477344
11.2 -0.478064
11.21 -0.477932
11.22 -0.477046
11.23 -0.475449
11.24 -0.473181
11.25 -0.470285
11.26 -0.466798
11.27 -0.462702
11.28 -0.458069
11.29 -0.452929
11.3 -0.447292
11.31 -0.44116
11.32 -0.434529
11.33 -0.427369
11.34 -0.419636
11.35 -0.41135
11.36 -0.402487
11.37 -0.393023
11.38 -0.382937
11.39 -0.372209
11.4 -0.360769
11.41 -0.348651
11.42 -0.33588
11.43 -0.322471
11.44 -0.308451
11.45 -0.293857
11.46 -0.278726
11.47 -0.263093
11.48 -0.247077
11.49 -0.230755
11.5 -0.214212
11.51 -0.197534
11.52 -0.180812
11.53 -0.164146
11.54 -0.147634
11.55 -0.131356
11.56 -0.115386
11.57 -0.0997935
11.58 -0.084636
11.59 -0.0699688
11.6 -0.0558801
11.61 -0.0423424
11.62 -0.029369
11.63 -0.0169632
11.64 -0.00511995
11.65 0.00617371
11.66 0.0169032
11.67 0.0271038
11.68 0.0368291
11.69 0.0461062
11.7 0.0549613
11.71 0.0634186
11.72 0.0714977
11.73 0.0791755
11.74 0.0865045
11.75 0.0934893
11.76 0.100129
11.77 0.106418
11.78 0.112348
11.79 0.117883
11.8 0.123003
11.81 0.127718
11.82 0.13201
11.83 0.135869
11.84 0.139283
11.85 0.142249
11.86 0.144716
11.87 0.146737
11.88 0.148327
11.89 0.149503
11.9 0.150288
11.91 0.150709
11.92 0.150781
11.93 0.15053
11.94 0.150011
11.95 0.149252
11.96 0.148277
11.97 0.147105
11.98 0.145747
11.99 0.144189
12 0.142435
12.01 0.140469
12.02 0.138262
12.03 0.135773
12.04 0.132952
12.05 0.129724
12.06 0.125991
12.07 0.121714
12.08 0.116817
12.09 0.111225
12.1 0.104865
12.11 0.0976698
12.12 0.0894977
12.13 0.0803441
12.14 0.0702042
12.15 0.0590602
12.16 0.0469114
12.17 0.0337745
12.18 0.0196658
