# xPDFsuite Configuration #
[PDF]
wavelength = 0.1
dataformat = QA
inputfile = BiMsol6_insitu_700 C-00094.xy
backgroundfile = Quartz2mm-dist500-00000.xy
mode = xray
bgscale = 0.0042
composition = Bi2Fe4O9
outputtype = gr
qmaxinst = 24.998449118
qmin = 0.1
qmax = 21.4986662415
rmax = 80.0
rmin = 0.0
rstep = 0.01
rpoly = 0.9

[Misc]
inputdir = C:/Data/Seafile/CPH/Beamtime/Desy Oct 20/In situ data/Processed/BiMsol6/PDF
savedir = C:/Data/Seafile/CPH/Beamtime/Desy Oct 20/In situ data/PDF/BiMsol6
backgroundfilefull = C:/Data/Seafile/CPH/Beamtime/Desy Oct 20/In situ data/Processed/Standard_Empty_Cap/Quartz2mm-dist500-00000.xy

#### start data
#S 1
#L r($\AA$)  G($\AA^{-2}$)
0 0
0.01 0.00676217
0.02 0.0131487
0.03 0.0188381
0.04 0.0235416
0.05 0.0270164
0.06 0.0290769
0.07 0.0295198
0.08 0.0282842
0.09 0.0255169
0.1 0.021338
0.11 0.0159348
0.12 0.00955378
0.13 0.00248977
0.14 -0.00492739
0.15 -0.012277
0.16 -0.0192046
0.17 -0.0253771
0.18 -0.0304948
0.19 -0.0343059
0.2 -0.0365511
0.21 -0.0370504
0.22 -0.0358988
0.23 -0.0331584
0.24 -0.0289718
0.25 -0.0235577
0.26 -0.0172021
0.27 -0.0102279
0.28 -0.00311196
0.29 0.00372181
0.3 0.0098614
0.31 0.0149137
0.32 0.0185236
0.33 0.0203311
0.34 0.019982
0.35 0.0175183
0.36 0.0129275
0.37 0.00630293
0.38 -0.00215461
0.39 -0.0121397
0.4 -0.0233012
0.41 -0.0350174
0.42 -0.046677
0.43 -0.0576591
0.44 -0.0673202
0.45 -0.075018
0.46 -0.0800735
0.47 -0.0816154
0.48 -0.0794437
0.49 -0.0732006
0.5 -0.0626516
0.51 -0.0476997
0.52 -0.0283955
0.53 -0.00466842
0.54 0.0229315
0.55 0.0536775
0.56 0.0868933
0.57 0.121787
0.58 0.157475
0.59 0.192991
0.6 0.227106
0.61 0.258858
0.62 0.28728
0.63 0.311469
0.64 0.33061
0.65 0.34401
0.66 0.350705
0.67 0.350311
0.68 0.343018
0.69 0.328849
0.7 0.30801
0.71 0.280892
0.72 0.248055
0.73 0.209735
0.74 0.167445
0.75 0.122174
0.76 0.0749688
0.77 0.0269143
0.78 -0.0209004
0.79 -0.0672946
0.8 -0.111091
0.81 -0.151503
0.82 -0.18777
0.83 -0.21927
0.84 -0.245541
0.85 -0.266287
0.86 -0.280805
0.87 -0.289687
0.88 -0.293267
0.89 -0.291948
0.9 -0.286263
0.91 -0.276852
0.92 -0.264353
0.93 -0.249577
0.94 -0.233557
0.95 -0.217093
0.96 -0.200952
0.97 -0.185838
0.98 -0.172376
0.99 -0.16133
1 -0.152989
1.01 -0.147551
1.02 -0.145141
1.03 -0.145759
1.04 -0.149284
1.05 -0.155554
1.06 -0.164333
1.07 -0.174969
1.08 -0.186992
1.09 -0.1999
1.1 -0.213185
1.11 -0.226349
1.12 -0.238843
1.13 -0.250235
1.14 -0.260218
1.15 -0.268539
1.16 -0.275032
1.17 -0.279622
1.18 -0.282289
1.19 -0.283002
1.2 -0.282143
1.21 -0.279962
1.22 -0.27676
1.23 -0.272869
1.24 -0.268634
1.25 -0.264426
1.26 -0.26061
1.27 -0.257466
1.28 -0.255223
1.29 -0.25405
1.3 -0.25405
1.31 -0.25526
1.32 -0.257744
1.33 -0.261238
1.34 -0.26555
1.35 -0.270434
1.36 -0.275606
1.37 -0.280754
1.38 -0.285515
1.39 -0.289521
1.4 -0.292506
1.41 -0.294214
1.42 -0.294444
1.43 -0.293052
1.44 -0.289967
1.45 -0.285008
1.46 -0.278455
1.47 -0.270489
1.48 -0.261348
1.49 -0.251329
1.5 -0.240777
1.51 -0.230084
1.52 -0.219713
1.53 -0.21007
1.54 -0.201533
1.55 -0.194447
1.56 -0.189108
1.57 -0.185749
1.58 -0.184752
1.59 -0.186006
1.6 -0.189442
1.61 -0.194938
1.62 -0.202288
1.63 -0.211205
1.64 -0.221361
1.65 -0.232313
1.66 -0.243502
1.67 -0.25444
1.68 -0.264634
1.69 -0.273605
1.7 -0.280905
1.71 -0.285914
1.72 -0.288395
1.73 -0.288166
1.74 -0.285072
1.75 -0.279053
1.76 -0.270141
1.77 -0.258401
1.78 -0.243923
1.79 -0.227277
1.8 -0.208852
1.81 -0.189089
1.82 -0.168464
1.83 -0.147477
1.84 -0.12668
1.85 -0.106611
1.86 -0.0877038
1.87 -0.0703469
1.88 -0.0548632
1.89 -0.0415004
1.9 -0.0304579
1.91 -0.0220179
1.92 -0.0159078
1.93 -0.0120077
1.94 -0.0101195
1.95 -0.00997746
1.96 -0.0112597
1.97 -0.0136463
1.98 -0.0166685
1.99 -0.0198774
2 -0.0228858
2.01 -0.0253343
2.02 -0.0269064
2.03 -0.0273362
2.04 -0.0262687
2.05 -0.0237408
2.06 -0.0197353
2.07 -0.0143163
2.08 -0.00762719
2.09 0.000114859
2.1 0.00865049
2.11 0.0175842
2.12 0.0264842
2.13 0.0349397
2.14 0.0425337
2.15 0.0488584
2.16 0.0535315
2.17 0.0559603
2.18 0.0560438
2.19 0.0535943
2.2 0.0484856
2.21 0.0406734
2.22 0.0301976
2.23 0.0170766
2.24 0.00149567
2.25 -0.0160681
2.26 -0.035256
2.27 -0.0556595
2.28 -0.0768345
2.29 -0.0983154
2.3 -0.119568
2.31 -0.140098
2.32 -0.159482
2.33 -0.177336
2.34 -0.193331
2.35 -0.207204
2.36 -0.218676
2.37 -0.227511
2.38 -0.233888
2.39 -0.237869
2.4 -0.239591
2.41 -0.239257
2.42 -0.237126
2.43 -0.233408
2.44 -0.228579
2.45 -0.22305
2.46 -0.217196
2.47 -0.21138
2.48 -0.205948
2.49 -0.201235
2.5 -0.197607
2.51 -0.195198
2.52 -0.194154
2.53 -0.194562
2.54 -0.196445
2.55 -0.199768
2.56 -0.20453
2.57 -0.210513
2.58 -0.217465
2.59 -0.225159
2.6 -0.233342
2.61 -0.241751
2.62 -0.250118
2.63 -0.258128
2.64 -0.265558
2.65 -0.272204
2.66 -0.277895
2.67 -0.2825
2.68 -0.285931
2.69 -0.288064
2.7 -0.288921
2.71 -0.288615
2.72 -0.287234
2.73 -0.284896
2.74 -0.281743
2.75 -0.277935
2.76 -0.273604
2.77 -0.268995
2.78 -0.264272
2.79 -0.259585
2.8 -0.255064
2.81 -0.250817
2.82 -0.246944
2.83 -0.243502
2.84 -0.240478
2.85 -0.237854
2.86 -0.235586
2.87 -0.233603
2.88 -0.231817
2.89 -0.230126
2.9 -0.228394
2.91 -0.226509
2.92 -0.224361
2.93 -0.221848
2.94 -0.218886
2.95 -0.215382
2.96 -0.211268
2.97 -0.206565
2.98 -0.201279
2.99 -0.195439
3 -0.189095
3.01 -0.182316
3.02 -0.175161
3.03 -0.167763
3.04 -0.160229
3.05 -0.152662
3.06 -0.145155
3.07 -0.137795
3.08 -0.130663
3.09 -0.123832
3.1 -0.117308
3.11 -0.111098
3.12 -0.105183
3.13 -0.099521
3.14 -0.0940497
3.15 -0.0886878
3.16 -0.0833169
3.17 -0.0778214
3.18 -0.0720822
3.19 -0.0659788
3.2 -0.0593937
3.21 -0.0522025
3.22 -0.0442451
3.23 -0.035504
3.24 -0.0259229
3.25 -0.0154676
3.26 -0.00412753
3.27 0.00808396
3.28 0.0211875
3.29 0.0350875
3.3 0.0496654
3.31 0.0648231
3.32 0.0804508
3.33 0.0964314
3.34 0.112645
3.35 0.128971
3.36 0.145274
3.37 0.161454
3.38 0.177423
3.39 0.193112
3.4 0.208465
3.41 0.223426
3.42 0.237983
3.43 0.252163
3.44 0.265991
3.45 0.279503
3.46 0.292747
3.47 0.305777
3.48 0.318638
3.49 0.331408
3.5 0.344136
3.51 0.35686
3.52 0.369603
3.53 0.382376
3.54 0.395166
3.55 0.407936
3.56 0.420631
3.57 0.433174
3.58 0.445473
3.59 0.457416
3.6 0.468881
3.61 0.479656
3.62 0.48964
3.63 0.498701
3.64 0.506699
3.65 0.513502
3.66 0.518993
3.67 0.523005
3.68 0.525389
3.69 0.526197
3.7 0.525396
3.71 0.522975
3.72 0.51895
3.73 0.513363
3.74 0.506143
3.75 0.497496
3.76 0.487567
3.77 0.476479
3.78 0.464371
3.79 0.451387
3.8 0.437661
3.81 0.423332
3.82 0.40861
3.83 0.393637
3.84 0.378546
3.85 0.363459
3.86 0.348486
3.87 0.333747
3.88 0.319318
3.89 0.305255
3.9 0.291604
3.91 0.278398
3.92 0.265657
3.93 0.2534
3.94 0.241661
3.95 0.230385
3.96 0.219552
3.97 0.209142
3.98 0.19913
3.99 0.18949
4 0.180215
4.01 0.171266
4.02 0.162599
4.03 0.154189
4.04 0.146008
4.05 0.138032
4.06 0.130238
4.07 0.122615
4.08 0.115118
4.09 0.107724
4.1 0.100407
4.11 0.0931438
4.12 0.0859088
4.13 0.0786766
4.14 0.0714206
4.15 0.0641201
4.16 0.0567569
4.17 0.049317
4.18 0.0417908
4.19 0.0341746
4.2 0.0264627
4.21 0.0186771
4.22 0.0108386
4.23 0.00297529
4.24 -0.00487648
4.25 -0.0126729
4.26 -0.0203555
4.27 -0.0278559
4.28 -0.0351207
4.29 -0.042087
4.3 -0.0486918
4.31 -0.0548747
4.32 -0.0605792
4.33 -0.065698
4.34 -0.0702338
4.35 -0.0741679
4.36 -0.0774865
4.37 -0.0801895
4.38 -0.0822915
4.39 -0.083802
4.4 -0.0847519
4.41 -0.0852476
4.42 -0.0853626
4.43 -0.0851809
4.44 -0.0847941
4.45 -0.0842988
4.46 -0.0838025
4.47 -0.0834147
4.48 -0.0832277
4.49 -0.0833255
4.5 -0.0837811
4.51 -0.0846544
4.52 -0.0860026
4.53 -0.0878844
4.54 -0.0902607
4.55 -0.093116
4.56 -0.0964159
4.57 -0.100109
4.58 -0.104127
4.59 -0.1084
4.6 -0.112812
4.61 -0.11725
4.62 -0.121608
4.63 -0.125779
4.64 -0.129658
4.65 -0.133141
4.66 -0.13609
4.67 -0.138474
4.68 -0.140239
4.69 -0.141347
4.7 -0.141779
4.71 -0.141535
4.72 -0.140594
4.73 -0.139016
4.74 -0.136893
4.75 -0.1343
4.76 -0.131325
4.77 -0.128066
4.78 -0.124625
4.79 -0.121116
4.8 -0.117663
4.81 -0.114368
4.82 -0.111327
4.83 -0.108625
4.84 -0.106336
4.85 -0.104551
4.86 -0.10332
4.87 -0.102639
4.88 -0.102517
4.89 -0.102947
4.9 -0.103908
4.91 -0.105366
4.92 -0.107318
4.93 -0.109655
4.94 -0.112308
4.95 -0.115211
4.96 -0.118292
4.97 -0.121482
4.98 -0.12471
4.99 -0.127905
5 -0.131008
5.01 -0.133971
5.02 -0.136753
5.03 -0.139322
5.04 -0.141655
5.05 -0.143711
5.06 -0.145504
5.07 -0.147038
5.08 -0.148322
5.09 -0.149367
5.1 -0.150187
5.11 -0.150792
5.12 -0.151195
5.13 -0.15143
5.14 -0.151515
5.15 -0.151464
5.16 -0.151292
5.17 -0.15101
5.18 -0.150621
5.19 -0.150138
5.2 -0.14957
5.21 -0.148923
5.22 -0.148202
5.23 -0.147412
5.24 -0.146557
5.25 -0.145643
5.26 -0.144684
5.27 -0.14369
5.28 -0.142675
5.29 -0.141651
5.3 -0.140633
5.31 -0.13964
5.32 -0.138687
5.33 -0.137786
5.34 -0.136948
5.35 -0.136181
5.36 -0.135489
5.37 -0.134871
5.38 -0.134326
5.39 -0.133833
5.4 -0.133374
5.41 -0.132922
5.42 -0.132448
5.43 -0.131919
5.44 -0.131286
5.45 -0.130506
5.46 -0.129543
5.47 -0.128358
5.48 -0.126913
5.49 -0.125177
5.5 -0.123123
5.51 -0.120693
5.52 -0.117917
5.53 -0.114799
5.54 -0.11135
5.55 -0.107595
5.56 -0.103568
5.57 -0.0993019
5.58 -0.0948574
5.59 -0.090309
5.6 -0.0857226
5.61 -0.0811665
5.62 -0.0767095
5.63 -0.0724186
5.64 -0.0683874
5.65 -0.0646529
5.66 -0.0612573
5.67 -0.0582337
5.68 -0.0556024
5.69 -0.0533701
5.7 -0.0515454
5.71 -0.0501116
5.72 -0.0490009
5.73 -0.0481613
5.74 -0.0475297
5.75 -0.0470344
5.76 -0.046597
5.77 -0.0461246
5.78 -0.0455268
5.79 -0.0447241
5.8 -0.043642
5.81 -0.0422144
5.82 -0.0403863
5.83 -0.0380997
5.84 -0.0353015
5.85 -0.0320222
5.86 -0.0282711
5.87 -0.0240735
5.88 -0.0194704
5.89 -0.0145171
5.9 -0.00926362
5.91 -0.00381427
5.92 0.00173602
5.93 0.00729739
5.94 0.0127798
5.95 0.0180959
5.96 0.0231577
5.97 0.0278616
5.98 0.0321758
5.99 0.036058
6 0.0394818
6.01 0.0424377
6.02 0.0449334
6.03 0.0469644
6.04 0.0485943
6.05 0.0499006
6.06 0.0509545
6.07 0.0518367
6.08 0.0526343
6.09 0.0534383
6.1 0.0543586
6.11 0.0554774
6.12 0.0568715
6.13 0.0586072
6.14 0.0607373
6.15 0.0632994
6.16 0.0663432
6.17 0.0698639
6.18 0.0738166
6.19 0.0781628
6.2 0.0828476
6.21 0.0878007
6.22 0.0929397
6.23 0.0981708
6.24 0.103373
6.25 0.108443
6.26 0.113278
6.27 0.117778
6.28 0.121851
6.29 0.125387
6.3 0.128302
6.31 0.130582
6.32 0.132195
6.33 0.13313
6.34 0.133391
6.35 0.133005
6.36 0.131954
6.37 0.130363
6.38 0.128314
6.39 0.125894
6.4 0.123195
6.41 0.120317
6.42 0.117362
6.43 0.114443
6.44 0.111657
6.45 0.109086
6.46 0.106804
6.47 0.104871
6.48 0.10333
6.49 0.102252
6.5 0.101616
6.51 0.101403
6.52 0.101588
6.53 0.102132
6.54 0.102982
6.55 0.104077
6.56 0.105344
6.57 0.106683
6.58 0.108009
6.59 0.109241
6.6 0.110297
6.61 0.111103
6.62 0.11156
6.63 0.11162
6.64 0.111251
6.65 0.110423
6.66 0.109119
6.67 0.107336
6.68 0.105077
6.69 0.102336
6.7 0.0991965
6.71 0.0957084
6.72 0.0919293
6.73 0.0879238
6.74 0.083761
6.75 0.0795115
6.76 0.0752595
6.77 0.0710776
6.78 0.0670308
6.79 0.0631782
6.8 0.0595714
6.81 0.0562563
6.82 0.053302
6.83 0.050697
6.84 0.0484518
6.85 0.046567
6.86 0.0450334
6.87 0.0438329
6.88 0.0429561
6.89 0.0423621
6.9 0.0419939
6.91 0.0418077
6.92 0.0417569
6.93 0.0417939
6.94 0.0418714
6.95 0.041938
6.96 0.0419477
6.97 0.0418619
6.98 0.0416471
6.99 0.0412746
7 0.0407215
7.01 0.0399602
7.02 0.0389751
7.03 0.0377755
7.04 0.0363626
7.05 0.0347425
7.06 0.0329252
7.07 0.0309245
7.08 0.0287419
7.09 0.0264134
7.1 0.0239617
7.11 0.0214081
7.12 0.0187736
7.13 0.0160787
7.14 0.0133424
7.15 0.0105842
7.16 0.00782322
7.17 0.00507392
7.18 0.00234894
7.19 -0.00034078
7.2 -0.00298579
7.21 -0.00557241
7.22 -0.00809634
7.23 -0.0105526
7.24 -0.0129349
7.25 -0.0152372
7.26 -0.0174527
7.27 -0.019571
7.28 -0.0215764
7.29 -0.0234676
7.3 -0.0252336
7.31 -0.0268625
7.32 -0.028341
7.33 -0.0296556
7.34 -0.0307763
7.35 -0.0316954
7.36 -0.0324057
7.37 -0.0328953
7.38 -0.0331536
7.39 -0.0331729
7.4 -0.0329442
7.41 -0.0324463
7.42 -0.031708
7.43 -0.0307384
7.44 -0.0295515
7.45 -0.0281668
7.46 -0.0266088
7.47 -0.0249
7.48 -0.023084
7.49 -0.0212076
7.5 -0.0193146
7.51 -0.0174516
7.52 -0.0156669
7.53 -0.0140105
7.54 -0.012555
7.55 -0.0113311
7.56 -0.0103813
7.57 -0.00974336
7.58 -0.00944917
7.59 -0.0095237
7.6 -0.0100072
7.61 -0.0109078
7.62 -0.0121993
7.63 -0.0138688
7.64 -0.015894
7.65 -0.0182433
7.66 -0.0208765
7.67 -0.0237664
7.68 -0.0268269
7.69 -0.0299963
7.7 -0.0332109
7.71 -0.0364057
7.72 -0.0395159
7.73 -0.0424692
7.74 -0.045195
7.75 -0.0476538
7.76 -0.0498027
7.77 -0.0516082
7.78 -0.0530469
7.79 -0.054106
7.8 -0.0547467
7.81 -0.0550144
7.82 -0.0549389
7.83 -0.0545535
7.84 -0.0539005
7.85 -0.0530291
7.86 -0.0519904
7.87 -0.0508468
7.88 -0.0496702
7.89 -0.0485189
7.9 -0.0474477
7.91 -0.046506
7.92 -0.0457355
7.93 -0.0451896
7.94 -0.0448788
7.95 -0.0448055
7.96 -0.0449661
7.97 -0.0453453
7.98 -0.0459163
7.99 -0.0466451
8 -0.0474857
8.01 -0.0483698
8.02 -0.0492379
8.03 -0.0500283
8.04 -0.0506795
8.05 -0.0511324
8.06 -0.0513097
8.07 -0.0511704
8.08 -0.0506905
8.09 -0.049848
8.1 -0.0486338
8.11 -0.0470527
8.12 -0.045119
8.13 -0.0428439
8.14 -0.0403122
8.15 -0.0375854
8.16 -0.0347344
8.17 -0.0318377
8.18 -0.0289787
8.19 -0.0262574
8.2 -0.0237679
8.21 -0.0215826
8.22 -0.019773
8.23 -0.0184001
8.24 -0.0175122
8.25 -0.0171447
8.26 -0.0173739
8.27 -0.0181354
8.28 -0.0194067
8.29 -0.021148
8.3 -0.0233033
8.31 -0.025802
8.32 -0.02857
8.33 -0.0314991
8.34 -0.0344726
8.35 -0.037386
8.36 -0.0401353
8.37 -0.0426206
8.38 -0.0447489
8.39 -0.046382
8.4 -0.0474911
8.41 -0.0480301
8.42 -0.0479671
8.43 -0.0472885
8.44 -0.0459998
8.45 -0.0441001
8.46 -0.0416254
8.47 -0.0386792
8.48 -0.0353364
8.49 -0.0316827
8.5 -0.0278111
8.51 -0.0238191
8.52 -0.0198122
8.53 -0.0158974
8.54 -0.0121622
8.55 -0.00868427
8.56 -0.00552883
8.57 -0.00274678
8.58 -0.000387759
8.59 0.0015092
8.6 0.002982
8.61 0.00405071
8.62 0.00475062
8.63 0.00513051
8.64 0.0052504
8.65 0.00516896
8.66 0.00498116
8.67 0.00476924
8.68 0.00460826
8.69 0.00456848
8.7 0.00471251
8.71 0.00509917
8.72 0.00579144
8.73 0.00678813
8.74 0.00809586
8.75 0.00970582
8.76 0.0115941
8.77 0.0137229
8.78 0.0160512
8.79 0.0185017
8.8 0.0209964
8.81 0.0234605
8.82 0.0258181
8.83 0.0279955
8.84 0.0299197
8.85 0.0314947
8.86 0.0327007
8.87 0.0335036
8.88 0.0338842
8.89 0.0338383
8.9 0.033378
8.91 0.0325084
8.92 0.0312849
8.93 0.0297857
8.94 0.0280793
8.95 0.0262418
8.96 0.0243541
8.97 0.0224987
8.98 0.0207783
8.99 0.0192615
9 0.0180137
9.01 0.0170893
9.02 0.0165292
9.03 0.0163594
9.04 0.0166112
9.05 0.0172781
9.06 0.0183077
9.07 0.0196577
9.08 0.0212725
9.09 0.0230853
9.1 0.0250204
9.11 0.0269919
9.12 0.0289032
9.13 0.0306718
9.14 0.0322203
9.15 0.0334795
9.16 0.0343909
9.17 0.0348906
9.18 0.0349328
9.19 0.0345376
9.2 0.0337122
9.21 0.0324806
9.22 0.0308825
9.23 0.0289719
9.24 0.0267992
9.25 0.0244689
9.26 0.0220705
9.27 0.019691
9.28 0.0174166
9.29 0.01533
9.3 0.0135168
9.31 0.0120671
9.32 0.0110059
9.33 0.0103668
9.34 0.0101667
9.35 0.0104054
9.36 0.0110656
9.37 0.012142
9.38 0.0135564
9.39 0.0152306
9.4 0.0170886
9.41 0.019047
9.42 0.0210183
9.43 0.0229108
9.44 0.0246161
9.45 0.0260654
9.46 0.027191
9.47 0.0279373
9.48 0.0282633
9.49 0.0281441
9.5 0.0275389
9.51 0.0264747
9.52 0.0250022
9.53 0.0231674
9.54 0.0210303
9.55 0.0186621
9.56 0.0161424
9.57 0.0135614
9.58 0.0110219
9.59 0.00861023
9.6 0.0064075
9.61 0.00448681
9.62 0.00291034
9.63 0.00175398
9.64 0.00105126
9.65 0.000793638
9.66 0.000977628
9.67 0.00158323
9.68 0.00257478
9.69 0.00390241
9.7 0.0055273
9.71 0.007338
9.72 0.00925388
9.73 0.0111917
9.74 0.0130684
9.75 0.0148041
9.76 0.016311
9.77 0.0175126
9.78 0.0183744
9.79 0.0188609
9.8 0.0189518
9.81 0.0186424
9.82 0.0179438
9.83 0.0168488
9.84 0.0154381
9.85 0.0137724
9.86 0.0119175
9.87 0.00994649
9.88 0.00793667
9.89 0.00597178
9.9 0.00414383
9.91 0.00251974
9.92 0.00116273
9.93 0.000125902
9.94 -0.000549566
9.95 -0.000835818
9.96 -0.000681694
9.97 -0.000118896
9.98 0.000823923
9.99 0.00211452
10 0.00370883
10.01 0.00555282
10.02 0.00758789
10.03 0.00974413
10.04 0.0119355
10.05 0.0140919
10.06 0.0161463
10.07 0.0180372
10.08 0.0197105
10.09 0.0210969
10.1 0.0221724
10.11 0.0229272
10.12 0.0233541
10.13 0.0234581
10.14 0.0232552
10.15 0.0227675
10.16 0.0220158
10.17 0.0210713
10.18 0.0199824
10.19 0.0187999
10.2 0.0175749
10.21 0.0163564
10.22 0.0151962
10.23 0.0141373
10.24 0.0132071
10.25 0.0124275
10.26 0.0118111
10.27 0.0113614
10.28 0.0110737
10.29 0.010946
10.3 0.0109371
10.31 0.011017
10.32 0.0111518
10.33 0.0113045
10.34 0.0114375
10.35 0.0115087
10.36 0.0114794
10.37 0.0113251
10.38 0.0110236
10.39 0.0105597
10.4 0.00992595
10.41 0.00912307
10.42 0.00814343
10.43 0.00702382
10.44 0.00578984
10.45 0.0044719
10.46 0.00310453
10.47 0.00172484
10.48 0.000374052
10.49 -0.000904174
10.5 -0.00207827
10.51 -0.00311898
10.52 -0.00400284
10.53 -0.00471327
10.54 -0.00524132
10.55 -0.00556823
10.56 -0.00571959
10.57 -0.00571556
10.58 -0.00558056
10.59 -0.00534504
10.6 -0.00504417
10.61 -0.00471693
10.62 -0.00440945
10.63 -0.0041626
10.64 -0.00401311
10.65 -0.00399352
10.66 -0.00413061
10.67 -0.00444417
10.68 -0.00496329
10.69 -0.00567742
10.7 -0.00657285
10.71 -0.00763181
10.72 -0.00882804
10.73 -0.0101277
10.74 -0.0114907
10.75 -0.0128663
10.76 -0.0142005
10.77 -0.0154433
10.78 -0.016546
10.79 -0.0174629
10.8 -0.0181534
10.81 -0.0185608
10.82 -0.0186688
10.83 -0.0184741
10.84 -0.0179737
10.85 -0.017176
10.86 -0.0160998
10.87 -0.0147715
10.88 -0.0132184
10.89 -0.0115148
10.9 -0.00971706
10.91 -0.00788594
10.92 -0.00608494
10.93 -0.00437795
10.94 -0.00284206
10.95 -0.00153984
10.96 -0.000513543
10.97 0.000194936
10.98 0.000553527
10.99 0.000541176
11 0.000146949
11.01 -0.000664946
11.02 -0.00183286
11.03 -0.00332632
11.04 -0.0051041
11.05 -0.00711541
11.06 -0.0093015
11.07 -0.0115996
11.08 -0.0139295
11.09 -0.0162142
11.1 -0.0183833
11.11 -0.0203697
11.12 -0.022111
11.13 -0.0235521
11.14 -0.0246034
11.15 -0.0252626
11.16 -0.0255091
11.17 -0.0253314
11.18 -0.02473
11.19 -0.0237168
11.2 -0.0222984
11.21 -0.0205054
11.22 -0.0184095
11.23 -0.0160618
11.24 -0.0135192
11.25 -0.0108422
11.26 -0.00809302
11.27 -0.0053392
11.28 -0.00264827
11.29 -7.62854e-05
11.3 0.00232597
11.31 0.00451415
11.32 0.00645125
11.33 0.00809768
11.34 0.00941743
11.35 0.0104243
11.36 0.0111174
11.37 0.0115034
11.38 0.0115967
11.39 0.0114179
11.4 0.0109742
11.41 0.0103152
11.42 0.00948228
11.43 0.00851174
11.44 0.00744037
11.45 0.00630456
11.46 0.00513944
11.47 0.00398188
11.48 0.00286284
11.49 0.00180745
11.5 0.000836854
11.51 -3.20231e-05
11.52 -0.000786498
11.53 -0.00140821
11.54 -0.00189726
11.55 -0.00225867
11.56 -0.00249566
11.57 -0.00261419
11.58 -0.00262246
11.59 -0.00252927
11.6 -0.00233939
11.61 -0.00207534
11.62 -0.00174988
11.63 -0.00137581
11.64 -0.000965753
11.65 -0.000531947
11.66 -8.60621e-05
11.67 0.000359127
11.68 0.000792916
11.69 0.00120584
11.7 0.00158915
11.71 0.00193479
11.72 0.00223529
11.73 0.00247745
11.74 0.00266086
11.75 0.00278056
11.76 0.00283242
11.77 0.00281327
11.78 0.00272098
11.79 0.00255059
11.8 0.00230229
11.81 0.00198302
11.82 0.00159672
