# xPDFsuite Configuration #
[PDF]
wavelength = 0.1
dataformat = QA
inputfile = BiMsol6_insitu_700 C-00349.xy
backgroundfile = Quartz2mm-dist500-00000.xy
mode = xray
bgscale = 0.0042
composition = Bi2Fe4O9
outputtype = gr
qmaxinst = 24.998449118
qmin = 0.1
qmax = 21.4986662415
rmax = 80.0
rmin = 0.0
rstep = 0.01
rpoly = 0.9

[Misc]
inputdir = C:/Data/Seafile/CPH/Beamtime/Desy Oct 20/In situ data/Processed/BiMsol6/PDF
savedir = C:/Data/Seafile/CPH/Beamtime/Desy Oct 20/In situ data/PDF/BiMsol6
backgroundfilefull = C:/Data/Seafile/CPH/Beamtime/Desy Oct 20/In situ data/Processed/Standard_Empty_Cap/Quartz2mm-dist500-00000.xy

#### start data
#S 1
#L r($\AA$)  G($\AA^{-2}$)
0 0
0.01 0.00602077
0.02 0.0116993
0.03 0.0167428
0.04 0.0208886
0.05 0.0239163
0.06 0.0256582
0.07 0.0259311
0.08 0.0246823
0.09 0.022048
0.1 0.0181408
0.11 0.0131348
0.12 0.00725783
0.13 0.00078156
0.14 -0.00598787
0.15 -0.0126676
0.16 -0.0189343
0.17 -0.0244849
0.18 -0.0290483
0.19 -0.0323985
0.2 -0.0343039
0.21 -0.0346081
0.22 -0.0334076
0.23 -0.0307691
0.24 -0.0268338
0.25 -0.021813
0.26 -0.01598
0.27 -0.00964801
0.28 -0.00326061
0.29 0.00278677
0.3 0.00811002
0.31 0.0123447
0.32 0.0151637
0.33 0.0162361
0.34 0.0152386
0.35 0.0122275
0.36 0.00720471
0.37 0.000273478
0.38 -0.00836093
0.39 -0.0183937
0.4 -0.0294697
0.41 -0.0409854
0.42 -0.0523483
0.43 -0.0629547
0.44 -0.0721795
0.45 -0.0793997
0.46 -0.0839549
0.47 -0.0849915
0.48 -0.0823243
0.49 -0.0756047
0.5 -0.0646024
0.51 -0.0492198
0.52 -0.0295019
0.53 -0.00536647
0.54 0.0226546
0.55 0.0538554
0.56 0.0875827
0.57 0.12307
0.58 0.159457
0.59 0.195806
0.6 0.230926
0.61 0.263856
0.62 0.293642
0.63 0.319383
0.64 0.340264
0.65 0.355579
0.66 0.36435
0.67 0.366161
0.68 0.361153
0.69 0.349301
0.7 0.330763
0.71 0.305869
0.72 0.27512
0.73 0.238662
0.74 0.197963
0.75 0.153957
0.76 0.10764
0.77 0.0600525
0.78 0.0122504
0.79 -0.0346338
0.8 -0.0794419
0.81 -0.121351
0.82 -0.159582
0.83 -0.193483
0.84 -0.222547
0.85 -0.246424
0.86 -0.264369
0.87 -0.276868
0.88 -0.284172
0.89 -0.2866
0.9 -0.284605
0.91 -0.278746
0.92 -0.269575
0.93 -0.257814
0.94 -0.24446
0.95 -0.230268
0.96 -0.215972
0.97 -0.20226
0.98 -0.189754
0.99 -0.179191
1 -0.170921
1.01 -0.165194
1.02 -0.162187
1.03 -0.161961
1.04 -0.164464
1.05 -0.169605
1.06 -0.177231
1.07 -0.186771
1.08 -0.197822
1.09 -0.209948
1.1 -0.222691
1.11 -0.235598
1.12 -0.248179
1.13 -0.260006
1.14 -0.270762
1.15 -0.280184
1.16 -0.288082
1.17 -0.294344
1.18 -0.29891
1.19 -0.301702
1.2 -0.303018
1.21 -0.303047
1.22 -0.302025
1.23 -0.300221
1.24 -0.297924
1.25 -0.295432
1.26 -0.29307
1.27 -0.291095
1.28 -0.289716
1.29 -0.289097
1.3 -0.289342
1.31 -0.290502
1.32 -0.292646
1.33 -0.29558
1.34 -0.299158
1.35 -0.303188
1.36 -0.30744
1.37 -0.311663
1.38 -0.315554
1.39 -0.318811
1.4 -0.321209
1.41 -0.322536
1.42 -0.322619
1.43 -0.32134
1.44 -0.318638
1.45 -0.314361
1.46 -0.308748
1.47 -0.301956
1.48 -0.29419
1.49 -0.285708
1.5 -0.27681
1.51 -0.267838
1.52 -0.259196
1.53 -0.251234
1.54 -0.244282
1.55 -0.23864
1.56 -0.234566
1.57 -0.23226
1.58 -0.232058
1.59 -0.233857
1.6 -0.23759
1.61 -0.243146
1.62 -0.250337
1.63 -0.258903
1.64 -0.268547
1.65 -0.278868
1.66 -0.289365
1.67 -0.299597
1.68 -0.309121
1.69 -0.317503
1.7 -0.324339
1.71 -0.329066
1.72 -0.331472
1.73 -0.331394
1.74 -0.328694
1.75 -0.323319
1.76 -0.315301
1.77 -0.304704
1.78 -0.291615
1.79 -0.276561
1.8 -0.259905
1.81 -0.242059
1.82 -0.223471
1.83 -0.20461
1.84 -0.186001
1.85 -0.168155
1.86 -0.151482
1.87 -0.136357
1.88 -0.123093
1.89 -0.111936
1.9 -0.103088
1.91 -0.0968402
1.92 -0.0929352
1.93 -0.0912697
1.94 -0.0916642
1.95 -0.0938719
1.96 -0.0975881
1.97 -0.102515
1.98 -0.108192
1.99 -0.114168
2 -0.120049
2.01 -0.125462
2.02 -0.130068
2.03 -0.133569
2.04 -0.13556
2.05 -0.136026
2.06 -0.134888
2.07 -0.132147
2.08 -0.127878
2.09 -0.122228
2.1 -0.115361
2.11 -0.107593
2.12 -0.099324
2.13 -0.0909119
2.14 -0.082734
2.15 -0.0751698
2.16 -0.0685879
2.17 -0.0635105
2.18 -0.0601287
2.19 -0.0586724
2.2 -0.0593211
2.21 -0.0621869
2.22 -0.0673106
2.23 -0.0747572
2.24 -0.0844537
2.25 -0.0960539
2.26 -0.109311
2.27 -0.123931
2.28 -0.139577
2.29 -0.155887
2.3 -0.172477
2.31 -0.188903
2.32 -0.204801
2.33 -0.219838
2.34 -0.233717
2.35 -0.246189
2.36 -0.257001
2.37 -0.265925
2.38 -0.273042
2.39 -0.278362
2.4 -0.281956
2.41 -0.283951
2.42 -0.284527
2.43 -0.283823
2.44 -0.2822
2.45 -0.279975
2.46 -0.27744
2.47 -0.274887
2.48 -0.272595
2.49 -0.270839
2.5 -0.269924
2.51 -0.269975
2.52 -0.271127
2.53 -0.273464
2.54 -0.277023
2.55 -0.28179
2.56 -0.287784
2.57 -0.294839
2.58 -0.302757
2.59 -0.311356
2.6 -0.32043
2.61 -0.329761
2.62 -0.339121
2.63 -0.34824
2.64 -0.356909
2.65 -0.364935
2.66 -0.372148
2.67 -0.378407
2.68 -0.383601
2.69 -0.387575
2.7 -0.390296
2.71 -0.391822
2.72 -0.392176
2.73 -0.391407
2.74 -0.389585
2.75 -0.386796
2.76 -0.383048
2.77 -0.37855
2.78 -0.373403
2.79 -0.367695
2.8 -0.361507
2.81 -0.354904
2.82 -0.347912
2.83 -0.340559
2.84 -0.332869
2.85 -0.324826
2.86 -0.316398
2.87 -0.307537
2.88 -0.298189
2.89 -0.288221
2.9 -0.277617
2.91 -0.266321
2.92 -0.254279
2.93 -0.241452
2.94 -0.227814
2.95 -0.213327
2.96 -0.197986
2.97 -0.181894
2.98 -0.16512
2.99 -0.14775
3 -0.12989
3.01 -0.111665
3.02 -0.0932042
3.03 -0.0746868
3.04 -0.0562678
3.05 -0.0380953
3.06 -0.0203106
3.07 -0.00304336
3.08 0.013569
3.09 0.0293836
3.1 0.0443912
3.11 0.0585524
3.12 0.0718546
3.13 0.0843119
3.14 0.0959643
3.15 0.106821
3.16 0.117021
3.17 0.126698
3.18 0.135973
3.19 0.144977
3.2 0.153845
3.21 0.162713
3.22 0.171734
3.23 0.181019
3.24 0.190668
3.25 0.200758
3.26 0.211347
3.27 0.22247
3.28 0.234174
3.29 0.246421
3.3 0.25914
3.31 0.272262
3.32 0.285699
3.33 0.299346
3.34 0.313081
3.35 0.326757
3.36 0.340231
3.37 0.353367
3.38 0.366035
3.39 0.378111
3.4 0.389481
3.41 0.399993
3.42 0.409561
3.43 0.418173
3.44 0.425792
3.45 0.432401
3.46 0.438004
3.47 0.442626
3.48 0.446206
3.49 0.448921
3.5 0.450849
3.51 0.452079
3.52 0.452709
3.53 0.452843
3.54 0.452575
3.55 0.452026
3.56 0.451324
3.57 0.450571
3.58 0.44986
3.59 0.449277
3.6 0.448898
3.61 0.448822
3.62 0.449082
3.63 0.449713
3.64 0.450741
3.65 0.452183
3.66 0.454043
3.67 0.456331
3.68 0.45904
3.69 0.462113
3.7 0.465512
3.71 0.469196
3.72 0.473115
3.73 0.477214
3.74 0.48144
3.75 0.485714
3.76 0.489964
3.77 0.494124
3.78 0.498122
3.79 0.501888
3.8 0.505338
3.81 0.508373
3.82 0.51095
3.83 0.513003
3.84 0.514468
3.85 0.515286
3.86 0.515398
3.87 0.514688
3.88 0.513138
3.89 0.510735
3.9 0.507443
3.91 0.503233
3.92 0.498083
3.93 0.491956
3.94 0.484762
3.95 0.476589
3.96 0.467437
3.97 0.45731
3.98 0.446214
3.99 0.43416
4 0.421094
4.01 0.40706
4.02 0.392118
4.03 0.376287
4.04 0.359589
4.05 0.342047
4.06 0.323679
4.07 0.304436
4.08 0.284437
4.09 0.263717
4.1 0.242317
4.11 0.22028
4.12 0.197658
4.13 0.174482
4.14 0.150832
4.15 0.126816
4.16 0.102518
4.17 0.0780349
4.18 0.0534707
4.19 0.0289374
4.2 0.00458534
4.21 -0.019464
4.22 -0.0430816
4.23 -0.0661365
4.24 -0.0884988
4.25 -0.110042
4.26 -0.130594
4.27 -0.15001
4.28 -0.168259
4.29 -0.185261
4.3 -0.200952
4.31 -0.21529
4.32 -0.22825
4.33 -0.239692
4.34 -0.249764
4.35 -0.258533
4.36 -0.266069
4.37 -0.272458
4.38 -0.277805
4.39 -0.282198
4.4 -0.285752
4.41 -0.288676
4.42 -0.291109
4.43 -0.293188
4.44 -0.295047
4.45 -0.296808
4.46 -0.29859
4.47 -0.300495
4.48 -0.302594
4.49 -0.304935
4.5 -0.307547
4.51 -0.310436
4.52 -0.313594
4.53 -0.316994
4.54 -0.320553
4.55 -0.3242
4.56 -0.327851
4.57 -0.331414
4.58 -0.334795
4.59 -0.337868
4.6 -0.340543
4.61 -0.342751
4.62 -0.344425
4.63 -0.345511
4.64 -0.345977
4.65 -0.345796
4.66 -0.344924
4.67 -0.343455
4.68 -0.341442
4.69 -0.338954
4.7 -0.336074
4.71 -0.332901
4.72 -0.329537
4.73 -0.326117
4.74 -0.322764
4.75 -0.319591
4.76 -0.316703
4.77 -0.314196
4.78 -0.312154
4.79 -0.310708
4.8 -0.309847
4.81 -0.309595
4.82 -0.309957
4.83 -0.310917
4.84 -0.312442
4.85 -0.31451
4.86 -0.317045
4.87 -0.31994
4.88 -0.32311
4.89 -0.326469
4.9 -0.329926
4.91 -0.333399
4.92 -0.336791
4.93 -0.340037
4.94 -0.343081
4.95 -0.345882
4.96 -0.348411
4.97 -0.350656
4.98 -0.352603
4.99 -0.354262
5 -0.355678
5.01 -0.356883
5.02 -0.357914
5.03 -0.35881
5.04 -0.359605
5.05 -0.360326
5.06 -0.361
5.07 -0.361635
5.08 -0.362223
5.09 -0.362742
5.1 -0.36315
5.11 -0.363381
5.12 -0.363337
5.13 -0.362939
5.14 -0.362079
5.15 -0.360641
5.16 -0.3585
5.17 -0.355528
5.18 -0.351503
5.19 -0.346345
5.2 -0.33997
5.21 -0.33228
5.22 -0.323194
5.23 -0.312647
5.24 -0.300562
5.25 -0.286816
5.26 -0.271562
5.27 -0.254833
5.28 -0.236687
5.29 -0.217201
5.3 -0.196473
5.31 -0.174536
5.32 -0.151574
5.33 -0.127767
5.34 -0.103251
5.35 -0.0781656
5.36 -0.0526446
5.37 -0.0268142
5.38 -0.000790892
5.39 0.0252906
5.4 0.0513372
5.41 0.0772685
5.42 0.103017
5.43 0.128525
5.44 0.153726
5.45 0.178578
5.46 0.203065
5.47 0.227152
5.48 0.250805
5.49 0.273983
5.5 0.296637
5.51 0.318634
5.52 0.339957
5.53 0.360517
5.54 0.380207
5.55 0.398907
5.56 0.416481
5.57 0.432703
5.58 0.447383
5.59 0.46044
5.6 0.47171
5.61 0.481035
5.62 0.488267
5.63 0.493269
5.64 0.495662
5.65 0.49558
5.66 0.492989
5.67 0.487863
5.68 0.480209
5.69 0.470071
5.7 0.457429
5.71 0.442354
5.72 0.425176
5.73 0.406083
5.74 0.385286
5.75 0.36302
5.76 0.339533
5.77 0.315018
5.78 0.289839
5.79 0.264275
5.8 0.238572
5.81 0.212964
5.82 0.187661
5.83 0.162872
5.84 0.138806
5.85 0.11554
5.86 0.093162
5.87 0.0717287
5.88 0.0512682
5.89 0.0317809
5.9 0.0133214
5.91 -0.00421377
5.92 -0.0209148
5.93 -0.0368506
5.94 -0.0520928
5.95 -0.0667102
5.96 -0.0807526
5.97 -0.0942353
5.98 -0.107238
5.99 -0.119768
6 -0.131809
6.01 -0.143324
6.02 -0.154253
6.03 -0.164455
6.04 -0.173837
6.05 -0.182306
6.06 -0.189734
6.07 -0.195987
6.08 -0.20093
6.09 -0.20442
6.1 -0.206181
6.11 -0.206274
6.12 -0.204631
6.13 -0.20121
6.14 -0.195999
6.15 -0.18902
6.16 -0.180225
6.17 -0.169744
6.18 -0.157797
6.19 -0.144548
6.2 -0.130183
6.21 -0.114914
6.22 -0.098967
6.23 -0.0825547
6.24 -0.0659926
6.25 -0.0495175
6.26 -0.0333561
6.27 -0.0177181
6.28 -0.00279167
6.29 0.0112088
6.3 0.0241265
6.31 0.0359324
6.32 0.0465752
6.33 0.0560401
6.34 0.0643476
6.35 0.0715519
6.36 0.0776423
6.37 0.0828435
6.38 0.0873067
6.39 0.0911879
6.4 0.0946533
6.41 0.097874
6.42 0.101025
6.43 0.104294
6.44 0.107836
6.45 0.111782
6.46 0.116245
6.47 0.121316
6.48 0.127061
6.49 0.133592
6.5 0.140873
6.51 0.148874
6.52 0.157565
6.53 0.166894
6.54 0.176798
6.55 0.187213
6.56 0.198068
6.57 0.209234
6.58 0.220627
6.59 0.232167
6.6 0.24378
6.61 0.255406
6.62 0.266985
6.63 0.278479
6.64 0.289866
6.65 0.301136
6.66 0.312288
6.67 0.323332
6.68 0.334278
6.69 0.345143
6.7 0.355952
6.71 0.36672
6.72 0.377453
6.73 0.388149
6.74 0.398793
6.75 0.409349
6.76 0.419766
6.77 0.429984
6.78 0.439921
6.79 0.449483
6.8 0.458559
6.81 0.467023
6.82 0.474651
6.83 0.481375
6.84 0.487054
6.85 0.491551
6.86 0.494732
6.87 0.496474
6.88 0.496565
6.89 0.494905
6.9 0.491509
6.91 0.486326
6.92 0.479325
6.93 0.470497
6.94 0.459858
6.95 0.447246
6.96 0.432925
6.97 0.416978
6.98 0.399499
6.99 0.380594
7 0.360379
7.01 0.338923
7.02 0.316351
7.03 0.292866
7.04 0.268589
7.05 0.243634
7.06 0.218109
7.07 0.192113
7.08 0.165702
7.09 0.138997
7.1 0.112068
7.11 0.0849721
7.12 0.0577605
7.13 0.0304766
7.14 0.00316126
7.15 -0.0241416
7.16 -0.0513907
7.17 -0.0785439
7.18 -0.105554
7.19 -0.132368
7.2 -0.158925
7.21 -0.185117
7.22 -0.210877
7.23 -0.236125
7.24 -0.260764
7.25 -0.284692
7.26 -0.307799
7.27 -0.329949
7.28 -0.350952
7.29 -0.370788
7.3 -0.389358
7.31 -0.406572
7.32 -0.422352
7.33 -0.436634
7.34 -0.449244
7.35 -0.460221
7.36 -0.469618
7.37 -0.477452
7.38 -0.48376
7.39 -0.488597
7.4 -0.492019
7.41 -0.494022
7.42 -0.494855
7.43 -0.49464
7.44 -0.493508
7.45 -0.491594
7.46 -0.489033
7.47 -0.485935
7.48 -0.482458
7.49 -0.478743
7.5 -0.474896
7.51 -0.471008
7.52 -0.467154
7.53 -0.463392
7.54 -0.459777
7.55 -0.45631
7.56 -0.452985
7.57 -0.449782
7.58 -0.446658
7.59 -0.443562
7.6 -0.440419
7.61 -0.43714
7.62 -0.433645
7.63 -0.429845
7.64 -0.425653
7.65 -0.420985
7.66 -0.415761
7.67 -0.409834
7.68 -0.403207
7.69 -0.39584
7.7 -0.387702
7.71 -0.378781
7.72 -0.369079
7.73 -0.358579
7.74 -0.347308
7.75 -0.335374
7.76 -0.322846
7.77 -0.309804
7.78 -0.296341
7.79 -0.282558
7.8 -0.268554
7.81 -0.254473
7.82 -0.240434
7.83 -0.226551
7.84 -0.212937
7.85 -0.199701
7.86 -0.186964
7.87 -0.174857
7.88 -0.16342
7.89 -0.152722
7.9 -0.142821
7.91 -0.13376
7.92 -0.125572
7.93 -0.118356
7.94 -0.112061
7.95 -0.106653
7.96 -0.102114
7.97 -0.0984125
7.98 -0.0955109
7.99 -0.0933815
8 -0.0920117
8.01 -0.0912771
8.02 -0.0911191
8.03 -0.0914789
8.04 -0.0922984
8.05 -0.0935221
8.06 -0.0951217
8.07 -0.0970307
8.08 -0.0991961
8.09 -0.101585
8.1 -0.104171
8.11 -0.106935
8.12 -0.109866
8.13 -0.112973
8.14 -0.116241
8.15 -0.119674
8.16 -0.123281
8.17 -0.127073
8.18 -0.131061
8.19 -0.135268
8.2 -0.139696
8.21 -0.144334
8.22 -0.149177
8.23 -0.154207
8.24 -0.159399
8.25 -0.16472
8.26 -0.170122
8.27 -0.175532
8.28 -0.180876
8.29 -0.18607
8.3 -0.191019
8.31 -0.195621
8.32 -0.199733
8.33 -0.203219
8.34 -0.205987
8.35 -0.20792
8.36 -0.208901
8.37 -0.208819
8.38 -0.207572
8.39 -0.204921
8.4 -0.20091
8.41 -0.195487
8.42 -0.188612
8.43 -0.180258
8.44 -0.170421
8.45 -0.159048
8.46 -0.146143
8.47 -0.131866
8.48 -0.116289
8.49 -0.0995001
8.5 -0.081597
8.51 -0.0626891
8.52 -0.0428171
8.53 -0.0221853
8.54 -0.000930704
8.55 0.0208287
8.56 0.0429805
8.57 0.0654203
8.58 0.0880573
8.59 0.110805
8.6 0.133582
8.61 0.156337
8.62 0.179032
8.63 0.20164
8.64 0.224147
8.65 0.246542
8.66 0.268836
8.67 0.291044
8.68 0.313177
8.69 0.335248
8.7 0.357265
8.71 0.379226
8.72 0.401117
8.73 0.422917
8.74 0.444589
8.75 0.466078
8.76 0.487313
8.77 0.508208
8.78 0.528614
8.79 0.548412
8.8 0.567483
8.81 0.585682
8.82 0.602855
8.83 0.618844
8.84 0.633472
8.85 0.646425
8.86 0.657697
8.87 0.667152
8.88 0.674666
8.89 0.680133
8.9 0.683465
8.91 0.684449
8.92 0.683067
8.93 0.67942
8.94 0.673517
8.95 0.66539
8.96 0.655089
8.97 0.642684
8.98 0.628044
8.99 0.611517
9 0.593218
9.01 0.57327
9.02 0.551801
9.03 0.528938
9.04 0.504748
9.05 0.47936
9.06 0.452968
9.07 0.42568
9.08 0.397594
9.09 0.368801
9.1 0.339383
9.11 0.309364
9.12 0.278873
9.13 0.247978
9.14 0.216743
9.15 0.185232
9.16 0.153511
9.17 0.121652
9.18 0.0897475
9.19 0.0578992
9.2 0.026213
9.21 -0.00519343
9.22 -0.0361894
9.23 -0.0666318
9.24 -0.0962822
9.25 -0.125008
9.26 -0.152651
9.27 -0.179032
9.28 -0.203972
9.29 -0.227293
9.3 -0.248763
9.31 -0.268095
9.32 -0.285303
9.33 -0.300261
9.34 -0.312867
9.35 -0.323043
9.36 -0.330736
9.37 -0.33571
9.38 -0.338105
9.39 -0.338044
9.4 -0.335592
9.41 -0.330845
9.42 -0.323917
9.43 -0.314906
9.44 -0.303845
9.45 -0.291095
9.46 -0.276834
9.47 -0.26124
9.48 -0.244492
9.49 -0.226765
9.5 -0.208174
9.51 -0.188918
9.52 -0.169166
9.53 -0.149038
9.54 -0.128635
9.55 -0.108041
9.56 -0.0873237
9.57 -0.0665312
9.58 -0.0457096
9.59 -0.0248822
9.6 -0.00406427
9.61 0.0167333
9.62 0.0375008
9.63 0.0582231
9.64 0.0788796
9.65 0.0994444
9.66 0.119878
9.67 0.140127
9.68 0.160125
9.69 0.179788
9.7 0.198957
9.71 0.217557
9.72 0.235461
9.73 0.252535
9.74 0.268637
9.75 0.283623
9.76 0.297278
9.77 0.309427
9.78 0.320028
9.79 0.328974
9.8 0.336172
9.81 0.341553
9.82 0.345072
9.83 0.346513
9.84 0.346065
9.85 0.343795
9.86 0.339773
9.87 0.334097
9.88 0.326886
9.89 0.318233
9.9 0.308275
9.91 0.29729
9.92 0.285461
9.93 0.27297
9.94 0.26
9.95 0.246725
9.96 0.233311
9.97 0.21993
9.98 0.206712
9.99 0.19376
10 0.181154
10.01 0.16895
10.02 0.157195
10.03 0.14592
10.04 0.135069
10.05 0.124601
10.06 0.114464
10.07 0.10459
10.08 0.0949027
10.09 0.0853243
10.1 0.0757579
10.11 0.0661236
10.12 0.0563532
10.13 0.0463897
10.14 0.0361899
10.15 0.0257222
10.16 0.0149566
10.17 0.00393386
10.18 -0.00731336
10.19 -0.0187352
10.2 -0.0302662
10.21 -0.0418275
10.22 -0.0533181
10.23 -0.0646279
10.24 -0.0756588
10.25 -0.0863101
10.26 -0.0964855
10.27 -0.106097
10.28 -0.115061
10.29 -0.123237
10.3 -0.130654
10.31 -0.137289
10.32 -0.143138
10.33 -0.148214
10.34 -0.152553
10.35 -0.156169
10.36 -0.159148
10.37 -0.161614
10.38 -0.163663
10.39 -0.165401
10.4 -0.166934
10.41 -0.168373
10.42 -0.169834
10.43 -0.171425
10.44 -0.173231
10.45 -0.175327
10.46 -0.177771
10.47 -0.180607
10.48 -0.183881
10.49 -0.187606
10.5 -0.19174
10.51 -0.196251
10.52 -0.201095
10.53 -0.206213
10.54 -0.211537
10.55 -0.216998
10.56 -0.222494
10.57 -0.227944
10.58 -0.233267
10.59 -0.23839
10.6 -0.243248
10.61 -0.24777
10.62 -0.251893
10.63 -0.255615
10.64 -0.258922
10.65 -0.261815
10.66 -0.264306
10.67 -0.266424
10.68 -0.268178
10.69 -0.269646
10.7 -0.270892
10.71 -0.271979
10.72 -0.272969
10.73 -0.273925
10.74 -0.274911
10.75 -0.275993
10.76 -0.277216
10.77 -0.278616
10.78 -0.280221
10.79 -0.282049
10.8 -0.284104
10.81 -0.286398
10.82 -0.2889
10.83 -0.291575
10.84 -0.294385
10.85 -0.297287
10.86 -0.300235
10.87 -0.303176
10.88 -0.306048
10.89 -0.308803
10.9 -0.311393
10.91 -0.313779
10.92 -0.315925
10.93 -0.317803
10.94 -0.319372
10.95 -0.320625
10.96 -0.321575
10.97 -0.322228
10.98 -0.322596
10.99 -0.322696
11 -0.322549
11.01 -0.322157
11.02 -0.321574
11.03 -0.320821
11.04 -0.319921
11.05 -0.318888
11.06 -0.317732
11.07 -0.316452
11.08 -0.31504
11.09 -0.313489
11.1 -0.311778
11.11 -0.309877
11.12 -0.30775
11.13 -0.305355
11.14 -0.302606
11.15 -0.299482
11.16 -0.295936
11.17 -0.29192
11.18 -0.287388
11.19 -0.282302
11.2 -0.276601
11.21 -0.270244
11.22 -0.263262
11.23 -0.255656
11.24 -0.247437
11.25 -0.238629
11.26 -0.229266
11.27 -0.21935
11.28 -0.208985
11.29 -0.198246
11.3 -0.187207
11.31 -0.175945
11.32 -0.164539
11.33 -0.153069
11.34 -0.141624
11.35 -0.130281
11.36 -0.119103
11.37 -0.108147
11.38 -0.0974605
11.39 -0.087077
11.4 -0.0770495
11.41 -0.0673671
11.42 -0.0580141
11.43 -0.0489717
11.44 -0.0402096
11.45 -0.0316869
11.46 -0.0233567
11.47 -0.0151623
11.48 -0.00702279
11.49 0.00112919
11.5 0.00936199
11.51 0.017743
11.52 0.0263368
11.53 0.0352287
11.54 0.0444681
11.55 0.0540878
11.56 0.0641227
11.57 0.0745983
11.58 0.0855302
11.59 0.0969301
11.6 0.108834
11.61 0.121177
11.62 0.133936
11.63 0.14708
11.64 0.160571
11.65 0.174367
11.66 0.188435
11.67 0.202714
11.68 0.217141
11.69 0.231666
11.7 0.246237
11.71 0.260807
11.72 0.275325
11.73 0.289732
11.74 0.303989
11.75 0.318056
11.76 0.331889
11.77 0.34545
11.78 0.358697
11.79 0.371567
11.8 0.384008
11.81 0.395997
11.82 0.407485
11.83 0.418422
11.84 0.428753
11.85 0.43842
11.86 0.447278
11.87 0.455329
11.88 0.462514
11.89 0.468765
11.9 0.474019
11.91 0.47821
11.92 0.481227
11.93 0.48297
11.94 0.483475
11.95 0.482702
11.96 0.48062
11.97 0.477209
11.98 0.472461
11.99 0.466251
12 0.458705
12.01 0.449881
12.02 0.439828
12.03 0.428604
12.04 0.41628
12.05 0.402909
12.06 0.388547
12.07 0.37338
12.08 0.357515
12.09 0.341062
12.1 0.324134
12.11 0.306843
12.12 0.289288
12.13 0.271605
12.14 0.253901
12.15 0.236272
12.16 0.218806
12.17 0.201582
12.18 0.184681
12.19 0.1682
12.2 0.15216
12.21 0.136606
12.22 0.121575
12.23 0.107099
12.24 0.0932018
