# xPDFsuite Configuration #
[PDF]
wavelength = 0.1
dataformat = QA
inputfile = BiMsol6_insitu_700 C-00489.xy
backgroundfile = Quartz2mm-dist500-00000.xy
mode = xray
bgscale = 0.0042
composition = Bi2Fe4O9
outputtype = gr
qmaxinst = 24.998449118
qmin = 0.1
qmax = 21.4986662415
rmax = 80.0
rmin = 0.0
rstep = 0.01
rpoly = 0.9

[Misc]
inputdir = C:/Data/Seafile/CPH/Beamtime/Desy Oct 20/In situ data/Processed/BiMsol6/PDF
savedir = C:/Data/Seafile/CPH/Beamtime/Desy Oct 20/In situ data/PDF/BiMsol6
backgroundfilefull = C:/Data/Seafile/CPH/Beamtime/Desy Oct 20/In situ data/Processed/Standard_Empty_Cap/Quartz2mm-dist500-00000.xy

#### start data
#S 1
#L r($\AA$)  G($\AA^{-2}$)
0 0
0.01 0.00619182
0.02 0.0120293
0.03 0.0172094
0.04 0.0214604
0.05 0.0245546
0.06 0.026319
0.07 0.0265649
0.08 0.0252393
0.09 0.0224845
0.1 0.0184185
0.11 0.0132228
0.12 0.00713491
0.13 0.000437111
0.14 -0.00655158
0.15 -0.0134356
0.16 -0.0198806
0.17 -0.0255739
0.18 -0.0302364
0.19 -0.0336364
0.2 -0.0355369
0.21 -0.0357798
0.22 -0.034469
0.23 -0.0316771
0.24 -0.0275541
0.25 -0.022322
0.26 -0.0162664
0.27 -0.00971521
0.28 -0.00312688
0.29 0.00309049
0.3 0.00854149
0.31 0.0128524
0.32 0.0156899
0.33 0.0167177
0.34 0.0156103
0.35 0.0124341
0.36 0.00720027
0.37 2.416e-05
0.38 -0.00887356
0.39 -0.0191703
0.4 -0.0304884
0.41 -0.0422025
0.42 -0.0537014
0.43 -0.0643636
0.44 -0.0735492
0.45 -0.0806237
0.46 -0.0849179
0.47 -0.0855688
0.48 -0.0824088
0.49 -0.0751021
0.5 -0.0634378
0.51 -0.0473436
0.52 -0.0268954
0.53 -0.0020508
0.54 0.0266135
0.55 0.0583503
0.56 0.0924639
0.57 0.128146
0.58 0.164499
0.59 0.200547
0.6 0.235038
0.61 0.267026
0.62 0.295545
0.63 0.319696
0.64 0.338675
0.65 0.351799
0.66 0.358111
0.67 0.357247
0.68 0.349418
0.69 0.334663
0.7 0.313207
0.71 0.285456
0.72 0.251984
0.73 0.213046
0.74 0.170163
0.75 0.124336
0.76 0.0766179
0.77 0.0280976
0.78 -0.0201333
0.79 -0.0668912
0.8 -0.111
0.81 -0.151682
0.82 -0.18818
0.83 -0.21988
0.84 -0.246326
0.85 -0.267229
0.86 -0.281896
0.87 -0.290928
0.88 -0.294664
0.89 -0.293515
0.9 -0.288019
0.91 -0.278822
0.92 -0.266567
0.93 -0.252071
0.94 -0.236365
0.95 -0.220254
0.96 -0.204504
0.97 -0.189821
0.98 -0.176831
0.99 -0.166304
1 -0.158526
1.01 -0.153695
1.02 -0.151938
1.03 -0.153255
1.04 -0.157528
1.05 -0.164594
1.06 -0.174221
1.07 -0.185753
1.08 -0.198716
1.09 -0.212606
1.1 -0.226909
1.11 -0.24112
1.12 -0.254685
1.13 -0.267156
1.14 -0.278212
1.15 -0.287586
1.16 -0.295096
1.17 -0.300647
1.18 -0.304199
1.19 -0.305693
1.2 -0.305496
1.21 -0.303844
1.22 -0.301018
1.23 -0.297338
1.24 -0.293139
1.25 -0.288768
1.26 -0.284596
1.27 -0.280912
1.28 -0.277956
1.29 -0.275912
1.3 -0.2749
1.31 -0.274983
1.32 -0.276251
1.33 -0.278486
1.34 -0.281534
1.35 -0.285191
1.36 -0.289212
1.37 -0.293328
1.38 -0.297227
1.39 -0.300583
1.4 -0.30315
1.41 -0.304698
1.42 -0.305044
1.43 -0.304055
1.44 -0.30166
1.45 -0.2977
1.46 -0.292407
1.47 -0.285929
1.48 -0.278468
1.49 -0.270276
1.5 -0.261645
1.51 -0.25291
1.52 -0.244462
1.53 -0.23664
1.54 -0.229763
1.55 -0.224115
1.56 -0.219935
1.57 -0.217408
1.58 -0.216836
1.59 -0.218106
1.6 -0.22114
1.61 -0.225813
1.62 -0.231926
1.63 -0.239218
1.64 -0.247385
1.65 -0.256026
1.66 -0.264672
1.67 -0.272906
1.68 -0.280313
1.69 -0.286496
1.7 -0.291092
1.71 -0.293589
1.72 -0.293831
1.73 -0.291704
1.74 -0.287122
1.75 -0.280077
1.76 -0.270646
1.77 -0.258936
1.78 -0.245085
1.79 -0.229608
1.8 -0.21287
1.81 -0.195272
1.82 -0.17724
1.83 -0.159206
1.84 -0.141662
1.85 -0.125037
1.86 -0.109662
1.87 -0.095832
1.88 -0.0837761
1.89 -0.0736531
1.9 -0.0655747
1.91 -0.0597125
1.92 -0.055766
1.93 -0.0535723
1.94 -0.0529068
1.95 -0.0534938
1.96 -0.0550186
1.97 -0.0571573
1.98 -0.0594987
1.99 -0.0616759
2 -0.0633733
2.01 -0.0643136
2.02 -0.0642692
2.03 -0.063068
2.04 -0.0604693
2.05 -0.0566005
2.06 -0.0515294
2.07 -0.0453956
2.08 -0.0384063
2.09 -0.0308283
2.1 -0.0229837
2.11 -0.0152862
2.12 -0.00813076
2.13 -0.00190363
2.14 0.00301967
2.15 0.00628896
2.16 0.00759339
2.17 0.00640872
2.18 0.00276043
2.19 -0.00343804
2.2 -0.0122118
2.21 -0.0235059
2.22 -0.0371855
2.23 -0.0531258
2.24 -0.0710459
2.25 -0.0904381
2.26 -0.110903
2.27 -0.132008
2.28 -0.153305
2.29 -0.174341
2.3 -0.194569
2.31 -0.213592
2.32 -0.231069
2.33 -0.246697
2.34 -0.260241
2.35 -0.271535
2.36 -0.280411
2.37 -0.286754
2.38 -0.290843
2.39 -0.292836
2.4 -0.292951
2.41 -0.291465
2.42 -0.288693
2.43 -0.284935
2.44 -0.280656
2.45 -0.276253
2.46 -0.272079
2.47 -0.268463
2.48 -0.265698
2.49 -0.264061
2.5 -0.26385
2.51 -0.265076
2.52 -0.267788
2.53 -0.271976
2.54 -0.277568
2.55 -0.284435
2.56 -0.292467
2.57 -0.301367
2.58 -0.310833
2.59 -0.320588
2.6 -0.330347
2.61 -0.339828
2.62 -0.348753
2.63 -0.356778
2.64 -0.363764
2.65 -0.369547
2.66 -0.374012
2.67 -0.377089
2.68 -0.378759
2.69 -0.378963
2.7 -0.377809
2.71 -0.375492
2.72 -0.372165
2.73 -0.368008
2.74 -0.363217
2.75 -0.357996
2.76 -0.352548
2.77 -0.347108
2.78 -0.341852
2.79 -0.336931
2.8 -0.332466
2.81 -0.328546
2.82 -0.32526
2.83 -0.322629
2.84 -0.32059
2.85 -0.319088
2.86 -0.318038
2.87 -0.317336
2.88 -0.316859
2.89 -0.316466
2.9 -0.315997
2.91 -0.315315
2.92 -0.314292
2.93 -0.312817
2.94 -0.310791
2.95 -0.308112
2.96 -0.3047
2.97 -0.300578
2.98 -0.295746
2.99 -0.290219
3 -0.284032
3.01 -0.277233
3.02 -0.269827
3.03 -0.261922
3.04 -0.253582
3.05 -0.244856
3.06 -0.235776
3.07 -0.226359
3.08 -0.216592
3.09 -0.206426
3.1 -0.195838
3.11 -0.184758
3.12 -0.173093
3.13 -0.160737
3.14 -0.147572
3.15 -0.133382
3.16 -0.118076
3.17 -0.101567
3.18 -0.0837507
3.19 -0.064544
3.2 -0.0438886
3.21 -0.0217264
3.22 0.00203945
3.23 0.0272094
3.24 0.0536858
3.25 0.0813304
3.26 0.109966
3.27 0.139377
3.28 0.169334
3.29 0.199505
3.3 0.229567
3.31 0.259206
3.32 0.288105
3.33 0.31595
3.34 0.342421
3.35 0.367044
3.36 0.389722
3.37 0.410242
3.38 0.42843
3.39 0.444155
3.4 0.457331
3.41 0.46776
3.42 0.475479
3.43 0.480696
3.44 0.483516
3.45 0.484081
3.46 0.482564
3.47 0.479161
3.48 0.473922
3.49 0.467284
3.5 0.45948
3.51 0.450735
3.52 0.441264
3.53 0.431265
3.54 0.420908
3.55 0.410365
3.56 0.39978
3.57 0.389248
3.58 0.378839
3.59 0.368598
3.6 0.358547
3.61 0.348707
3.62 0.339045
3.63 0.329533
3.64 0.320142
3.65 0.310839
3.66 0.3016
3.67 0.292408
3.68 0.283258
3.69 0.27416
3.7 0.265145
3.71 0.256259
3.72 0.247569
3.73 0.239157
3.74 0.231167
3.75 0.223698
3.76 0.216863
3.77 0.210789
3.78 0.205604
3.79 0.201432
3.8 0.198427
3.81 0.196777
3.82 0.196465
3.83 0.197558
3.84 0.200097
3.85 0.204103
3.86 0.20957
3.87 0.216582
3.88 0.225006
3.89 0.23471
3.9 0.24559
3.91 0.257525
3.92 0.27038
3.93 0.28402
3.94 0.298319
3.95 0.313045
3.96 0.328039
3.97 0.343145
3.98 0.358214
3.99 0.373106
4 0.387661
4.01 0.401752
4.02 0.415294
4.03 0.428197
4.04 0.440387
4.05 0.451798
4.06 0.462373
4.07 0.471974
4.08 0.480659
4.09 0.488403
4.1 0.495182
4.11 0.500976
4.12 0.505767
4.13 0.509474
4.14 0.51208
4.15 0.513624
4.16 0.514086
4.17 0.513446
4.18 0.511683
4.19 0.508778
4.2 0.50458
4.21 0.499202
4.22 0.492637
4.23 0.484882
4.24 0.475939
4.25 0.465819
4.26 0.454485
4.27 0.441945
4.28 0.428316
4.29 0.413641
4.3 0.397974
4.31 0.381373
4.32 0.363901
4.33 0.345553
4.34 0.326477
4.35 0.306756
4.36 0.286462
4.37 0.265664
4.38 0.244429
4.39 0.222807
4.4 0.200848
4.41 0.178633
4.42 0.156207
4.43 0.133608
4.44 0.110874
4.45 0.0880361
4.46 0.0651192
4.47 0.0421597
4.48 0.019188
4.49 -0.00376581
4.5 -0.0266684
4.51 -0.0494824
4.52 -0.07216
4.53 -0.094634
4.54 -0.11686
4.55 -0.138775
4.56 -0.160311
4.57 -0.181392
4.58 -0.201942
4.59 -0.221824
4.6 -0.240971
4.61 -0.259328
4.62 -0.276819
4.63 -0.293372
4.64 -0.308927
4.65 -0.323413
4.66 -0.336693
4.67 -0.348849
4.68 -0.359873
4.69 -0.36977
4.7 -0.37856
4.71 -0.386279
4.72 -0.392911
4.73 -0.398549
4.74 -0.403321
4.75 -0.407312
4.76 -0.410614
4.77 -0.413324
4.78 -0.415541
4.79 -0.417331
4.8 -0.418842
4.81 -0.420162
4.82 -0.421372
4.83 -0.422541
4.84 -0.42373
4.85 -0.424994
4.86 -0.42637
4.87 -0.427875
4.88 -0.429515
4.89 -0.431287
4.9 -0.433176
4.91 -0.435157
4.92 -0.437201
4.93 -0.439259
4.94 -0.441287
4.95 -0.443238
4.96 -0.445065
4.97 -0.446721
4.98 -0.448146
4.99 -0.449287
5 -0.450119
5.01 -0.450606
5.02 -0.450718
5.03 -0.450425
5.04 -0.449703
5.05 -0.448486
5.06 -0.446789
5.07 -0.444605
5.08 -0.441919
5.09 -0.438719
5.1 -0.434993
5.11 -0.430709
5.12 -0.42583
5.13 -0.420388
5.14 -0.414375
5.15 -0.407783
5.16 -0.400605
5.17 -0.392839
5.18 -0.384435
5.19 -0.375435
5.2 -0.365869
5.21 -0.355756
5.22 -0.345123
5.23 -0.334002
5.24 -0.322427
5.25 -0.310426
5.26 -0.298097
5.27 -0.285507
5.28 -0.272722
5.29 -0.259819
5.3 -0.246872
5.31 -0.233967
5.32 -0.221191
5.33 -0.208614
5.34 -0.196304
5.35 -0.184323
5.36 -0.172726
5.37 -0.161565
5.38 -0.150919
5.39 -0.140766
5.4 -0.131117
5.41 -0.121975
5.42 -0.11333
5.43 -0.105167
5.44 -0.0974906
5.45 -0.0902584
5.46 -0.0834136
5.47 -0.0769206
5.48 -0.0707444
5.49 -0.0648518
5.5 -0.0592144
5.51 -0.0538322
5.52 -0.0486612
5.53 -0.0436933
5.54 -0.0389282
5.55 -0.0343728
5.56 -0.0300407
5.57 -0.0259664
5.58 -0.02218
5.59 -0.0186933
5.6 -0.0155338
5.61 -0.0127268
5.62 -0.0102936
5.63 -0.00824926
5.64 -0.0066432
5.65 -0.00543047
5.66 -0.00458984
5.67 -0.00409112
5.68 -0.00389141
5.69 -0.00393527
5.7 -0.00415962
5.71 -0.00447687
5.72 -0.00478672
5.73 -0.00499526
5.74 -0.00500577
5.75 -0.00472177
5.76 -0.00405018
5.77 -0.00285095
5.78 -0.00107782
5.79 0.00131915
5.8 0.00438338
5.81 0.00814013
5.82 0.012595
5.83 0.0177545
5.84 0.0236083
5.85 0.0300384
5.86 0.0369657
5.87 0.0442948
5.88 0.0519175
5.89 0.0597154
5.9 0.0675571
5.91 0.0752975
5.92 0.0828125
5.93 0.0899863
5.94 0.0967149
5.95 0.102909
5.96 0.108484
5.97 0.113339
5.98 0.117511
5.99 0.121004
6 0.123845
6.01 0.126085
6.02 0.127797
6.03 0.129046
6.04 0.129971
6.05 0.13071
6.06 0.131392
6.07 0.132145
6.08 0.133096
6.09 0.134367
6.1 0.136116
6.11 0.138391
6.12 0.141254
6.13 0.144745
6.14 0.148875
6.15 0.15363
6.16 0.159
6.17 0.164898
6.18 0.171191
6.19 0.177759
6.2 0.18446
6.21 0.191141
6.22 0.197637
6.23 0.203718
6.24 0.209243
6.25 0.214051
6.26 0.217992
6.27 0.220933
6.28 0.222761
6.29 0.223319
6.3 0.222521
6.31 0.220418
6.32 0.217006
6.33 0.212315
6.34 0.206396
6.35 0.199328
6.36 0.191112
6.37 0.181982
6.38 0.172087
6.39 0.161571
6.4 0.150586
6.41 0.139283
6.42 0.127806
6.43 0.116314
6.44 0.10494
6.45 0.0937916
6.46 0.0829596
6.47 0.0725146
6.48 0.062507
6.49 0.0530123
6.5 0.0440046
6.51 0.0354606
6.52 0.0273511
6.53 0.019634
6.54 0.0122561
6.55 0.00516338
6.56 -0.00170609
6.57 -0.00844076
6.58 -0.0151029
6.59 -0.0217488
6.6 -0.0284263
6.61 -0.0351728
6.62 -0.0420227
6.63 -0.0489826
6.64 -0.0560439
6.65 -0.063188
6.66 -0.0703836
6.67 -0.0775879
6.68 -0.0847458
6.69 -0.0917795
6.7 -0.0986264
6.71 -0.105215
6.72 -0.111474
6.73 -0.117334
6.74 -0.122727
6.75 -0.12755
6.76 -0.131759
6.77 -0.135333
6.78 -0.13824
6.79 -0.140456
6.8 -0.141965
6.81 -0.142756
6.82 -0.142764
6.83 -0.142078
6.84 -0.140716
6.85 -0.138701
6.86 -0.136057
6.87 -0.132812
6.88 -0.128958
6.89 -0.124525
6.9 -0.119567
6.91 -0.1141
6.92 -0.108136
6.93 -0.101683
6.94 -0.0947431
6.95 -0.0872578
6.96 -0.0792741
6.97 -0.0707832
6.98 -0.0617731
6.99 -0.0522308
7 -0.0421441
7.01 -0.0314739
7.02 -0.0202028
7.03 -0.00836607
7.04 0.00403272
7.05 0.0169835
7.06 0.0304692
7.07 0.0444651
7.08 0.0589839
7.09 0.0739373
7.1 0.0892693
7.11 0.104924
7.12 0.120839
7.13 0.136948
7.14 0.15318
7.15 0.169453
7.16 0.185682
7.17 0.20179
7.18 0.2177
7.19 0.233338
7.2 0.24863
7.21 0.263462
7.22 0.277789
7.23 0.29156
7.24 0.304716
7.25 0.317205
7.26 0.328977
7.27 0.339963
7.28 0.350067
7.29 0.359319
7.3 0.367681
7.31 0.37512
7.32 0.381603
7.33 0.3871
7.34 0.391495
7.35 0.394802
7.36 0.39703
7.37 0.398152
7.38 0.398144
7.39 0.396982
7.4 0.394625
7.41 0.390953
7.42 0.386072
7.43 0.37997
7.44 0.372643
7.45 0.364091
7.46 0.354322
7.47 0.343267
7.48 0.330977
7.49 0.317541
7.5 0.302999
7.51 0.287398
7.52 0.270794
7.53 0.25325
7.54 0.234757
7.55 0.215503
7.56 0.195581
7.57 0.175091
7.58 0.154139
7.59 0.132839
7.6 0.111302
7.61 0.0896699
7.62 0.0680814
7.63 0.0466636
7.64 0.0255442
7.65 0.00484985
7.66 -0.015295
7.67 -0.0346821
7.68 -0.0532575
7.69 -0.0709185
7.7 -0.0875671
7.71 -0.103115
7.72 -0.117487
7.73 -0.130555
7.74 -0.142236
7.75 -0.152585
7.76 -0.161583
7.77 -0.16923
7.78 -0.175539
7.79 -0.180541
7.8 -0.184157
7.81 -0.186565
7.82 -0.187858
7.83 -0.188125
7.84 -0.187463
7.85 -0.185976
7.86 -0.183753
7.87 -0.180898
7.88 -0.17758
7.89 -0.173912
7.9 -0.17
7.91 -0.165946
7.92 -0.16184
7.93 -0.157772
7.94 -0.153812
7.95 -0.150009
7.96 -0.146398
7.97 -0.143
7.98 -0.139819
7.99 -0.136852
8 -0.134084
8.01 -0.131462
8.02 -0.12894
8.03 -0.126469
8.04 -0.123993
8.05 -0.121458
8.06 -0.118795
8.07 -0.115955
8.08 -0.112901
8.09 -0.109603
8.1 -0.106041
8.11 -0.102209
8.12 -0.0981095
8.13 -0.0937481
8.14 -0.0891901
8.15 -0.0844872
8.16 -0.0797024
8.17 -0.0749077
8.18 -0.0701824
8.19 -0.0656257
8.2 -0.0613313
8.21 -0.0573715
8.22 -0.053821
8.23 -0.0507445
8.24 -0.0481946
8.25 -0.0462113
8.26 -0.0448801
8.27 -0.0441333
8.28 -0.0439484
8.29 -0.0442837
8.3 -0.0450784
8.31 -0.0462543
8.32 -0.0477275
8.33 -0.049374
8.34 -0.0510586
8.35 -0.052658
8.36 -0.0540473
8.37 -0.0551047
8.38 -0.0557153
8.39 -0.0557049
8.4 -0.0550342
8.41 -0.0536411
8.42 -0.0514803
8.43 -0.0485292
8.44 -0.0447891
8.45 -0.0402532
8.46 -0.0349626
8.47 -0.0290491
8.48 -0.0226099
8.49 -0.0157587
8.5 -0.00862207
8.51 -0.0013362
8.52 0.00594468
8.53 0.0130633
8.54 0.0198843
8.55 0.0262819
8.56 0.0321433
8.57 0.0373728
8.58 0.0418677
8.59 0.0455316
8.6 0.0483991
8.61 0.0504681
8.62 0.0517596
8.63 0.0523155
8.64 0.0521975
8.65 0.0514396
8.66 0.0501799
8.67 0.0485379
8.68 0.0466192
8.69 0.0445293
8.7 0.0423688
8.71 0.0402325
8.72 0.0382165
8.73 0.0363774
8.74 0.0347573
8.75 0.0333788
8.76 0.032244
8.77 0.0313349
8.78 0.0306238
8.79 0.030039
8.8 0.0294987
8.81 0.0289177
8.82 0.0282029
8.83 0.0272574
8.84 0.0259792
8.85 0.0242261
8.86 0.021953
8.87 0.019091
8.88 0.0155867
8.89 0.0114045
8.9 0.00652827
8.91 0.000919207
8.92 -0.00538211
8.93 -0.0122902
8.94 -0.0197377
8.95 -0.0276423
8.96 -0.0359089
8.97 -0.0444342
8.98 -0.0531136
8.99 -0.0618102
9 -0.0704187
9.01 -0.0788415
9.02 -0.0869926
9.03 -0.0947999
9.04 -0.102185
9.05 -0.109104
9.06 -0.115571
9.07 -0.121595
9.08 -0.127202
9.09 -0.132435
9.1 -0.137354
9.11 -0.142013
9.12 -0.146523
9.13 -0.150972
9.14 -0.155446
9.15 -0.160024
9.16 -0.164778
9.17 -0.169783
9.18 -0.175097
9.19 -0.180724
9.2 -0.18667
9.21 -0.192917
9.22 -0.199427
9.23 -0.206144
9.24 -0.212996
9.25 -0.219866
9.26 -0.226646
9.27 -0.233217
9.28 -0.239458
9.29 -0.245246
9.3 -0.25044
9.31 -0.254877
9.32 -0.258514
9.33 -0.261268
9.34 -0.263078
9.35 -0.263902
9.36 -0.263723
9.37 -0.262458
9.38 -0.260194
9.39 -0.257015
9.4 -0.25299
9.41 -0.248205
9.42 -0.242758
9.43 -0.236747
9.44 -0.230264
9.45 -0.223473
9.46 -0.216478
9.47 -0.209379
9.48 -0.202259
9.49 -0.195189
9.5 -0.188232
9.51 -0.181418
9.52 -0.174751
9.53 -0.168217
9.54 -0.161784
9.55 -0.155402
9.56 -0.149004
9.57 -0.142493
9.58 -0.135782
9.59 -0.128777
9.6 -0.121383
9.61 -0.113511
9.62 -0.105075
9.63 -0.0959588
9.64 -0.0860999
9.65 -0.0754946
9.66 -0.0641219
9.67 -0.05198
9.68 -0.0390868
9.69 -0.0254793
9.7 -0.0111444
9.71 0.00376183
9.72 0.01915
9.73 0.0349216
9.74 0.0509708
9.75 0.0671885
9.76 0.0834624
9.77 0.0996699
9.78 0.11571
9.79 0.131495
9.8 0.146948
9.81 0.162005
9.82 0.176617
9.83 0.190699
9.84 0.204273
9.85 0.217345
9.86 0.229922
9.87 0.242024
9.88 0.253674
9.89 0.26489
9.9 0.275692
9.91 0.286143
9.92 0.29627
9.93 0.306091
9.94 0.315618
9.95 0.324851
9.96 0.333749
9.97 0.342308
9.98 0.350498
9.99 0.358274
10 0.365581
10.01 0.372358
10.02 0.378518
10.03 0.383946
10.04 0.388631
10.05 0.392512
10.06 0.395535
10.07 0.397659
10.08 0.398854
10.09 0.399028
10.1 0.39823
10.11 0.396516
10.12 0.393927
10.13 0.39052
10.14 0.386368
10.15 0.381549
10.16 0.376131
10.17 0.370285
10.18 0.36413
10.19 0.35778
10.2 0.351354
10.21 0.344962
10.22 0.338727
10.23 0.332748
10.24 0.327097
10.25 0.321834
10.26 0.317003
10.27 0.312632
10.28 0.308732
10.29 0.305341
10.3 0.302378
10.31 0.299799
10.32 0.29755
10.33 0.295564
10.34 0.29377
10.35 0.292091
10.36 0.290436
10.37 0.288721
10.38 0.286874
10.39 0.284826
10.4 0.282517
10.41 0.279897
10.42 0.276881
10.43 0.273477
10.44 0.269667
10.45 0.265442
10.46 0.260803
10.47 0.255755
10.48 0.25029
10.49 0.244418
10.5 0.238181
10.51 0.231595
10.52 0.224671
10.53 0.217418
10.54 0.209837
10.55 0.201892
10.56 0.193599
10.57 0.184945
10.58 0.175909
10.59 0.166463
10.6 0.156576
10.61 0.146197
10.62 0.13527
10.63 0.123805
10.64 0.111779
10.65 0.0991758
10.66 0.0859896
10.67 0.0722237
10.68 0.057845
10.69 0.0429235
10.7 0.0275183
10.71 0.0116863
10.72 -0.00450379
10.73 -0.0209728
10.74 -0.0376353
10.75 -0.0543892
10.76 -0.0711195
10.77 -0.0877258
10.78 -0.10411
10.79 -0.120179
10.8 -0.135848
10.81 -0.150998
10.82 -0.165582
10.83 -0.179573
10.84 -0.192944
10.85 -0.205684
10.86 -0.2178
10.87 -0.229304
10.88 -0.240193
10.89 -0.250583
10.9 -0.26054
10.91 -0.270139
10.92 -0.279459
10.93 -0.288582
10.94 -0.297588
10.95 -0.306567
10.96 -0.31559
10.97 -0.324715
10.98 -0.333984
10.99 -0.343426
11 -0.353053
11.01 -0.362875
11.02 -0.372845
11.03 -0.382916
11.04 -0.393028
11.05 -0.403105
11.06 -0.413061
11.07 -0.422781
11.08 -0.432145
11.09 -0.441059
11.1 -0.449419
11.11 -0.457123
11.12 -0.464076
11.13 -0.470192
11.14 -0.475291
11.15 -0.479406
11.16 -0.482503
11.17 -0.484558
11.18 -0.485565
11.19 -0.485534
11.2 -0.484443
11.21 -0.482315
11.22 -0.479275
11.23 -0.475385
11.24 -0.470713
11.25 -0.465333
11.26 -0.459317
11.27 -0.452688
11.28 -0.445568
11.29 -0.438025
11.3 -0.430109
11.31 -0.421861
11.32 -0.41331
11.33 -0.404465
11.34 -0.395316
11.35 -0.385878
11.36 -0.376133
11.37 -0.366055
11.38 -0.35561
11.39 -0.344761
11.4 -0.333422
11.41 -0.321578
11.42 -0.309202
11.43 -0.296263
11.44 -0.282738
11.45 -0.26861
11.46 -0.25386
11.47 -0.238456
11.48 -0.222477
11.49 -0.205957
11.5 -0.188943
11.51 -0.171495
11.52 -0.153682
11.53 -0.135566
11.54 -0.117255
11.55 -0.0988537
11.56 -0.0804556
11.57 -0.062156
11.58 -0.0440484
11.59 -0.0262274
11.6 -0.00881979
11.61 0.00813114
11.62 0.0245602
11.63 0.0404124
11.64 0.0556439
11.65 0.0702217
11.66 0.0840792
11.67 0.0972166
11.68 0.109671
11.69 0.121454
11.7 0.132586
11.71 0.143094
11.72 0.153007
11.73 0.162303
11.74 0.171085
11.75 0.179392
11.76 0.18726
11.77 0.194721
11.78 0.201805
11.79 0.20852
11.8 0.214884
11.81 0.220932
11.82 0.22667
11.83 0.232097
11.84 0.23721
11.85 0.241998
11.86 0.246407
11.87 0.250449
11.88 0.254106
11.89 0.257351
11.9 0.260159
11.91 0.262504
11.92 0.264335
11.93 0.265611
11.94 0.266342
11.95 0.266506
11.96 0.266085
11.97 0.26506
11.98 0.263417
11.99 0.26108
12 0.258087
12.01 0.25444
12.02 0.250133
12.03 0.24516
12.04 0.239516
12.05 0.233175
12.06 0.226097
12.07 0.218336
12.08 0.209889
12.09 0.200753
12.1 0.190926
12.11 0.180407
12.12 0.169138
12.13 0.157158
12.14 0.144495
12.15 0.131158
12.16 0.117157
