# xPDFsuite Configuration #
[PDF]
wavelength = 0.1
dataformat = QA
inputfile = BiMsol6_insitu_700 C-00613.xy
backgroundfile = Quartz2mm-dist500-00000.xy
mode = xray
bgscale = 0.0042
composition = Bi2Fe4O9
outputtype = gr
qmaxinst = 24.998449118
qmin = 0.1
qmax = 21.4986662415
rmax = 80.0
rmin = 0.0
rstep = 0.01
rpoly = 0.9

[Misc]
inputdir = C:/Data/Seafile/CPH/Beamtime/Desy Oct 20/In situ data/Processed/BiMsol6/PDF
savedir = C:/Data/Seafile/CPH/Beamtime/Desy Oct 20/In situ data/PDF/BiMsol6
backgroundfilefull = C:/Data/Seafile/CPH/Beamtime/Desy Oct 20/In situ data/Processed/Standard_Empty_Cap/Quartz2mm-dist500-00000.xy

#### start data
#S 1
#L r($\AA$)  G($\AA^{-2}$)
0 0
0.01 0.00586597
0.02 0.0113972
0.03 0.0163073
0.04 0.0203393
0.05 0.0232776
0.06 0.0249582
0.07 0.0252019
0.08 0.0239569
0.09 0.0213566
0.1 0.017511
0.11 0.0125902
0.12 0.00681713
0.13 0.000457338
0.14 -0.00618984
0.15 -0.0127499
0.16 -0.0189066
0.17 -0.0243635
0.18 -0.0288554
0.19 -0.0321611
0.2 -0.034054
0.21 -0.0343807
0.22 -0.0332353
0.23 -0.0306826
0.24 -0.0268603
0.25 -0.0219744
0.26 -0.0162915
0.27 -0.0101168
0.28 -0.00388328
0.29 0.00202319
0.3 0.00722803
0.31 0.0113759
0.32 0.014148
0.33 0.0152222
0.34 0.0142843
0.35 0.0113891
0.36 0.00653951
0.37 -0.000163052
0.38 -0.00851763
0.39 -0.0182263
0.4 -0.0289415
0.41 -0.0400752
0.42 -0.0510505
0.43 -0.0612797
0.44 -0.0701554
0.45 -0.0770727
0.46 -0.0813916
0.47 -0.0822858
0.48 -0.0795807
0.49 -0.0729437
0.5 -0.0621586
0.51 -0.0471395
0.52 -0.0279404
0.53 -0.00449684
0.54 0.0226617
0.55 0.0528384
0.56 0.0853858
0.57 0.119546
0.58 0.154474
0.59 0.189244
0.6 0.222678
0.61 0.253853
0.62 0.281836
0.63 0.305756
0.64 0.324823
0.65 0.338362
0.66 0.345431
0.67 0.345645
0.68 0.33917
0.69 0.326009
0.7 0.306343
0.71 0.280526
0.72 0.249077
0.73 0.212191
0.74 0.171321
0.75 0.127409
0.76 0.0814574
0.77 0.0345071
0.78 -0.0123902
0.79 -0.0580967
0.8 -0.101465
0.81 -0.141706
0.82 -0.178061
0.83 -0.209905
0.84 -0.236759
0.85 -0.258304
0.86 -0.273823
0.87 -0.283852
0.88 -0.288679
0.89 -0.288665
0.9 -0.284299
0.91 -0.27618
0.92 -0.264903
0.93 -0.251237
0.94 -0.236197
0.95 -0.220564
0.96 -0.205094
0.97 -0.190494
0.98 -0.177394
0.99 -0.166564
1 -0.15833
1.01 -0.152922
1.02 -0.150502
1.03 -0.151104
1.04 -0.154647
1.05 -0.161008
1.06 -0.169993
1.07 -0.18097
1.08 -0.193487
1.09 -0.207057
1.1 -0.22117
1.11 -0.235323
1.12 -0.24896
1.13 -0.261611
1.14 -0.272926
1.15 -0.282611
1.16 -0.29045
1.17 -0.296316
1.18 -0.300133
1.19 -0.301798
1.2 -0.301656
1.21 -0.29992
1.22 -0.296855
1.23 -0.292771
1.24 -0.288
1.25 -0.28289
1.26 -0.277832
1.27 -0.27315
1.28 -0.269117
1.29 -0.265952
1.3 -0.263821
1.31 -0.26283
1.32 -0.263129
1.33 -0.264536
1.34 -0.266936
1.35 -0.270157
1.36 -0.27398
1.37 -0.27815
1.38 -0.282376
1.39 -0.286327
1.4 -0.289723
1.41 -0.292306
1.42 -0.293855
1.43 -0.294193
1.44 -0.293196
1.45 -0.290645
1.46 -0.286704
1.47 -0.281465
1.48 -0.275073
1.49 -0.267731
1.5 -0.259689
1.51 -0.251234
1.52 -0.242726
1.53 -0.23452
1.54 -0.22694
1.55 -0.220289
1.56 -0.214839
1.57 -0.210817
1.58 -0.208568
1.59 -0.208062
1.6 -0.20929
1.61 -0.2122
1.62 -0.216662
1.63 -0.222481
1.64 -0.229427
1.65 -0.23717
1.66 -0.245261
1.67 -0.253308
1.68 -0.26091
1.69 -0.267666
1.7 -0.273197
1.71 -0.276984
1.72 -0.278796
1.73 -0.278452
1.74 -0.275792
1.75 -0.270733
1.76 -0.263273
1.77 -0.253428
1.78 -0.24124
1.79 -0.227158
1.8 -0.211486
1.81 -0.194573
1.82 -0.176807
1.83 -0.158598
1.84 -0.140397
1.85 -0.122666
1.86 -0.105787
1.87 -0.0901002
1.88 -0.0758976
1.89 -0.0634106
1.9 -0.0528324
1.91 -0.0444304
1.92 -0.0380075
1.93 -0.0334906
1.94 -0.03074
1.95 -0.0295565
1.96 -0.0296912
1.97 -0.0309043
1.98 -0.0328161
1.99 -0.0350525
2 -0.0372953
2.01 -0.0392461
2.02 -0.0406399
2.03 -0.0412523
2.04 -0.0408003
2.05 -0.0392898
2.06 -0.0367011
2.07 -0.033083
2.08 -0.0285513
2.09 -0.0232849
2.1 -0.0175079
2.11 -0.0115524
2.12 -0.00577372
2.13 -0.000519219
2.14 0.00385701
2.15 0.00700826
2.16 0.00860887
2.17 0.00813848
2.18 0.00552656
2.19 0.000616349
2.2 -0.00669603
2.21 -0.0164425
2.22 -0.0285805
2.23 -0.0430874
2.24 -0.0597906
2.25 -0.0782573
2.26 -0.0981596
2.27 -0.119125
2.28 -0.140747
2.29 -0.1626
2.3 -0.18419
2.31 -0.205063
2.32 -0.22483
2.33 -0.243136
2.34 -0.259673
2.35 -0.274192
2.36 -0.286429
2.37 -0.296155
2.38 -0.303534
2.39 -0.308618
2.4 -0.311528
2.41 -0.312448
2.42 -0.311618
2.43 -0.309222
2.44 -0.305711
2.45 -0.301472
2.46 -0.29686
2.47 -0.292223
2.48 -0.287893
2.49 -0.284192
2.5 -0.281475
2.51 -0.279885
2.52 -0.279572
2.53 -0.280628
2.54 -0.283087
2.55 -0.286926
2.56 -0.292154
2.57 -0.298569
2.58 -0.305933
2.59 -0.314028
2.6 -0.322609
2.61 -0.331419
2.62 -0.34019
2.63 -0.348605
2.64 -0.356433
2.65 -0.363462
2.66 -0.369508
2.67 -0.374426
2.68 -0.378114
2.69 -0.380427
2.7 -0.381371
2.71 -0.381053
2.72 -0.379553
2.73 -0.376985
2.74 -0.373494
2.75 -0.369244
2.76 -0.364377
2.77 -0.359169
2.78 -0.35381
2.79 -0.348485
2.8 -0.343363
2.81 -0.338591
2.82 -0.334325
2.83 -0.330677
2.84 -0.32767
2.85 -0.32533
2.86 -0.323651
2.87 -0.322596
2.88 -0.322104
2.89 -0.322129
2.9 -0.322506
2.91 -0.323109
2.92 -0.323808
2.93 -0.324472
2.94 -0.324969
2.95 -0.325156
2.96 -0.324889
2.97 -0.32409
2.98 -0.322673
2.99 -0.320568
3 -0.317718
3.01 -0.314083
3.02 -0.309554
3.03 -0.304173
3.04 -0.297952
3.05 -0.290887
3.06 -0.282976
3.07 -0.274216
3.08 -0.264574
3.09 -0.253988
3.1 -0.242508
3.11 -0.230104
3.12 -0.216734
3.13 -0.202354
3.14 -0.186908
3.15 -0.170239
3.16 -0.152342
3.17 -0.133197
3.18 -0.11276
3.19 -0.0909943
3.2 -0.0678806
3.21 -0.0433911
3.22 -0.0174548
3.23 0.00974286
3.24 0.0381174
3.25 0.067555
3.26 0.0979119
3.27 0.129015
3.28 0.160688
3.29 0.192653
3.3 0.224637
3.31 0.256373
3.32 0.287583
3.33 0.317985
3.34 0.347285
3.35 0.375042
3.36 0.401123
3.37 0.42529
3.38 0.447331
3.39 0.467064
3.4 0.484337
3.41 0.49887
3.42 0.510601
3.43 0.51964
3.44 0.525995
3.45 0.529709
3.46 0.53086
3.47 0.529553
3.48 0.525672
3.49 0.519658
3.5 0.511689
3.51 0.501958
3.52 0.49066
3.53 0.477994
3.54 0.46411
3.55 0.449215
3.56 0.433565
3.57 0.41733
3.58 0.400669
3.59 0.383724
3.6 0.366625
3.61 0.349493
3.62 0.332442
3.63 0.315559
3.64 0.298921
3.65 0.282597
3.66 0.266651
3.67 0.251163
3.68 0.236216
3.69 0.221836
3.7 0.208081
3.71 0.195015
3.72 0.182704
3.73 0.171218
3.74 0.16072
3.75 0.151232
3.76 0.14281
3.77 0.135529
3.78 0.129464
3.79 0.124684
3.8 0.121295
3.81 0.119442
3.82 0.11905
3.83 0.120151
3.84 0.122765
3.85 0.126897
3.86 0.132541
3.87 0.139792
3.88 0.148535
3.89 0.158664
3.9 0.170111
3.91 0.182798
3.92 0.196635
3.93 0.21154
3.94 0.22747
3.95 0.244209
3.96 0.261642
3.97 0.27965
3.98 0.298113
3.99 0.316911
4 0.335933
4.01 0.355041
4.02 0.374111
4.03 0.393033
4.04 0.411696
4.05 0.429995
4.06 0.447821
4.07 0.465003
4.08 0.481493
4.09 0.497195
4.1 0.512012
4.11 0.525851
4.12 0.53862
4.13 0.550155
4.14 0.560361
4.15 0.569225
4.16 0.576674
4.17 0.582638
4.18 0.587059
4.19 0.589886
4.2 0.590889
4.21 0.590216
4.22 0.587861
4.23 0.583821
4.24 0.57811
4.25 0.57075
4.26 0.561704
4.27 0.551002
4.28 0.538815
4.29 0.525219
4.3 0.510293
4.31 0.494126
4.32 0.476809
4.33 0.458339
4.34 0.438912
4.35 0.418635
4.36 0.397595
4.37 0.375876
4.38 0.353552
4.39 0.330675
4.4 0.307292
4.41 0.283496
4.42 0.259328
4.43 0.234826
4.44 0.21002
4.45 0.184937
4.46 0.15958
4.47 0.133994
4.48 0.108211
4.49 0.082263
4.5 0.0561854
4.51 0.0300224
4.52 0.00382738
4.53 -0.0223262
4.54 -0.0483615
4.55 -0.0741938
4.56 -0.0997293
4.57 -0.124866
4.58 -0.149494
4.59 -0.173443
4.6 -0.196606
4.61 -0.218893
4.62 -0.240192
4.63 -0.2604
4.64 -0.279421
4.65 -0.297152
4.66 -0.313406
4.67 -0.328267
4.68 -0.34171
4.69 -0.353727
4.7 -0.364336
4.71 -0.37357
4.72 -0.381402
4.73 -0.387946
4.74 -0.393362
4.75 -0.39776
4.76 -0.401262
4.77 -0.403996
4.78 -0.406094
4.79 -0.407655
4.8 -0.408878
4.81 -0.409889
4.82 -0.410803
4.83 -0.411723
4.84 -0.412739
4.85 -0.413936
4.86 -0.415374
4.87 -0.417074
4.88 -0.419048
4.89 -0.42129
4.9 -0.423779
4.91 -0.426475
4.92 -0.429338
4.93 -0.43228
4.94 -0.435227
4.95 -0.4381
4.96 -0.440818
4.97 -0.443299
4.98 -0.445445
4.99 -0.447163
5 -0.448408
5.01 -0.449125
5.02 -0.449265
5.03 -0.448791
5.04 -0.447677
5.05 -0.44584
5.06 -0.44333
5.07 -0.440167
5.08 -0.436364
5.09 -0.431945
5.1 -0.426937
5.11 -0.421357
5.12 -0.415223
5.13 -0.408617
5.14 -0.401582
5.15 -0.394156
5.16 -0.386379
5.17 -0.378289
5.18 -0.3699
5.19 -0.361268
5.2 -0.352433
5.21 -0.343425
5.22 -0.334277
5.23 -0.325017
5.24 -0.315674
5.25 -0.306281
5.26 -0.296875
5.27 -0.287491
5.28 -0.278164
5.29 -0.268931
5.3 -0.259829
5.31 -0.250916
5.32 -0.242229
5.33 -0.233803
5.34 -0.225677
5.35 -0.217888
5.36 -0.210472
5.37 -0.203467
5.38 -0.196943
5.39 -0.190878
5.4 -0.185289
5.41 -0.180186
5.42 -0.175572
5.43 -0.171445
5.44 -0.167828
5.45 -0.164696
5.46 -0.162004
5.47 -0.159726
5.48 -0.157836
5.49 -0.1563
5.5 -0.155088
5.51 -0.154193
5.52 -0.153546
5.53 -0.153113
5.54 -0.152863
5.55 -0.152766
5.56 -0.152792
5.57 -0.152919
5.58 -0.153116
5.59 -0.153354
5.6 -0.153607
5.61 -0.153849
5.62 -0.154052
5.63 -0.154186
5.64 -0.154203
5.65 -0.154069
5.66 -0.153742
5.67 -0.153173
5.68 -0.152308
5.69 -0.151088
5.7 -0.14943
5.71 -0.147242
5.72 -0.144488
5.73 -0.1411
5.74 -0.137011
5.75 -0.132158
5.76 -0.126485
5.77 -0.119854
5.78 -0.112293
5.79 -0.103796
5.8 -0.0943566
5.81 -0.0839818
5.82 -0.0726969
5.83 -0.0605178
5.84 -0.0474739
5.85 -0.0337189
5.86 -0.01935
5.87 -0.00447813
5.88 0.0107738
5.89 0.0262739
5.9 0.0418807
5.91 0.0574293
5.92 0.0727769
5.93 0.0877885
5.94 0.102338
5.95 0.116309
5.96 0.129585
5.97 0.142019
5.98 0.153616
5.99 0.16434
6 0.174173
6.01 0.18312
6.02 0.191204
6.03 0.198414
6.04 0.204847
6.05 0.210617
6.06 0.215811
6.07 0.220525
6.08 0.224856
6.09 0.228901
6.1 0.232743
6.11 0.236491
6.12 0.240212
6.13 0.243959
6.14 0.247764
6.15 0.251644
6.16 0.255592
6.17 0.259576
6.18 0.263537
6.19 0.267405
6.2 0.271092
6.21 0.274497
6.22 0.277508
6.23 0.279931
6.24 0.281694
6.25 0.282678
6.26 0.282769
6.27 0.281864
6.28 0.279873
6.29 0.27666
6.3 0.272152
6.31 0.266399
6.32 0.259397
6.33 0.251166
6.34 0.241748
6.35 0.231209
6.36 0.219534
6.37 0.206935
6.38 0.193546
6.39 0.179496
6.4 0.164924
6.41 0.149968
6.42 0.134765
6.43 0.119463
6.44 0.104204
6.45 0.0890997
6.46 0.0742471
6.47 0.0597274
6.48 0.0456038
6.49 0.0319647
6.5 0.0188036
6.51 0.0061129
6.52 -0.00612181
6.53 -0.0179298
6.54 -0.0293532
6.55 -0.0404361
6.56 -0.0512318
6.57 -0.0618329
6.58 -0.0723044
6.59 -0.082709
6.6 -0.0931039
6.61 -0.103539
6.62 -0.114062
6.63 -0.124699
6.64 -0.135458
6.65 -0.146336
6.66 -0.157316
6.67 -0.168367
6.68 -0.179445
6.69 -0.190482
6.7 -0.201406
6.71 -0.21214
6.72 -0.2226
6.73 -0.232695
6.74 -0.242335
6.75 -0.251382
6.76 -0.259749
6.77 -0.267374
6.78 -0.274178
6.79 -0.280086
6.8 -0.285031
6.81 -0.288947
6.82 -0.291669
6.83 -0.29327
6.84 -0.293719
6.85 -0.292992
6.86 -0.291071
6.87 -0.287947
6.88 -0.283541
6.89 -0.27786
6.9 -0.270978
6.91 -0.262904
6.92 -0.25365
6.93 -0.243231
6.94 -0.231664
6.95 -0.218842
6.96 -0.204914
6.97 -0.189909
6.98 -0.173854
6.99 -0.156779
7 -0.138719
7.01 -0.119667
7.02 -0.0996575
7.03 -0.0788016
7.04 -0.0571528
7.05 -0.0347698
7.06 -0.0117159
7.07 0.0119406
7.08 0.0361737
7.09 0.0608508
7.1 0.0858838
7.11 0.11119
7.12 0.136684
7.13 0.16228
7.14 0.187891
7.15 0.213417
7.16 0.238776
7.17 0.263887
7.18 0.288673
7.19 0.31306
7.2 0.336978
7.21 0.360303
7.22 0.383
7.23 0.405021
7.24 0.426307
7.25 0.446801
7.26 0.466446
7.27 0.485157
7.28 0.502812
7.29 0.519432
7.3 0.534955
7.31 0.54932
7.32 0.562459
7.33 0.574305
7.34 0.584671
7.35 0.593538
7.36 0.600882
7.37 0.606631
7.38 0.610717
7.39 0.613072
7.4 0.613605
7.41 0.612102
7.42 0.6087
7.43 0.603366
7.44 0.596081
7.45 0.586839
7.46 0.575648
7.47 0.562401
7.48 0.547194
7.49 0.53018
7.5 0.511441
7.51 0.491075
7.52 0.469196
7.53 0.445925
7.54 0.421293
7.55 0.395609
7.56 0.369039
7.57 0.341759
7.58 0.313945
7.59 0.285781
7.6 0.257447
7.61 0.229151
7.62 0.201073
7.63 0.173379
7.64 0.146224
7.65 0.119753
7.66 0.0940984
7.67 0.0694968
7.68 0.0459605
7.69 0.0235707
7.7 0.00239869
7.71 -0.017499
7.72 -0.0360805
7.73 -0.0532525
7.74 -0.0689706
7.75 -0.0833286
7.76 -0.0963378
7.77 -0.108019
7.78 -0.118402
7.79 -0.127524
7.8 -0.135311
7.81 -0.141919
7.82 -0.147423
7.83 -0.151879
7.84 -0.155344
7.85 -0.15788
7.86 -0.159517
7.87 -0.160287
7.88 -0.160319
7.89 -0.159672
7.9 -0.158401
7.91 -0.156561
7.92 -0.154204
7.93 -0.151342
7.94 -0.148056
7.95 -0.144402
7.96 -0.140422
7.97 -0.136151
7.98 -0.131624
7.99 -0.126867
8 -0.1219
8.01 -0.116768
8.02 -0.111492
8.03 -0.106093
8.04 -0.10059
8.05 -0.0950013
8.06 -0.0893379
8.07 -0.0836215
8.08 -0.0778709
8.09 -0.0721034
8.1 -0.0663372
8.11 -0.0605924
8.12 -0.0548916
8.13 -0.0492682
8.14 -0.043744
8.15 -0.038348
8.16 -0.0331112
8.17 -0.0280662
8.18 -0.0232468
8.19 -0.0187071
8.2 -0.0144812
8.21 -0.0105884
8.22 -0.00705858
8.23 -0.00391835
8.24 -0.00118995
8.25 0.00110824
8.26 0.00291662
8.27 0.00428262
8.28 0.0052123
8.29 0.00571976
8.3 0.00582729
8.31 0.00556518
8.32 0.00495531
8.33 0.00404929
8.34 0.00291918
8.35 0.00162175
8.36 0.000216695
8.37 -0.00123494
8.38 -0.00267252
8.39 -0.00402373
8.4 -0.00523732
8.41 -0.00626752
8.42 -0.00707604
8.43 -0.00763407
8.44 -0.00792354
8.45 -0.00792581
8.46 -0.00764234
8.47 -0.00711465
8.48 -0.0063767
8.49 -0.00547394
8.5 -0.00446233
8.51 -0.00340694
8.52 -0.00239088
8.53 -0.00149923
8.54 -0.000812953
8.55 -0.00041391
8.56 -0.000381838
8.57 -0.000791994
8.58 -0.00173258
8.59 -0.00329789
8.6 -0.00549052
8.61 -0.00834383
8.62 -0.0118777
8.63 -0.0160981
8.64 -0.0209965
8.65 -0.0266047
8.66 -0.0328427
8.67 -0.0396402
8.68 -0.0469363
8.69 -0.0546616
8.7 -0.0627407
8.71 -0.0710986
8.72 -0.0796574
8.73 -0.0883131
8.74 -0.0969899
8.75 -0.105618
8.76 -0.114133
8.77 -0.122483
8.78 -0.130604
8.79 -0.138469
8.8 -0.146065
8.81 -0.153386
8.82 -0.160432
8.83 -0.167213
8.84 -0.173745
8.85 -0.180035
8.86 -0.186136
8.87 -0.192079
8.88 -0.197895
8.89 -0.20361
8.9 -0.209248
8.91 -0.214825
8.92 -0.220351
8.93 -0.22583
8.94 -0.231253
8.95 -0.236604
8.96 -0.241857
8.97 -0.246977
8.98 -0.251898
8.99 -0.25659
9 -0.261001
9.01 -0.26508
9.02 -0.268774
9.03 -0.272034
9.04 -0.274788
9.05 -0.276989
9.06 -0.27864
9.07 -0.279723
9.08 -0.280231
9.09 -0.280171
9.1 -0.279557
9.11 -0.278367
9.12 -0.276695
9.13 -0.274599
9.14 -0.272137
9.15 -0.269375
9.16 -0.266381
9.17 -0.263225
9.18 -0.259985
9.19 -0.25674
9.2 -0.253552
9.21 -0.250479
9.22 -0.247566
9.23 -0.244853
9.24 -0.242388
9.25 -0.240169
9.26 -0.238192
9.27 -0.236444
9.28 -0.234906
9.29 -0.233545
9.3 -0.232327
9.31 -0.231202
9.32 -0.230111
9.33 -0.229002
9.34 -0.227822
9.35 -0.226522
9.36 -0.225058
9.37 -0.223371
9.38 -0.221436
9.39 -0.21924
9.4 -0.21677
9.41 -0.214024
9.42 -0.211009
9.43 -0.207734
9.44 -0.204208
9.45 -0.200486
9.46 -0.196603
9.47 -0.192595
9.48 -0.188499
9.49 -0.184351
9.5 -0.180184
9.51 -0.176027
9.52 -0.171899
9.53 -0.167808
9.54 -0.163752
9.55 -0.15972
9.56 -0.155689
9.57 -0.151617
9.58 -0.147458
9.59 -0.143157
9.6 -0.138651
9.61 -0.133873
9.62 -0.128749
9.63 -0.123176
9.64 -0.117072
9.65 -0.11039
9.66 -0.103067
9.67 -0.0950447
9.68 -0.0862767
9.69 -0.076726
9.7 -0.0662735
9.71 -0.0550014
9.72 -0.0429167
9.73 -0.030039
9.74 -0.016401
9.75 -0.00204803
9.76 0.0129934
9.77 0.0286534
9.78 0.0448118
9.79 0.0613853
9.8 0.0782859
9.81 0.0954236
9.82 0.112708
9.83 0.130047
9.84 0.147341
9.85 0.164509
9.86 0.18148
9.87 0.198186
9.88 0.214568
9.89 0.230559
9.9 0.246097
9.91 0.261177
9.92 0.275775
9.93 0.28987
9.94 0.303448
9.95 0.316501
9.96 0.32897
9.97 0.340888
9.98 0.352266
9.99 0.363098
10 0.373381
10.01 0.38311
10.02 0.392259
10.03 0.400785
10.04 0.408725
10.05 0.416064
10.06 0.42279
10.07 0.428886
10.08 0.434338
10.09 0.439078
10.1 0.443127
10.11 0.4465
10.12 0.449198
10.13 0.451223
10.14 0.452587
10.15 0.453295
10.16 0.453327
10.17 0.452779
10.18 0.451692
10.19 0.450114
10.2 0.448099
10.21 0.445706
10.22 0.44298
10.23 0.440005
10.24 0.436861
10.25 0.433616
10.26 0.430335
10.27 0.427078
10.28 0.423902
10.29 0.420875
10.3 0.418025
10.31 0.415383
10.32 0.412968
10.33 0.410789
10.34 0.408843
10.35 0.40713
10.36 0.405619
10.37 0.40426
10.38 0.403005
10.39 0.4018
10.4 0.400582
10.41 0.39928
10.42 0.397796
10.43 0.396061
10.44 0.393998
10.45 0.391529
10.46 0.388578
10.47 0.385075
10.48 0.380919
10.49 0.376028
10.5 0.370396
10.51 0.363979
10.52 0.356747
10.53 0.348675
10.54 0.339753
10.55 0.329891
10.56 0.319174
10.57 0.307636
10.58 0.295306
10.59 0.282222
10.6 0.268431
10.61 0.253963
10.62 0.238859
10.63 0.223237
10.64 0.207163
10.65 0.190707
10.66 0.17394
10.67 0.156933
10.68 0.139745
10.69 0.122463
10.7 0.105154
10.71 0.0878769
10.72 0.0706854
10.73 0.053628
10.74 0.0367531
10.75 0.0201141
10.76 0.00372239
10.77 -0.012401
10.78 -0.0282414
10.79 -0.0437905
10.8 -0.0590458
10.81 -0.0739881
10.82 -0.0886396
10.83 -0.103025
10.84 -0.11716
10.85 -0.131066
10.86 -0.144764
10.87 -0.158272
10.88 -0.171603
10.89 -0.184796
10.9 -0.19787
10.91 -0.210843
10.92 -0.223729
10.93 -0.236537
10.94 -0.249269
10.95 -0.261927
10.96 -0.27451
10.97 -0.287008
10.98 -0.299406
10.99 -0.311686
11 -0.323822
11.01 -0.335765
11.02 -0.347497
11.03 -0.358985
11.04 -0.37019
11.05 -0.381073
11.06 -0.391593
11.07 -0.401683
11.08 -0.411295
11.09 -0.420416
11.1 -0.429006
11.11 -0.437032
11.12 -0.444458
11.13 -0.451257
11.14 -0.457325
11.15 -0.462705
11.16 -0.467383
11.17 -0.471342
11.18 -0.47457
11.19 -0.477058
11.2 -0.478763
11.21 -0.479663
11.22 -0.479809
11.23 -0.479203
11.24 -0.477847
11.25 -0.475744
11.26 -0.472901
11.27 -0.46925
11.28 -0.464861
11.29 -0.459754
11.3 -0.453938
11.31 -0.447424
11.32 -0.440222
11.33 -0.432322
11.34 -0.423708
11.35 -0.41445
11.36 -0.404566
11.37 -0.394073
11.38 -0.382994
11.39 -0.371351
11.4 -0.359126
11.41 -0.346381
11.42 -0.333163
11.43 -0.319507
11.44 -0.305448
11.45 -0.291025
11.46 -0.27627
11.47 -0.261214
11.48 -0.24593
11.49 -0.230462
11.5 -0.214859
11.51 -0.199167
11.52 -0.183433
11.53 -0.167709
11.54 -0.152048
11.55 -0.136496
11.56 -0.121098
11.57 -0.105898
11.58 -0.0909388
11.59 -0.0762652
11.6 -0.06195
11.61 -0.0479995
11.62 -0.0344479
11.63 -0.021327
11.64 -0.00866601
11.65 0.00350843
11.66 0.0151374
11.67 0.0262054
11.68 0.0367218
11.69 0.0466735
11.7 0.0560506
11.71 0.0648472
11.72 0.07306
11.73 0.080626
11.74 0.0876192
11.75 0.0940508
11.76 0.0999361
11.77 0.105294
11.78 0.110148
11.79 0.114499
11.8 0.118378
11.81 0.121846
11.82 0.124939
11.83 0.127691
11.84 0.130137
11.85 0.132312
11.86 0.134226
11.87 0.135936
11.88 0.137469
11.89 0.138849
11.9 0.14009
11.91 0.141203
11.92 0.142185
11.93 0.143028
11.94 0.143727
11.95 0.144261
11.96 0.144602
11.97 0.144716
11.98 0.144559
11.99 0.144049
12 0.143152
12.01 0.141818
12.02 0.139987
12.03 0.137602
12.04 0.134603
12.05 0.130911
12.06 0.126432
12.07 0.121176
12.08 0.115107
12.09 0.108195
12.1 0.100419
12.11 0.0917687
12.12 0.0821706
12.13 0.0716864
12.14 0.0603685
12.15 0.0482525
12.16 0.0353843
12.17 0.0218194
