# xPDFsuite Configuration #
[PDF]
wavelength = 0.1
dataformat = QA
inputfile = BiMsol6_insitu_700 C-00070.xy
backgroundfile = Quartz2mm-dist500-00000.xy
mode = xray
bgscale = 0.0042
composition = Bi2Fe4O9
outputtype = gr
qmaxinst = 24.998449118
qmin = 0.1
qmax = 21.4986662415
rmax = 80.0
rmin = 0.0
rstep = 0.01
rpoly = 0.9

[Misc]
inputdir = C:/Data/Seafile/CPH/Beamtime/Desy Oct 20/In situ data/Processed/BiMsol6/PDF
savedir = C:/Data/Seafile/CPH/Beamtime/Desy Oct 20/In situ data/PDF/BiMsol6
backgroundfilefull = C:/Data/Seafile/CPH/Beamtime/Desy Oct 20/In situ data/Processed/Standard_Empty_Cap/Quartz2mm-dist500-00000.xy

#### start data
#S 1
#L r($\AA$)  G($\AA^{-2}$)
0 0
0.01 0.00647152
0.02 0.0125799
0.03 0.0180144
0.04 0.0224962
0.05 0.0257912
0.06 0.0277211
0.07 0.0280906
0.08 0.026843
0.09 0.024122
0.1 0.020046
0.11 0.0147985
0.12 0.00862008
0.13 0.00179781
0.14 -0.00534557
0.15 -0.0124039
0.16 -0.0190344
0.17 -0.0249156
0.18 -0.0297594
0.19 -0.0333251
0.2 -0.0353654
0.21 -0.0357119
0.22 -0.0344631
0.23 -0.0316858
0.24 -0.0275255
0.25 -0.0222009
0.26 -0.0159966
0.27 -0.00923606
0.28 -0.00238474
0.29 0.00414313
0.3 0.00994561
0.31 0.0146408
0.32 0.0178858
0.33 0.0193338
0.34 0.0186458
0.35 0.0158756
0.36 0.011022
0.37 0.00418853
0.38 -0.00441524
0.39 -0.0144768
0.4 -0.0256334
0.41 -0.0372641
0.42 -0.0487597
0.43 -0.0595012
0.44 -0.0688488
0.45 -0.0761661
0.46 -0.0807808
0.47 -0.0818279
0.48 -0.0791236
0.49 -0.0723217
0.5 -0.0611995
0.51 -0.0456722
0.52 -0.0258026
0.53 -0.00153416
0.54 0.0265711
0.55 0.0577777
0.56 0.0914003
0.57 0.12664
0.58 0.162606
0.59 0.198328
0.6 0.232566
0.61 0.264363
0.62 0.292755
0.63 0.316837
0.64 0.335799
0.65 0.348951
0.66 0.355329
0.67 0.354557
0.68 0.346834
0.69 0.332189
0.7 0.310835
0.71 0.283171
0.72 0.249761
0.73 0.210849
0.74 0.167956
0.75 0.122079
0.76 0.0742688
0.77 0.0256169
0.78 -0.0227828
0.79 -0.0697435
0.8 -0.114083
0.81 -0.155012
0.82 -0.191766
0.83 -0.223723
0.84 -0.250416
0.85 -0.271548
0.86 -0.286412
0.87 -0.295603
0.88 -0.299455
0.89 -0.298372
0.9 -0.292886
0.91 -0.283641
0.92 -0.271275
0.93 -0.2566
0.94 -0.240653
0.95 -0.224237
0.96 -0.20812
0.97 -0.19301
0.98 -0.179533
0.99 -0.168453
1 -0.160062
1.01 -0.154558
1.02 -0.152066
1.03 -0.152585
1.04 -0.155994
1.05 -0.162127
1.06 -0.170745
1.07 -0.181194
1.08 -0.193
1.09 -0.205658
1.1 -0.218658
1.11 -0.231496
1.12 -0.24362
1.13 -0.254595
1.14 -0.264115
1.15 -0.271928
1.16 -0.277871
1.17 -0.281868
1.18 -0.283906
1.19 -0.283959
1.2 -0.282418
1.21 -0.279544
1.22 -0.27565
1.23 -0.271079
1.24 -0.26619
1.25 -0.261368
1.26 -0.256998
1.27 -0.253367
1.28 -0.25072
1.29 -0.249236
1.3 -0.249029
1.31 -0.250144
1.32 -0.252666
1.33 -0.256319
1.34 -0.260912
1.35 -0.266196
1.36 -0.27188
1.37 -0.277644
1.38 -0.283117
1.39 -0.287915
1.4 -0.291748
1.41 -0.294343
1.42 -0.295476
1.43 -0.294986
1.44 -0.292778
1.45 -0.288644
1.46 -0.28285
1.47 -0.275559
1.48 -0.266993
1.49 -0.25744
1.5 -0.247235
1.51 -0.236759
1.52 -0.226474
1.53 -0.216796
1.54 -0.208111
1.55 -0.200777
1.56 -0.195102
1.57 -0.191336
1.58 -0.189878
1.59 -0.190643
1.6 -0.193586
1.61 -0.198606
1.62 -0.205518
1.63 -0.214054
1.64 -0.223909
1.65 -0.234657
1.66 -0.245746
1.67 -0.256693
1.68 -0.267009
1.69 -0.276212
1.7 -0.28385
1.71 -0.289301
1.72 -0.292307
1.73 -0.292665
1.74 -0.290201
1.75 -0.284831
1.76 -0.276567
1.77 -0.265447
1.78 -0.251531
1.79 -0.235372
1.8 -0.217336
1.81 -0.197847
1.82 -0.177369
1.83 -0.15639
1.84 -0.135443
1.85 -0.115071
1.86 -0.095716
1.87 -0.0777747
1.88 -0.0615815
1.89 -0.0473993
1.9 -0.0354447
1.91 -0.026018
1.92 -0.0188788
1.93 -0.0139313
1.94 -0.0110022
1.95 -0.00984964
1.96 -0.0101742
1.97 -0.0116828
1.98 -0.0139255
1.99 -0.0164634
2 -0.0189191
2.01 -0.0209397
2.02 -0.0222105
2.03 -0.0224641
2.04 -0.0213516
2.05 -0.0188852
2.06 -0.0150343
2.07 -0.00984723
2.08 -0.00344935
2.09 0.00396121
2.1 0.0121446
2.11 0.0207274
2.12 0.0292966
2.13 0.0374579
2.14 0.0448077
2.15 0.050949
2.16 0.055507
2.17 0.0579008
2.18 0.0580217
2.19 0.055677
2.2 0.0507326
2.21 0.0431331
2.22 0.0329047
2.23 0.0200497
2.24 0.00473293
2.25 -0.0125883
2.26 -0.031574
2.27 -0.0518339
2.28 -0.0729403
2.29 -0.0944422
2.3 -0.115829
2.31 -0.136605
2.32 -0.15635
2.33 -0.174681
2.34 -0.191265
2.35 -0.205828
2.36 -0.218084
2.37 -0.22778
2.38 -0.235069
2.39 -0.239991
2.4 -0.242657
2.41 -0.243243
2.42 -0.241985
2.43 -0.239055
2.44 -0.234907
2.45 -0.229931
2.46 -0.224482
2.47 -0.218907
2.48 -0.213539
2.49 -0.2087
2.5 -0.204741
2.51 -0.201813
2.52 -0.200071
2.53 -0.199613
2.54 -0.200479
2.55 -0.202653
2.56 -0.206152
2.57 -0.210791
2.58 -0.216352
2.59 -0.222637
2.6 -0.229423
2.61 -0.236478
2.62 -0.243562
2.63 -0.250399
2.64 -0.256781
2.65 -0.262523
2.66 -0.267471
2.67 -0.271504
2.68 -0.274543
2.69 -0.276476
2.7 -0.27732
2.71 -0.277174
2.72 -0.276112
2.73 -0.274238
2.74 -0.271676
2.75 -0.268566
2.76 -0.265028
2.77 -0.261268
2.78 -0.257428
2.79 -0.253636
2.8 -0.249999
2.81 -0.246605
2.82 -0.243534
2.83 -0.240824
2.84 -0.238455
2.85 -0.236401
2.86 -0.234611
2.87 -0.233016
2.88 -0.23153
2.89 -0.230045
2.9 -0.228447
2.91 -0.226632
2.92 -0.224504
2.93 -0.221977
2.94 -0.218979
2.95 -0.215433
2.96 -0.211289
2.97 -0.206581
2.98 -0.201328
2.99 -0.195567
3 -0.189357
3.01 -0.182772
3.02 -0.17588
3.03 -0.168807
3.04 -0.161658
3.05 -0.154527
3.06 -0.147502
3.07 -0.140658
3.08 -0.134065
3.09 -0.127782
3.1 -0.121802
3.11 -0.116116
3.12 -0.110692
3.13 -0.105477
3.14 -0.100399
3.15 -0.0953603
3.16 -0.0902392
3.17 -0.084918
3.18 -0.0792764
3.19 -0.0731948
3.2 -0.0665591
3.21 -0.0592497
3.22 -0.0511112
3.23 -0.0421423
3.24 -0.0322981
3.25 -0.0215567
3.26 -0.00992029
3.27 0.00258543
3.28 0.0159671
3.29 0.0301173
3.3 0.0449093
3.31 0.0602377
3.32 0.075988
3.33 0.0920407
3.34 0.108276
3.35 0.124571
3.36 0.140804
3.37 0.156882
3.38 0.172729
3.39 0.188286
3.4 0.203514
3.41 0.218372
3.42 0.232865
3.43 0.247035
3.44 0.26092
3.45 0.274568
3.46 0.288039
3.47 0.301393
3.48 0.314695
3.49 0.328011
3.5 0.341388
3.51 0.35486
3.52 0.36844
3.53 0.382127
3.54 0.395896
3.55 0.409691
3.56 0.42343
3.57 0.437015
3.58 0.450331
3.59 0.463244
3.6 0.475607
3.61 0.487175
3.62 0.497835
3.63 0.507436
3.64 0.515825
3.65 0.52286
3.66 0.528415
3.67 0.532314
3.68 0.534404
3.69 0.534757
3.7 0.53335
3.71 0.530186
3.72 0.525302
3.73 0.518757
3.74 0.510505
3.75 0.500782
3.76 0.489763
3.77 0.477601
3.78 0.46446
3.79 0.450512
3.8 0.435919
3.81 0.420851
3.82 0.405528
3.83 0.390106
3.84 0.374728
3.85 0.359524
3.86 0.344603
3.87 0.330096
3.88 0.316062
3.89 0.302537
3.9 0.28955
3.91 0.277113
3.92 0.265224
3.93 0.253875
3.94 0.243072
3.95 0.232725
3.96 0.222788
3.97 0.213212
3.98 0.203946
3.99 0.19494
4 0.186158
4.01 0.177543
4.02 0.169047
4.03 0.160636
4.04 0.152282
4.05 0.143961
4.06 0.135657
4.07 0.127355
4.08 0.119049
4.09 0.110733
4.1 0.102409
4.11 0.0940775
4.12 0.0857436
4.13 0.0774137
4.14 0.0690963
4.15 0.0608001
4.16 0.0525352
4.17 0.0443131
4.18 0.0361471
4.19 0.0280524
4.2 0.0200585
4.21 0.012178
4.22 0.00443362
4.23 -0.00314891
4.24 -0.0105413
4.25 -0.0177133
4.26 -0.0246184
4.27 -0.0312134
4.28 -0.0374825
4.29 -0.043394
4.3 -0.0489183
4.31 -0.0540294
4.32 -0.0587062
4.33 -0.0628867
4.34 -0.0666025
4.35 -0.0698626
4.36 -0.0726778
4.37 -0.0750682
4.38 -0.0770631
4.39 -0.0786885
4.4 -0.0799855
4.41 -0.0810368
4.42 -0.0819027
4.43 -0.0826472
4.44 -0.0833361
4.45 -0.0840348
4.46 -0.0848185
4.47 -0.0857469
4.48 -0.0868674
4.49 -0.0882209
4.5 -0.0898372
4.51 -0.091735
4.52 -0.0939274
4.53 -0.0964222
4.54 -0.09917
4.55 -0.102135
4.56 -0.105271
4.57 -0.108521
4.58 -0.111822
4.59 -0.115097
4.6 -0.118267
4.61 -0.121261
4.62 -0.12401
4.63 -0.126451
4.64 -0.128531
4.65 -0.130196
4.66 -0.131374
4.67 -0.13209
4.68 -0.132342
4.69 -0.132141
4.7 -0.131513
4.71 -0.130495
4.72 -0.129119
4.73 -0.127459
4.74 -0.125601
4.75 -0.123618
4.76 -0.121584
4.77 -0.119574
4.78 -0.117659
4.79 -0.115931
4.8 -0.11443
4.81 -0.113205
4.82 -0.112288
4.83 -0.111702
4.84 -0.111457
4.85 -0.111571
4.86 -0.112025
4.87 -0.112775
4.88 -0.113786
4.89 -0.115015
4.9 -0.116418
4.91 -0.117947
4.92 -0.119557
4.93 -0.12119
4.94 -0.122806
4.95 -0.124371
4.96 -0.125858
4.97 -0.127249
4.98 -0.128528
4.99 -0.129695
5 -0.130764
5.01 -0.131754
5.02 -0.132686
5.03 -0.133585
5.04 -0.13448
5.05 -0.135406
5.06 -0.136388
5.07 -0.137447
5.08 -0.138601
5.09 -0.139857
5.1 -0.141216
5.11 -0.142672
5.12 -0.144208
5.13 -0.145787
5.14 -0.147372
5.15 -0.148922
5.16 -0.150388
5.17 -0.151721
5.18 -0.152848
5.19 -0.153725
5.2 -0.154315
5.21 -0.15458
5.22 -0.154493
5.23 -0.154035
5.24 -0.153193
5.25 -0.151948
5.26 -0.150361
5.27 -0.148466
5.28 -0.146309
5.29 -0.143948
5.3 -0.141446
5.31 -0.138874
5.32 -0.136318
5.33 -0.133852
5.34 -0.131544
5.35 -0.129456
5.36 -0.12764
5.37 -0.126141
5.38 -0.125017
5.39 -0.124241
5.4 -0.123802
5.41 -0.123676
5.42 -0.123819
5.43 -0.124175
5.44 -0.124678
5.45 -0.125233
5.46 -0.125744
5.47 -0.126121
5.48 -0.126272
5.49 -0.126109
5.5 -0.125554
5.51 -0.12448
5.52 -0.122883
5.53 -0.12073
5.54 -0.118009
5.55 -0.114725
5.56 -0.110905
5.57 -0.10657
5.58 -0.101795
5.59 -0.0966927
5.6 -0.0913614
5.61 -0.085907
5.62 -0.0804412
5.63 -0.0750769
5.64 -0.0699587
5.65 -0.065177
5.66 -0.0608182
5.67 -0.0569548
5.68 -0.0536408
5.69 -0.0509095
5.7 -0.0487973
5.71 -0.0473034
5.72 -0.046343
5.73 -0.0458532
5.74 -0.0457519
5.75 -0.0459406
5.76 -0.0463078
5.77 -0.0467262
5.78 -0.0470521
5.79 -0.047161
5.8 -0.0469353
5.81 -0.0462679
5.82 -0.0450669
5.83 -0.0432362
5.84 -0.0406857
5.85 -0.0374451
5.86 -0.033517
5.87 -0.0289293
5.88 -0.0237339
5.89 -0.0180055
5.9 -0.0118106
5.91 -0.00530126
5.92 0.00138263
5.93 0.00810745
5.94 0.0147376
5.95 0.0211401
5.96 0.0271796
5.97 0.0326966
5.98 0.0376359
5.99 0.0419274
6 0.0455246
6.01 0.0484066
6.02 0.050578
6.03 0.0520233
6.04 0.0528324
6.05 0.0531182
6.06 0.0529843
6.07 0.0525495
6.08 0.0519434
6.09 0.0513034
6.1 0.0507928
6.11 0.0505439
6.12 0.0506778
6.13 0.0513014
6.14 0.0525028
6.15 0.0543486
6.16 0.0569261
6.17 0.0602427
6.18 0.064244
6.19 0.0688868
6.2 0.0741032
6.21 0.079803
6.22 0.085877
6.23 0.0922136
6.24 0.0986337
6.25 0.104994
6.26 0.111151
6.27 0.116966
6.28 0.122308
6.29 0.127025
6.3 0.130998
6.31 0.134192
6.32 0.136557
6.33 0.13807
6.34 0.138728
6.35 0.138558
6.36 0.137531
6.37 0.135801
6.38 0.133469
6.39 0.130642
6.4 0.127438
6.41 0.123979
6.42 0.120392
6.43 0.116817
6.44 0.113376
6.45 0.110174
6.46 0.107301
6.47 0.10483
6.48 0.102816
6.49 0.101341
6.5 0.100383
6.51 0.09992
6.52 0.0999216
6.53 0.100341
6.54 0.101117
6.55 0.102181
6.56 0.103448
6.57 0.104805
6.58 0.106159
6.59 0.10742
6.6 0.108502
6.61 0.109326
6.62 0.10979
6.63 0.109849
6.64 0.109475
6.65 0.108641
6.66 0.107337
6.67 0.105567
6.68 0.103342
6.69 0.100663
6.7 0.0976196
6.71 0.0942648
6.72 0.090659
6.73 0.0868669
6.74 0.0829557
6.75 0.078994
6.76 0.0750574
6.77 0.0712082
6.78 0.0675013
6.79 0.0639843
6.8 0.0606972
6.81 0.0576739
6.82 0.0549672
6.83 0.0525598
6.84 0.0504551
6.85 0.0486487
6.86 0.0471295
6.87 0.0458803
6.88 0.0448926
6.89 0.0441344
6.9 0.0435623
6.91 0.0431452
6.92 0.0428508
6.93 0.0426469
6.94 0.0425018
6.95 0.0423846
6.96 0.0422604
6.97 0.0421017
6.98 0.0418831
6.99 0.0415807
7 0.0411725
7.01 0.0406311
7.02 0.0399327
7.03 0.0390698
7.04 0.0380276
7.05 0.0367932
7.06 0.0353559
7.07 0.0337071
7.08 0.0318181
7.09 0.0297055
7.1 0.0273736
7.11 0.0248274
7.12 0.0220757
7.13 0.0191321
7.14 0.0160084
7.15 0.0127251
7.16 0.00932378
7.17 0.00583672
7.18 0.00230005
7.19 -0.00124695
7.2 -0.00476264
7.21 -0.00819284
7.22 -0.0114938
7.23 -0.0146248
7.24 -0.0175452
7.25 -0.0202177
7.26 -0.0226092
7.27 -0.0246827
7.28 -0.0263945
7.29 -0.02776
7.3 -0.028774
7.31 -0.0294394
7.32 -0.0297665
7.33 -0.0297731
7.34 -0.0294626
7.35 -0.0288841
7.36 -0.0280855
7.37 -0.0271078
7.38 -0.0259942
7.39 -0.0247893
7.4 -0.0235371
7.41 -0.0222848
7.42 -0.0210748
7.43 -0.0199415
7.44 -0.018914
7.45 -0.0180155
7.46 -0.0172633
7.47 -0.0166794
7.48 -0.0162643
7.49 -0.0160079
7.5 -0.0159021
7.51 -0.0159349
7.52 -0.0160907
7.53 -0.0163528
7.54 -0.0167094
7.55 -0.0171312
7.56 -0.0176017
7.57 -0.0181067
7.58 -0.0186355
7.59 -0.019181
7.6 -0.0197412
7.61 -0.0203184
7.62 -0.0209183
7.63 -0.021551
7.64 -0.0222293
7.65 -0.0229682
7.66 -0.0237835
7.67 -0.0247031
7.68 -0.0257325
7.69 -0.0268828
7.7 -0.0281615
7.71 -0.0295718
7.72 -0.0311118
7.73 -0.0327789
7.74 -0.034559
7.75 -0.0364232
7.76 -0.0383453
7.77 -0.0402951
7.78 -0.0422387
7.79 -0.0441397
7.8 -0.0459492
7.81 -0.047633
7.82 -0.0491586
7.83 -0.0504953
7.84 -0.0516177
7.85 -0.0525066
7.86 -0.0531405
7.87 -0.0535044
7.88 -0.0536241
7.89 -0.0535134
7.9 -0.0531933
7.91 -0.0526919
7.92 -0.0520427
7.93 -0.0512774
7.94 -0.0504484
7.95 -0.0496
7.96 -0.0487719
7.97 -0.0480009
7.98 -0.0473189
7.99 -0.0467546
8 -0.0463357
8.01 -0.046058
8.02 -0.0459189
8.03 -0.0459062
8.04 -0.0459992
8.05 -0.0461686
8.06 -0.046378
8.07 -0.046578
8.08 -0.0467213
8.09 -0.0467613
8.1 -0.0466526
8.11 -0.0463536
8.12 -0.0458247
8.13 -0.0450134
8.14 -0.0439285
8.15 -0.0425663
8.16 -0.0409357
8.17 -0.0390582
8.18 -0.0369683
8.19 -0.0347051
8.2 -0.0323388
8.21 -0.0299458
8.22 -0.0276007
8.23 -0.0253818
8.24 -0.0233682
8.25 -0.0216378
8.26 -0.0203083
8.27 -0.0194057
8.28 -0.0189779
8.29 -0.019058
8.3 -0.019663
8.31 -0.0207919
8.32 -0.0224514
8.33 -0.0245965
8.34 -0.0271356
8.35 -0.0299911
8.36 -0.0330712
8.37 -0.0362723
8.38 -0.0394824
8.39 -0.0425599
8.4 -0.0453861
8.41 -0.0478484
8.42 -0.0498411
8.43 -0.0512702
8.44 -0.0520565
8.45 -0.0521051
8.46 -0.0513526
8.47 -0.0498375
8.48 -0.0475701
8.49 -0.0445836
8.5 -0.040933
8.51 -0.0366939
8.52 -0.031922
8.53 -0.0267795
8.54 -0.0213976
8.55 -0.0159049
8.56 -0.0104319
8.57 -0.00510654
8.58 -6.38004e-05
8.59 0.00455342
8.6 0.00867703
8.61 0.012233
8.62 0.0151676
8.63 0.0174489
8.64 0.0190677
8.65 0.0199837
8.66 0.0202769
8.67 0.0200263
8.68 0.0193084
8.69 0.018213
8.7 0.0168398
8.71 0.0152932
8.72 0.0136902
8.73 0.0121488
8.74 0.0107655
8.75 0.00962582
8.76 0.00880136
8.77 0.00834727
8.78 0.00833285
8.79 0.00876036
8.8 0.00960556
8.81 0.0108423
8.82 0.0124273
8.83 0.014302
8.84 0.016397
8.85 0.0186346
8.86 0.0209066
8.87 0.0231257
8.88 0.0252075
8.89 0.0270741
8.9 0.0286577
8.91 0.0298779
8.92 0.0306954
8.93 0.0311094
8.94 0.0311186
8.95 0.0307391
8.96 0.0300043
8.97 0.0289622
8.98 0.0276549
8.99 0.0261912
9 0.0246522
9.01 0.0231215
9.02 0.0216819
9.03 0.0204119
9.04 0.0193984
9.05 0.0187109
9.06 0.0183751
9.07 0.0184164
9.08 0.0188427
9.09 0.0196439
9.1 0.0207921
9.11 0.0222686
9.12 0.0239759
9.13 0.0258355
9.14 0.0277637
9.15 0.029671
9.16 0.0314666
9.17 0.0330495
9.18 0.0343173
9.19 0.0352164
9.2 0.0356904
9.21 0.0356996
9.22 0.0352222
9.23 0.0342555
9.24 0.0327755
9.25 0.0308615
9.26 0.0285834
9.27 0.0260165
9.28 0.023249
9.29 0.0203786
9.3 0.0175125
9.31 0.0147759
9.32 0.0122685
9.33 0.0100844
9.34 0.00830574
9.35 0.00700018
9.36 0.00621765
9.37 0.00603596
9.38 0.00643225
9.39 0.00736949
9.4 0.0088074
9.41 0.0106857
9.42 0.0129264
9.43 0.0154396
9.44 0.0181185
9.45 0.0208254
9.46 0.0234446
9.47 0.025863
9.48 0.0279741
9.49 0.0296824
9.5 0.0308664
9.51 0.0314721
9.52 0.0314842
9.53 0.0308883
9.54 0.0296931
9.55 0.0279302
9.56 0.0256488
9.57 0.0228899
9.58 0.0198018
9.59 0.0164915
9.6 0.0130745
9.61 0.00967026
9.62 0.00639796
9.63 0.00339417
9.64 0.000775776
9.65 -0.00138442
9.66 -0.00301701
9.67 -0.0040729
9.68 -0.00452522
9.69 -0.00437026
9.7 -0.00356462
9.71 -0.00222563
9.72 -0.000422465
9.73 0.00175924
9.74 0.00421982
9.75 0.0068495
9.76 0.00952908
9.77 0.0121235
9.78 0.0145191
9.79 0.0166132
9.8 0.0183167
9.81 0.0195571
9.82 0.0202814
9.83 0.0204004
9.84 0.0199598
9.85 0.0189883
9.86 0.0175301
9.87 0.0156501
9.88 0.0134317
9.89 0.0109684
9.9 0.00838222
9.91 0.00580812
9.92 0.0033651
9.93 0.00116854
9.94 -0.00067431
9.95 -0.00206851
9.96 -0.00288041
9.97 -0.00308436
9.98 -0.0026621
9.99 -0.00160636
10 6.58503e-05
10.01 0.00231368
10.02 0.00508609
10.03 0.00831061
10.04 0.011838
10.05 0.0155504
10.06 0.0193214
10.07 0.0230212
10.08 0.0265206
10.09 0.0296598
10.1 0.0323284
10.11 0.0344438
10.12 0.0359303
10.13 0.0367335
10.14 0.0368224
10.15 0.0361779
10.16 0.0347664
10.17 0.0327079
10.18 0.0300721
10.19 0.0269483
10.2 0.0234414
10.21 0.0196683
10.22 0.0157533
10.23 0.0118463
10.24 0.00807882
10.25 0.00456972
10.26 0.001427
10.27 -0.00125591
10.28 -0.00339901
10.29 -0.00488149
10.3 -0.00573602
10.31 -0.00595738
10.32 -0.00556269
10.33 -0.00459039
10.34 -0.00309848
10.35 -0.00114109
10.36 0.00117545
10.37 0.00372426
10.38 0.00639736
10.39 0.00908495
10.4 0.0116793
10.41 0.0140784
10.42 0.0161478
10.43 0.0178333
10.44 0.0190748
10.45 0.0198278
10.46 0.0200659
10.47 0.0197805
10.48 0.0189576
10.49 0.0176203
10.5 0.0158492
10.51 0.0137018
10.52 0.0112459
10.53 0.0085559
10.54 0.00571011
10.55 0.00278803
10.56 -0.000119051
10.57 -0.00293956
10.58 -0.00561074
10.59 -0.00807945
10.6 -0.0103035
10.61 -0.0122414
10.62 -0.0138619
10.63 -0.0151842
10.64 -0.0162159
10.65 -0.0169743
10.66 -0.0174848
10.67 -0.0177787
10.68 -0.0178784
10.69 -0.0178374
10.7 -0.0176969
10.71 -0.0174907
10.72 -0.0172482
10.73 -0.0169933
10.74 -0.0167434
10.75 -0.0165096
10.76 -0.0162915
10.77 -0.0160828
10.78 -0.0158711
10.79 -0.0156388
10.8 -0.0153651
10.81 -0.0150207
10.82 -0.0145827
10.83 -0.014034
10.84 -0.0133588
10.85 -0.0125472
10.86 -0.0115959
10.87 -0.010508
10.88 -0.00928923
10.89 -0.00797744
10.9 -0.00660526
10.91 -0.0052126
10.92 -0.00384548
10.93 -0.00255435
10.94 -0.00140494
10.95 -0.000455542
10.96 0.000249958
10.97 0.00066596
10.98 0.00075399
10.99 0.000484703
11 -0.00016212
11.01 -0.0012331
11.02 -0.0026748
11.03 -0.00446273
11.04 -0.00655891
11.05 -0.00891271
11.06 -0.011462
11.07 -0.0141374
11.08 -0.0168463
11.09 -0.0194969
11.1 -0.0220026
11.11 -0.0242787
11.12 -0.0262447
11.13 -0.0278277
11.14 -0.02891
11.15 -0.0294855
11.16 -0.0295253
11.17 -0.0290142
11.18 -0.0279534
11.19 -0.0263616
11.2 -0.0242533
11.21 -0.0216781
11.22 -0.0187388
11.23 -0.0155147
11.24 -0.0120938
11.25 -0.00856943
11.26 -0.00503755
11.27 -0.00161133
11.28 0.00161632
11.29 0.00456543
11.3 0.0071648
11.31 0.009356
11.32 0.0110952
11.33 0.0123369
11.34 0.0130478
11.35 0.013277
11.36 0.0130502
11.37 0.0124075
11.38 0.0114018
11.39 0.0100966
11.4 0.00855041
11.41 0.00686338
11.42 0.00512086
11.43 0.00340018
11.44 0.0017742
11.45 0.00030863
11.46 -0.000933832
11.47 -0.00188615
11.48 -0.00254108
11.49 -0.00288426
11.5 -0.0029154
11.51 -0.00264793
11.52 -0.0021081
11.53 -0.00131934
11.54 -0.000345582
11.55 0.000747587
11.56 0.00189944
11.57 0.0030476
11.58 0.00413066
11.59 0.00508837
11.6 0.00584737
11.61 0.00638029
11.62 0.00665607
11.63 0.00665508
11.64 0.00636983
11.65 0.00580519
11.66 0.00496275
11.67 0.00388069
11.68 0.00261309
11.69 0.0012087
11.7 -0.000277901
11.71 -0.00178852
11.72 -0.00326352
11.73 -0.00462759
11.74 -0.00583291
11.75 -0.00683252
11.76 -0.00758763
11.77 -0.0080691
11.78 -0.00825851
11.79 -0.00813267
11.8 -0.00769664
11.81 -0.00698798
11.82 -0.00603593
11.83 -0.00487875
