# xPDFsuite Configuration #
[PDF]
wavelength = 0.1
dataformat = QA
inputfile = BiMsol6_insitu_700 C-00002.xy
backgroundfile = Quartz2mm-dist500-00000.xy
mode = xray
bgscale = 0.0042
composition = Bi2Fe4O9
outputtype = gr
qmaxinst = 24.998449118
qmin = 0.1
qmax = 21.4986662415
rmax = 80.0
rmin = 0.0
rstep = 0.01
rpoly = 0.9

[Misc]
inputdir = C:/Data/Seafile/CPH/Beamtime/Desy Oct 20/In situ data/Processed/BiMsol6/PDF
savedir = C:/Data/Seafile/CPH/Beamtime/Desy Oct 20/In situ data/PDF/BiMsol6
backgroundfilefull = C:/Data/Seafile/CPH/Beamtime/Desy Oct 20/In situ data/Processed/Standard_Empty_Cap/Quartz2mm-dist500-00000.xy

#### start data
#S 1
#L r($\AA$)  G($\AA^{-2}$)
0 0
0.01 0.00704774
0.02 0.0137034
0.03 0.0196315
0.04 0.0245306
0.05 0.0281476
0.06 0.0302892
0.07 0.0307435
0.08 0.0294477
0.09 0.0265554
0.1 0.0221928
0.11 0.016556
0.12 0.00990291
0.13 0.0025418
0.14 -0.00518209
0.15 -0.01283
0.16 -0.0200321
0.17 -0.0264412
0.18 -0.0317451
0.19 -0.0356821
0.2 -0.0379828
0.21 -0.038461
0.22 -0.0372178
0.23 -0.0343198
0.24 -0.0299176
0.25 -0.0242412
0.26 -0.0175907
0.27 -0.0103052
0.28 -0.00288255
0.29 0.00423496
0.3 0.0106177
0.31 0.0158565
0.32 0.0195824
0.33 0.0214217
0.34 0.0210079
0.35 0.0183886
0.36 0.0135543
0.37 0.00660598
0.38 -0.00224322
0.39 -0.0126713
0.4 -0.0243073
0.41 -0.0365012
0.42 -0.0486147
0.43 -0.0600003
0.44 -0.0699878
0.45 -0.0779097
0.46 -0.0830617
0.47 -0.0845403
0.48 -0.082145
0.49 -0.0755109
0.5 -0.0644021
0.51 -0.0487269
0.52 -0.028548
0.53 -0.0038052
0.54 0.0249185
0.55 0.0568595
0.56 0.0913059
0.57 0.127428
0.58 0.164299
0.59 0.200915
0.6 0.235988
0.61 0.268531
0.62 0.297544
0.63 0.322098
0.64 0.341359
0.65 0.354623
0.66 0.360903
0.67 0.359826
0.68 0.351611
0.69 0.336302
0.7 0.314138
0.71 0.285545
0.72 0.251123
0.73 0.211156
0.74 0.167212
0.75 0.12033
0.76 0.0716021
0.77 0.0221559
0.78 -0.0268819
0.79 -0.0742874
0.8 -0.118853
0.81 -0.159793
0.82 -0.19634
0.83 -0.227879
0.84 -0.25396
0.85 -0.274308
0.86 -0.288236
0.87 -0.296391
0.88 -0.299152
0.89 -0.296966
0.9 -0.290412
0.91 -0.280175
0.92 -0.266943
0.93 -0.251575
0.94 -0.235128
0.95 -0.218428
0.96 -0.202257
0.97 -0.187328
0.98 -0.174264
0.99 -0.163836
1 -0.156296
1.01 -0.151806
1.02 -0.150455
1.03 -0.152202
1.04 -0.15688
1.05 -0.164277
1.06 -0.174099
1.07 -0.18565
1.08 -0.198418
1.09 -0.211868
1.1 -0.22546
1.11 -0.238677
1.12 -0.250935
1.13 -0.261815
1.14 -0.271029
1.15 -0.278344
1.16 -0.283625
1.17 -0.28683
1.18 -0.287984
1.19 -0.287104
1.2 -0.284634
1.21 -0.280882
1.22 -0.276198
1.23 -0.270963
1.24 -0.26557
1.25 -0.260443
1.26 -0.255979
1.27 -0.252465
1.28 -0.250141
1.29 -0.249176
1.3 -0.249662
1.31 -0.251619
1.32 -0.255104
1.33 -0.259785
1.34 -0.265428
1.35 -0.27174
1.36 -0.278386
1.37 -0.285005
1.38 -0.291177
1.39 -0.296485
1.4 -0.300624
1.41 -0.303308
1.42 -0.304309
1.43 -0.303469
1.44 -0.300708
1.45 -0.295824
1.46 -0.289136
1.47 -0.280846
1.48 -0.271221
1.49 -0.260594
1.5 -0.249348
1.51 -0.237916
1.52 -0.226813
1.53 -0.216485
1.54 -0.207351
1.55 -0.19979
1.56 -0.194124
1.57 -0.190609
1.58 -0.189658
1.59 -0.191148
1.6 -0.195001
1.61 -0.20108
1.62 -0.209156
1.63 -0.218916
1.64 -0.229997
1.65 -0.241914
1.66 -0.254062
1.67 -0.26591
1.68 -0.276926
1.69 -0.286595
1.7 -0.294435
1.71 -0.299782
1.72 -0.302393
1.73 -0.30208
1.74 -0.29869
1.75 -0.292169
1.76 -0.282569
1.77 -0.269975
1.78 -0.254505
1.79 -0.236784
1.8 -0.21724
1.81 -0.19636
1.82 -0.174664
1.83 -0.152696
1.84 -0.131058
1.85 -0.110324
1.86 -0.0909466
1.87 -0.0733336
1.88 -0.0578177
1.89 -0.0446467
1.9 -0.0340138
1.91 -0.0261972
1.92 -0.0208735
1.93 -0.0178863
1.94 -0.0169955
1.95 -0.0178884
1.96 -0.0201934
1.97 -0.0235325
1.98 -0.0273816
1.99 -0.0312497
2 -0.0347092
2.01 -0.0373673
2.02 -0.0388817
2.03 -0.038969
2.04 -0.0372363
2.05 -0.0337593
2.06 -0.0285376
2.07 -0.0216616
2.08 -0.0133099
2.09 -0.00374237
2.1 0.00673571
2.11 0.0176665
2.12 0.028555
2.13 0.0389332
2.14 0.0483288
2.15 0.056282
2.16 0.0623638
2.17 0.0659099
2.18 0.0668128
2.19 0.0648672
2.2 0.0599372
2.21 0.0519791
2.22 0.0410435
2.23 0.0271572
2.24 0.0105331
2.25 -0.00829212
2.26 -0.0289149
2.27 -0.0508779
2.28 -0.0736854
2.29 -0.0968194
2.3 -0.119687
2.31 -0.141741
2.32 -0.162517
2.33 -0.181594
2.34 -0.198614
2.35 -0.213289
2.36 -0.225321
2.37 -0.234455
2.38 -0.240896
2.39 -0.244719
2.4 -0.246081
2.41 -0.245209
2.42 -0.242395
2.43 -0.237874
2.44 -0.232169
2.45 -0.22573
2.46 -0.218966
2.47 -0.212273
2.48 -0.206023
2.49 -0.200578
2.5 -0.196329
2.51 -0.193413
2.52 -0.191979
2.53 -0.192112
2.54 -0.193828
2.55 -0.197079
2.56 -0.201851
2.57 -0.207899
2.58 -0.214947
2.59 -0.222741
2.6 -0.231008
2.61 -0.239463
2.62 -0.247816
2.63 -0.255729
2.64 -0.262975
2.65 -0.269344
2.66 -0.274664
2.67 -0.278809
2.68 -0.2817
2.69 -0.283222
2.7 -0.283418
2.71 -0.282427
2.72 -0.28036
2.73 -0.277356
2.74 -0.273583
2.75 -0.269222
2.76 -0.26444
2.77 -0.259488
2.78 -0.254544
2.79 -0.249767
2.8 -0.24529
2.81 -0.241222
2.82 -0.237662
2.83 -0.234658
2.84 -0.232173
2.85 -0.230171
2.86 -0.228588
2.87 -0.22733
2.88 -0.226289
2.89 -0.225334
2.9 -0.224309
2.91 -0.223081
2.92 -0.221525
2.93 -0.219528
2.94 -0.216994
2.95 -0.213824
2.96 -0.209947
2.97 -0.205395
2.98 -0.200184
2.99 -0.194353
3 -0.187968
3.01 -0.181114
3.02 -0.173868
3.03 -0.166385
3.04 -0.158791
3.05 -0.151204
3.06 -0.143734
3.07 -0.136481
3.08 -0.129537
3.09 -0.122987
3.1 -0.116835
3.11 -0.111086
3.12 -0.105718
3.13 -0.100682
3.14 -0.0959089
3.15 -0.0913107
3.16 -0.086753
3.17 -0.0821063
3.18 -0.0772396
3.19 -0.0720213
3.2 -0.0663235
3.21 -0.060013
3.22 -0.0529209
3.23 -0.0450257
3.24 -0.0362683
3.25 -0.0266131
3.26 -0.0160496
3.27 -0.00459173
3.28 0.00778119
3.29 0.0209719
3.3 0.0348608
3.31 0.0493513
3.32 0.064337
3.33 0.0797064
3.34 0.0953494
3.35 0.111162
3.36 0.127021
3.37 0.142845
3.38 0.158566
3.39 0.174136
3.4 0.189525
3.41 0.204711
3.42 0.219709
3.43 0.234559
3.44 0.249302
3.45 0.26399
3.46 0.278681
3.47 0.293432
3.48 0.308317
3.49 0.32337
3.5 0.338622
3.51 0.354082
3.52 0.369743
3.53 0.385571
3.54 0.401513
3.55 0.417471
3.56 0.433326
3.57 0.448946
3.58 0.464177
3.59 0.478852
3.6 0.492793
3.61 0.505699
3.62 0.517452
3.63 0.527887
3.64 0.536838
3.65 0.544158
3.66 0.549721
3.67 0.55335
3.68 0.554899
3.69 0.554482
3.7 0.552102
3.71 0.547795
3.72 0.541631
3.73 0.533707
3.74 0.524013
3.75 0.512832
3.76 0.500377
3.77 0.486833
3.78 0.472397
3.79 0.457264
3.8 0.441621
3.81 0.425662
3.82 0.4096
3.83 0.393592
3.84 0.377775
3.85 0.362264
3.86 0.347154
3.87 0.332559
3.88 0.318506
3.89 0.305
3.9 0.292041
3.91 0.279617
3.92 0.267696
3.93 0.256248
3.94 0.245251
3.95 0.234608
3.96 0.224265
3.97 0.21417
3.98 0.204278
3.99 0.194546
4 0.184948
4.01 0.175453
4.02 0.166042
4.03 0.156707
4.04 0.147449
4.05 0.138276
4.06 0.1292
4.07 0.12025
4.08 0.111432
4.09 0.102763
4.1 0.0942569
4.11 0.0859262
4.12 0.0777784
4.13 0.0698277
4.14 0.0620707
4.15 0.0544894
4.16 0.047072
4.17 0.0398038
4.18 0.0326681
4.19 0.0256473
4.2 0.0187341
4.21 0.0119023
4.22 0.0051416
4.23 -0.00155286
4.24 -0.00818003
4.25 -0.0147323
4.26 -0.0211896
4.27 -0.0275247
4.28 -0.0337148
4.29 -0.0397259
4.3 -0.0455202
4.31 -0.0510581
4.32 -0.0562994
4.33 -0.0611678
4.34 -0.0656549
4.35 -0.0697384
4.36 -0.0733987
4.37 -0.0766256
4.38 -0.0794191
4.39 -0.0817752
4.4 -0.083705
4.41 -0.0852785
4.42 -0.0865424
4.43 -0.0875526
4.44 -0.0883719
4.45 -0.0890682
4.46 -0.0897139
4.47 -0.0903912
4.48 -0.0911679
4.49 -0.092105
4.5 -0.0932548
4.51 -0.0946592
4.52 -0.0963558
4.53 -0.0983792
4.54 -0.1007
4.55 -0.103301
4.56 -0.106148
4.57 -0.109196
4.58 -0.112387
4.59 -0.115653
4.6 -0.118905
4.61 -0.122059
4.62 -0.125035
4.63 -0.127753
4.64 -0.130141
4.65 -0.132127
4.66 -0.133613
4.67 -0.134603
4.68 -0.135076
4.69 -0.135028
4.7 -0.134468
4.71 -0.133426
4.72 -0.131919
4.73 -0.130023
4.74 -0.127833
4.75 -0.12543
4.76 -0.122902
4.77 -0.120341
4.78 -0.117838
4.79 -0.115507
4.8 -0.11342
4.81 -0.111646
4.82 -0.110245
4.83 -0.109262
4.84 -0.108726
4.85 -0.108681
4.86 -0.109125
4.87 -0.110009
4.88 -0.111303
4.89 -0.112962
4.9 -0.114932
4.91 -0.117153
4.92 -0.11957
4.93 -0.12209
4.94 -0.124645
4.95 -0.127172
4.96 -0.129615
4.97 -0.131923
4.98 -0.134047
4.99 -0.135949
5 -0.137626
5.01 -0.139071
5.02 -0.14029
5.03 -0.141294
5.04 -0.142106
5.05 -0.142736
5.06 -0.143234
5.07 -0.143636
5.08 -0.143972
5.09 -0.144273
5.1 -0.144564
5.11 -0.144868
5.12 -0.145199
5.13 -0.145563
5.14 -0.145957
5.15 -0.146372
5.16 -0.146794
5.17 -0.147202
5.18 -0.147568
5.19 -0.147866
5.2 -0.148071
5.21 -0.148159
5.22 -0.148111
5.23 -0.147911
5.24 -0.147546
5.25 -0.147006
5.26 -0.146313
5.27 -0.145483
5.28 -0.14454
5.29 -0.143513
5.3 -0.142437
5.31 -0.141351
5.32 -0.140301
5.33 -0.139325
5.34 -0.138457
5.35 -0.137726
5.36 -0.137153
5.37 -0.136752
5.38 -0.136538
5.39 -0.136477
5.4 -0.136544
5.41 -0.136701
5.42 -0.136897
5.43 -0.137074
5.44 -0.137153
5.45 -0.137054
5.46 -0.136705
5.47 -0.136034
5.48 -0.134972
5.49 -0.133458
5.5 -0.13144
5.51 -0.128819
5.52 -0.125638
5.53 -0.121899
5.54 -0.117623
5.55 -0.11285
5.56 -0.107638
5.57 -0.10205
5.58 -0.0961906
5.59 -0.0901887
5.6 -0.0841593
5.61 -0.0782215
5.62 -0.0724947
5.63 -0.0670938
5.64 -0.0621822
5.65 -0.0578167
5.66 -0.0540648
5.67 -0.0509773
5.68 -0.0485816
5.69 -0.0468805
5.7 -0.0458787
5.71 -0.0455353
5.72 -0.045723
5.73 -0.046342
5.74 -0.0472744
5.75 -0.0483883
5.76 -0.0495423
5.77 -0.0505655
5.78 -0.0513055
5.79 -0.0516281
5.8 -0.0514099
5.81 -0.0505447
5.82 -0.0489479
5.83 -0.0465331
5.84 -0.0432264
5.85 -0.0391009
5.86 -0.0341921
5.87 -0.0285646
5.88 -0.0223092
5.89 -0.0155408
5.9 -0.00837485
5.91 -0.0010026
5.92 0.00640364
5.93 0.0136805
5.94 0.0206684
5.95 0.0272173
5.96 0.0331769
5.97 0.0383704
5.98 0.0427725
5.99 0.0463298
6 0.0490201
6.01 0.0508535
6.02 0.0518719
6.03 0.0521001
6.04 0.0516816
6.05 0.0507786
6.06 0.049541
6.07 0.0481318
6.08 0.0467212
6.09 0.0454838
6.1 0.0446362
6.11 0.0443059
6.12 0.0446232
6.13 0.0456939
6.14 0.0475957
6.15 0.0503751
6.16 0.054101
6.17 0.0587343
6.18 0.0641643
6.19 0.0702967
6.2 0.0770094
6.21 0.0841568
6.22 0.0915747
6.23 0.0990758
6.24 0.106448
6.25 0.113511
6.26 0.120089
6.27 0.126023
6.28 0.131174
6.29 0.135376
6.3 0.138522
6.31 0.140626
6.32 0.141677
6.33 0.141695
6.34 0.140736
6.35 0.138884
6.36 0.136181
6.37 0.132855
6.38 0.129068
6.39 0.124987
6.4 0.120781
6.41 0.116618
6.42 0.112673
6.43 0.109122
6.44 0.106068
6.45 0.103609
6.46 0.101814
6.47 0.100723
6.48 0.100346
6.49 0.100725
6.5 0.101751
6.51 0.103325
6.52 0.105344
6.53 0.107689
6.54 0.110225
6.55 0.112808
6.56 0.115273
6.57 0.117481
6.58 0.119306
6.59 0.120638
6.6 0.121385
6.61 0.121477
6.62 0.120811
6.63 0.119404
6.64 0.117295
6.65 0.114523
6.66 0.111151
6.67 0.10726
6.68 0.102943
6.69 0.0983048
6.7 0.0935031
6.71 0.0886604
6.72 0.0838957
6.73 0.0793205
6.74 0.0750345
6.75 0.0711541
6.76 0.067741
6.77 0.0648182
6.78 0.0624039
6.79 0.0604946
6.8 0.059066
6.81 0.0580773
6.82 0.0574965
6.83 0.0571994
6.84 0.0570989
6.85 0.057103
6.86 0.0571184
6.87 0.0570548
6.88 0.0568142
6.89 0.0563153
6.9 0.0555125
6.91 0.0543668
6.92 0.0528568
6.93 0.0509798
6.94 0.0487511
6.95 0.0461725
6.96 0.0433354
6.97 0.0403053
6.98 0.0371563
6.99 0.0339682
7 0.0308231
7.01 0.0278118
7.02 0.0250226
7.03 0.0225098
7.04 0.0203239
7.05 0.0185004
7.06 0.0170579
7.07 0.0159971
7.08 0.0153346
7.09 0.0149958
7.1 0.0149203
7.11 0.0150391
7.12 0.0152724
7.13 0.0155329
7.14 0.0157235
7.15 0.0157344
7.16 0.0154869
7.17 0.0149045
7.18 0.0139233
7.19 0.0124945
7.2 0.010587
7.21 0.00814463
7.22 0.00521396
7.23 0.00184217
7.24 -0.00191622
7.25 -0.0059887
7.26 -0.0102871
7.27 -0.0147109
7.28 -0.0191352
7.29 -0.0234347
7.3 -0.0274935
7.31 -0.0312003
7.32 -0.0344518
7.33 -0.0371574
7.34 -0.0391866
7.35 -0.040507
7.36 -0.0411114
7.37 -0.0409921
7.38 -0.0401647
7.39 -0.0386667
7.4 -0.0365482
7.41 -0.0338553
7.42 -0.0307469
7.43 -0.0273344
7.44 -0.0237376
7.45 -0.0200807
7.46 -0.0164886
7.47 -0.0131032
7.48 -0.0100475
7.49 -0.00740948
7.5 -0.0052708
7.51 -0.00369511
7.52 -0.00272609
7.53 -0.00239016
7.54 -0.00275264
7.55 -0.00371799
7.56 -0.00524181
7.57 -0.00726259
7.58 -0.00970433
7.59 -0.0124796
7.6 -0.0155009
7.61 -0.0186525
7.62 -0.0218218
7.63 -0.0249134
7.64 -0.0278392
7.65 -0.0305219
7.66 -0.0328974
7.67 -0.034873
7.68 -0.0364543
7.69 -0.037633
7.7 -0.0384158
7.71 -0.0388259
7.72 -0.0389017
7.73 -0.0386843
7.74 -0.0382417
7.75 -0.0376647
7.76 -0.037029
7.77 -0.0364116
7.78 -0.0358868
7.79 -0.0355242
7.8 -0.0354128
7.81 -0.0355882
7.82 -0.0360818
7.83 -0.0369145
7.84 -0.0380928
7.85 -0.0396078
7.86 -0.0414464
7.87 -0.0435765
7.88 -0.0459209
7.89 -0.0484174
7.9 -0.050996
7.91 -0.053582
7.92 -0.0560979
7.93 -0.0584466
7.94 -0.0605549
7.95 -0.0623601
7.96 -0.0638036
7.97 -0.0648368
7.98 -0.0654226
7.99 -0.0655239
8 -0.0650978
8.01 -0.0641935
8.02 -0.0628294
8.03 -0.061036
8.04 -0.0588546
8.05 -0.0563358
8.06 -0.0535213
8.07 -0.0504959
8.08 -0.0473384
8.09 -0.0441187
8.1 -0.0409058
8.11 -0.0377661
8.12 -0.0347648
8.13 -0.0319818
8.14 -0.0294497
8.15 -0.0272085
8.16 -0.0252896
8.17 -0.0237159
8.18 -0.0225019
8.19 -0.0216779
8.2 -0.0212339
8.21 -0.0211409
8.22 -0.0213816
8.23 -0.0219333
8.24 -0.022769
8.25 -0.023859
8.26 -0.02519
8.27 -0.0266982
8.28 -0.0283471
8.29 -0.0300997
8.3 -0.0319189
8.31 -0.033768
8.32 -0.0356086
8.33 -0.0374
8.34 -0.0391092
8.35 -0.0407034
8.36 -0.0421509
8.37 -0.0434216
8.38 -0.0444866
8.39 -0.0452906
8.4 -0.0458297
8.41 -0.0460834
8.42 -0.0460319
8.43 -0.0456588
8.44 -0.0449509
8.45 -0.0438838
8.46 -0.0424444
8.47 -0.0406598
8.48 -0.0385384
8.49 -0.0360941
8.5 -0.0333473
8.51 -0.0303243
8.52 -0.0270373
8.53 -0.023549
8.54 -0.0199082
8.55 -0.0161635
8.56 -0.0123666
8.57 -0.00857156
8.58 -0.0048371
8.59 -0.00123046
8.6 0.00220185
8.61 0.00541134
8.62 0.00835434
8.63 0.0109932
8.64 0.0132973
8.65 0.0152117
8.66 0.0167429
8.67 0.0178993
8.68 0.0186881
8.69 0.0191252
8.7 0.0192354
8.71 0.0190455
8.72 0.0185827
8.73 0.0179208
8.74 0.0171101
8.75 0.0162034
8.76 0.0152545
8.77 0.0143162
8.78 0.0134473
8.79 0.0126979
8.8 0.0121051
8.81 0.011702
8.82 0.0115144
8.83 0.0115601
8.84 0.0118512
8.85 0.0124103
8.86 0.0132023
8.87 0.0142099
8.88 0.0154094
8.89 0.016771
8.9 0.0182605
8.91 0.0198434
8.92 0.0214728
8.93 0.0231042
8.94 0.0246982
8.95 0.026218
8.96 0.0276298
8.97 0.028904
8.98 0.0299954
8.99 0.0309034
9 0.0316164
9.01 0.0321289
9.02 0.0324412
9.03 0.0325589
9.04 0.0324831
9.05 0.0322297
9.06 0.031829
9.07 0.0313018
9.08 0.0306707
9.09 0.0299586
9.1 0.0291882
9.11 0.0283795
9.12 0.0275578
9.13 0.0267408
9.14 0.0259433
9.15 0.0251775
9.16 0.0244526
9.17 0.0237775
9.18 0.0231582
9.19 0.0225924
9.2 0.02208
9.21 0.0216191
9.22 0.0212074
9.23 0.0208418
9.24 0.0205231
9.25 0.0202448
9.26 0.020004
9.27 0.0197988
9.28 0.0196285
9.29 0.0194926
9.3 0.0193926
9.31 0.0193308
9.32 0.0193047
9.33 0.0193144
9.34 0.0193595
9.35 0.0194383
9.36 0.0195481
9.37 0.0196867
9.38 0.0198458
9.39 0.0200169
9.4 0.0201909
9.41 0.0203572
9.42 0.0205044
9.43 0.0206195
9.44 0.0206851
9.45 0.0206928
9.46 0.0206318
9.47 0.0204928
9.48 0.0202686
9.49 0.0199545
9.5 0.0195419
9.51 0.0190357
9.52 0.0184452
9.53 0.0177791
9.54 0.0170492
9.55 0.0162697
9.56 0.0154572
9.57 0.014631
9.58 0.0138136
9.59 0.0130243
9.6 0.0122816
9.61 0.0116022
9.62 0.0110004
9.63 0.0104936
9.64 0.0100891
9.65 0.00978384
9.66 0.00957563
9.67 0.00945753
9.68 0.00941833
9.69 0.00944284
9.7 0.00951518
9.71 0.00960658
9.72 0.00969364
9.73 0.00975264
9.74 0.00976055
9.75 0.00969617
9.76 0.0095358
9.77 0.00926226
9.78 0.00887387
9.79 0.00836869
9.8 0.00775113
9.81 0.0070322
9.82 0.00622948
9.83 0.00536374
9.84 0.00447419
9.85 0.00359721
9.86 0.00277187
9.87 0.00203938
9.88 0.00144153
9.89 0.00102788
9.9 0.000849349
9.91 0.000924439
9.92 0.00127946
9.93 0.0019332
9.94 0.00289583
9.95 0.00416803
9.96 0.00576664
9.97 0.00764708
9.98 0.00976995
9.99 0.0120937
10 0.0145685
10.01 0.0171376
10.02 0.0197375
10.03 0.0222915
10.04 0.0247305
10.05 0.0269884
10.06 0.0290025
10.07 0.0307157
10.08 0.0320782
10.09 0.0330144
10.1 0.033511
10.11 0.0335668
10.12 0.0331796
10.13 0.0323598
10.14 0.0311303
10.15 0.0295202
10.16 0.0275559
10.17 0.0253314
10.18 0.0229114
10.19 0.0203657
10.2 0.0177669
10.21 0.0151879
10.22 0.0127112
10.23 0.0104097
10.24 0.00833708
10.25 0.00654254
10.26 0.00506504
10.27 0.00393199
10.28 0.00316103
10.29 0.00279069
10.3 0.00276768
10.31 0.00306681
10.32 0.0036523
10.33 0.00447922
10.34 0.0054952
10.35 0.00664644
10.36 0.00786176
10.37 0.00907227
10.38 0.0102179
10.39 0.0112428
10.4 0.0120967
10.41 0.0127372
10.42 0.0131002
10.43 0.0131892
10.44 0.0129953
10.45 0.0125195
10.46 0.0117733
10.47 0.0107778
10.48 0.00955404
10.49 0.00814199
10.5 0.00659999
10.51 0.0049749
10.52 0.00331471
10.53 0.00166659
10.54 7.49435e-05
10.55 -0.00140697
10.56 -0.00275141
10.57 -0.00393564
10.58 -0.00494387
10.59 -0.0057692
10.6 -0.00641374
10.61 -0.00688256
10.62 -0.00719184
10.63 -0.00738226
10.64 -0.00748632
10.65 -0.00754009
10.66 -0.00758133
10.67 -0.00764773
10.68 -0.00778353
10.69 -0.00801965
10.7 -0.00837914
10.71 -0.00887966
10.72 -0.00953073
10.73 -0.0103331
10.74 -0.0112816
10.75 -0.0123635
10.76 -0.0135381
10.77 -0.01477
10.78 -0.0160183
10.79 -0.0172375
10.8 -0.0183799
10.81 -0.0193835
10.82 -0.0202016
10.83 -0.0207977
10.84 -0.021137
10.85 -0.0211924
10.86 -0.0209465
10.87 -0.0203876
10.88 -0.0194961
10.89 -0.0183229
10.9 -0.0168986
10.91 -0.0152648
10.92 -0.0134723
10.93 -0.0115803
10.94 -0.00965639
10.95 -0.00778059
10.96 -0.00602463
10.97 -0.00445727
10.98 -0.00314304
10.99 -0.00213976
11 -0.00149819
11.01 -0.00130231
11.02 -0.00153217
11.03 -0.00219524
11.04 -0.00328419
11.05 -0.00477682
11.06 -0.00663637
11.07 -0.00882678
11.08 -0.0112743
11.09 -0.0138846
11.1 -0.0165745
11.11 -0.0192555
11.12 -0.0218369
11.13 -0.0242287
11.14 -0.0263049
11.15 -0.0280079
11.16 -0.0292716
11.17 -0.0300398
11.18 -0.0302705
11.19 -0.0299368
11.2 -0.029002
11.21 -0.0274622
11.22 -0.0253855
11.23 -0.0228152
11.24 -0.0198092
11.25 -0.0164378
11.26 -0.0127821
11.27 -0.00892129
11.28 -0.00497696
11.29 -0.00104937
11.3 0.0027657
11.31 0.00637668
11.32 0.00969876
11.33 0.0126411
11.34 0.0151126
11.35 0.0170971
11.36 0.018562
11.37 0.0194904
11.38 0.0198807
11.39 0.0197464
11.4 0.0190753
11.41 0.017945
11.42 0.0164251
11.43 0.0145796
11.44 0.0124792
11.45 0.0101985
11.46 0.00781362
11.47 0.00540799
11.48 0.00306119
11.49 0.000838655
11.5 -0.00120191
11.51 -0.00301198
11.52 -0.00455335
11.53 -0.00577478
11.54 -0.00667151
11.55 -0.00725418
11.56 -0.00753217
11.57 -0.00752461
11.58 -0.00725916
11.59 -0.00676821
11.6 -0.00608086
11.61 -0.00526405
11.62 -0.00436359
11.63 -0.00342479
11.64 -0.00249082
11.65 -0.00160116
11.66 -0.000797556
11.67 -0.00011043
11.68 0.000444761
11.69 0.000855612
11.7 0.00111709
11.71 0.00123133
11.72 0.00120684
11.73 0.00104664
11.74 0.000787212
11.75 0.000452783
11.76 6.98029e-05
11.77 -0.000334362
11.78 -0.00073268
11.79 -0.0010966
11.8 -0.00139988
11.81 -0.00162659
11.82 -0.00176303
11.83 -0.00180048
