# xPDFsuite Configuration #
[PDF]
wavelength = 0.1
dataformat = QA
inputfile = BiMsol6_insitu_700 C-00507.xy
backgroundfile = Quartz2mm-dist500-00000.xy
mode = xray
bgscale = 0.0042
composition = Bi2Fe4O9
outputtype = gr
qmaxinst = 24.998449118
qmin = 0.1
qmax = 21.4986662415
rmax = 80.0
rmin = 0.0
rstep = 0.01
rpoly = 0.9

[Misc]
inputdir = C:/Data/Seafile/CPH/Beamtime/Desy Oct 20/In situ data/Processed/BiMsol6/PDF
savedir = C:/Data/Seafile/CPH/Beamtime/Desy Oct 20/In situ data/PDF/BiMsol6
backgroundfilefull = C:/Data/Seafile/CPH/Beamtime/Desy Oct 20/In situ data/Processed/Standard_Empty_Cap/Quartz2mm-dist500-00000.xy

#### start data
#S 1
#L r($\AA$)  G($\AA^{-2}$)
0 0
0.01 0.00608431
0.02 0.011823
0.03 0.0169204
0.04 0.0211112
0.05 0.0241727
0.06 0.0259353
0.07 0.0262136
0.08 0.0249538
0.09 0.0222932
0.1 0.0183446
0.11 0.0132832
0.12 0.00733826
0.13 0.000783445
0.14 -0.00607349
0.15 -0.0128461
0.16 -0.0192082
0.17 -0.024854
0.18 -0.0295097
0.19 -0.0329468
0.2 -0.0349307
0.21 -0.0353022
0.22 -0.0341566
0.23 -0.031559
0.24 -0.0276493
0.25 -0.0226378
0.26 -0.0167969
0.27 -0.0104375
0.28 -0.00400413
0.29 0.00210761
0.3 0.00751365
0.31 0.0118493
0.32 0.0147874
0.33 0.0159967
0.34 0.015154
0.35 0.0123125
0.36 0.00747271
0.37 0.000735239
0.38 -0.00769764
0.39 -0.017525
0.4 -0.0283969
0.41 -0.0397165
0.42 -0.0508981
0.43 -0.0613458
0.44 -0.0704435
0.45 -0.0775778
0.46 -0.0820998
0.47 -0.0831731
0.48 -0.0806183
0.49 -0.0740975
0.5 -0.0633906
0.51 -0.0484094
0.52 -0.0292066
0.53 -0.00571524
0.54 0.0215324
0.55 0.051835
0.56 0.0845419
0.57 0.118892
0.58 0.154035
0.59 0.189045
0.6 0.222739
0.61 0.25419
0.62 0.282465
0.63 0.30669
0.64 0.326076
0.65 0.339947
0.66 0.347364
0.67 0.347941
0.68 0.341847
0.69 0.329083
0.7 0.30983
0.71 0.28444
0.72 0.253431
0.73 0.216991
0.74 0.176566
0.75 0.133089
0.76 0.0875521
0.77 0.0409835
0.78 -0.00557859
0.79 -0.0510148
0.8 -0.0941956
0.81 -0.134344
0.82 -0.170714
0.83 -0.202692
0.84 -0.22981
0.85 -0.251756
0.86 -0.267831
0.87 -0.278557
0.88 -0.284213
0.89 -0.28515
0.9 -0.281841
0.91 -0.274865
0.92 -0.264794
0.93 -0.252368
0.94 -0.238562
0.95 -0.224129
0.96 -0.209789
0.97 -0.196215
0.98 -0.184007
0.99 -0.173889
1 -0.16617
1.01 -0.161068
1.02 -0.15873
1.03 -0.159187
1.04 -0.16236
1.05 -0.168129
1.06 -0.176308
1.07 -0.186311
1.08 -0.197718
1.09 -0.210077
1.1 -0.222923
1.11 -0.235796
1.12 -0.248191
1.13 -0.259689
1.14 -0.269981
1.15 -0.278811
1.16 -0.285998
1.17 -0.29144
1.18 -0.295085
1.19 -0.296862
1.2 -0.297089
1.21 -0.295969
1.22 -0.293747
1.23 -0.290705
1.24 -0.28714
1.25 -0.283363
1.26 -0.279708
1.27 -0.276445
1.28 -0.273795
1.29 -0.271929
1.3 -0.270965
1.31 -0.270968
1.32 -0.272028
1.33 -0.273959
1.34 -0.276632
1.35 -0.279869
1.36 -0.283458
1.37 -0.28716
1.38 -0.2907
1.39 -0.293787
1.4 -0.296196
1.41 -0.297721
1.42 -0.298192
1.43 -0.297484
1.44 -0.295529
1.45 -0.292176
1.46 -0.287624
1.47 -0.281998
1.48 -0.27547
1.49 -0.268258
1.5 -0.260618
1.51 -0.252839
1.52 -0.245264
1.53 -0.238197
1.54 -0.231916
1.55 -0.226677
1.56 -0.222691
1.57 -0.220124
1.58 -0.219242
1.59 -0.219954
1.6 -0.222194
1.61 -0.225854
1.62 -0.230766
1.63 -0.236701
1.64 -0.243393
1.65 -0.250494
1.66 -0.257593
1.67 -0.264326
1.68 -0.270329
1.69 -0.275255
1.7 -0.278785
1.71 -0.280471
1.72 -0.280177
1.73 -0.277803
1.74 -0.273272
1.75 -0.26658
1.76 -0.257792
1.77 -0.247002
1.78 -0.234331
1.79 -0.220229
1.8 -0.205013
1.81 -0.189034
1.82 -0.172663
1.83 -0.156275
1.84 -0.140295
1.85 -0.125097
1.86 -0.110965
1.87 -0.0981541
1.88 -0.0868607
1.89 -0.0772194
1.9 -0.0693238
1.91 -0.0633168
1.92 -0.0589381
1.93 -0.0560449
1.94 -0.0544417
1.95 -0.0538899
1.96 -0.0541188
1.97 -0.0548501
1.98 -0.0557347
1.99 -0.0564643
2 -0.0567759
2.01 -0.0564415
2.02 -0.0552781
2.03 -0.0531526
2.04 -0.049882
2.05 -0.0455902
2.06 -0.0403544
2.07 -0.0343143
2.08 -0.0276673
2.09 -0.0206616
2.1 -0.0136019
2.11 -0.00686244
2.12 -0.000785397
2.13 0.00428718
2.14 0.00802554
2.15 0.0101251
2.16 0.0103187
2.17 0.00813654
2.18 0.0036308
2.19 -0.00326006
2.2 -0.0125434
2.21 -0.0241548
2.22 -0.0379596
2.23 -0.0538338
2.24 -0.0715133
2.25 -0.0905303
2.26 -0.110518
2.27 -0.131083
2.28 -0.151818
2.29 -0.172313
2.3 -0.192074
2.31 -0.210743
2.32 -0.228014
2.33 -0.243612
2.34 -0.257325
2.35 -0.269001
2.36 -0.278483
2.37 -0.28566
2.38 -0.290778
2.39 -0.293966
2.4 -0.29541
2.41 -0.295345
2.42 -0.29404
2.43 -0.291738
2.44 -0.288846
2.45 -0.285706
2.46 -0.282623
2.47 -0.279879
2.48 -0.277726
2.49 -0.2764
2.5 -0.276154
2.51 -0.277013
2.52 -0.279028
2.53 -0.282199
2.54 -0.286476
2.55 -0.291763
2.56 -0.297977
2.57 -0.304888
2.58 -0.312261
2.59 -0.319879
2.6 -0.327524
2.61 -0.334977
2.62 -0.342026
2.63 -0.34841
2.64 -0.354025
2.65 -0.358751
2.66 -0.362505
2.67 -0.365241
2.68 -0.366952
2.69 -0.367603
2.7 -0.367283
2.71 -0.366143
2.72 -0.364301
2.73 -0.361895
2.74 -0.359069
2.75 -0.355973
2.76 -0.352752
2.77 -0.349565
2.78 -0.346527
2.79 -0.34373
2.8 -0.341243
2.81 -0.339108
2.82 -0.337357
2.83 -0.335976
2.84 -0.334897
2.85 -0.334055
2.86 -0.333365
2.87 -0.332732
2.88 -0.33205
2.89 -0.331183
2.9 -0.33003
2.91 -0.328496
2.92 -0.326496
2.93 -0.323962
2.94 -0.320843
2.95 -0.317078
2.96 -0.312638
2.97 -0.30758
2.98 -0.301933
2.99 -0.295738
3 -0.289048
3.01 -0.281918
3.02 -0.274378
3.03 -0.266515
3.04 -0.258381
3.05 -0.250006
3.06 -0.241402
3.07 -0.232563
3.08 -0.223448
3.09 -0.213978
3.1 -0.204098
3.11 -0.193706
3.12 -0.182686
3.13 -0.170907
3.14 -0.15823
3.15 -0.144413
3.16 -0.129357
3.17 -0.112969
3.18 -0.0951431
3.19 -0.0757942
3.2 -0.0548671
3.21 -0.032307
3.22 -0.00801737
3.23 0.017781
3.24 0.0449801
3.25 0.0734309
3.26 0.102945
3.27 0.133299
3.28 0.164258
3.29 0.195478
3.3 0.226628
3.31 0.25739
3.32 0.287442
3.33 0.316467
3.34 0.344142
3.35 0.369989
3.36 0.393907
3.37 0.415674
3.38 0.43511
3.39 0.452073
3.4 0.466468
3.41 0.478078
3.42 0.486922
3.43 0.493189
3.44 0.496965
3.45 0.498369
3.46 0.497552
3.47 0.494688
3.48 0.48978
3.49 0.483266
3.5 0.475363
3.51 0.466281
3.52 0.456226
3.53 0.445394
3.54 0.433942
3.55 0.422047
3.56 0.409883
3.57 0.397566
3.58 0.385189
3.59 0.372827
3.6 0.360536
3.61 0.348368
3.62 0.336342
3.63 0.32447
3.64 0.312762
3.65 0.301223
3.66 0.289863
3.67 0.278702
3.68 0.267772
3.69 0.25709
3.7 0.246696
3.71 0.236644
3.72 0.226998
3.73 0.217833
3.74 0.209294
3.75 0.201445
3.76 0.194369
3.77 0.188165
3.78 0.18293
3.79 0.178758
3.8 0.175772
3.81 0.174129
3.82 0.173788
3.83 0.174795
3.84 0.17718
3.85 0.180957
3.86 0.186122
3.87 0.19276
3.88 0.20076
3.89 0.210015
3.9 0.220449
3.91 0.231975
3.92 0.244495
3.93 0.257915
3.94 0.272166
3.95 0.287042
3.96 0.302421
3.97 0.318177
3.98 0.334187
3.99 0.35033
4 0.366478
4.01 0.382499
4.02 0.398284
4.03 0.413725
4.04 0.42872
4.05 0.443172
4.06 0.456979
4.07 0.469966
4.08 0.48212
4.09 0.493356
4.1 0.503597
4.11 0.512768
4.12 0.520796
4.13 0.527541
4.14 0.532936
4.15 0.536999
4.16 0.539685
4.17 0.540958
4.18 0.540791
4.19 0.539167
4.2 0.535916
4.21 0.531205
4.22 0.52506
4.23 0.517511
4.24 0.508602
4.25 0.498383
4.26 0.486858
4.27 0.474084
4.28 0.460221
4.29 0.445349
4.3 0.429549
4.31 0.412901
4.32 0.395484
4.33 0.37731
4.34 0.358514
4.35 0.339167
4.36 0.319321
4.37 0.299021
4.38 0.278301
4.39 0.257176
4.4 0.235653
4.41 0.213775
4.42 0.191551
4.43 0.168987
4.44 0.146092
4.45 0.122875
4.46 0.0993221
4.47 0.0754791
4.48 0.0513853
4.49 0.0270828
4.5 0.00262517
4.51 -0.0219219
4.52 -0.0464782
4.53 -0.0709355
4.54 -0.095191
4.55 -0.119133
4.56 -0.142643
4.57 -0.165599
4.58 -0.187878
4.59 -0.209285
4.6 -0.229725
4.61 -0.249125
4.62 -0.267393
4.63 -0.284452
4.64 -0.300245
4.65 -0.314711
4.66 -0.327721
4.67 -0.339416
4.68 -0.349827
4.69 -0.359006
4.7 -0.367023
4.71 -0.373966
4.72 -0.379877
4.73 -0.384908
4.74 -0.389226
4.75 -0.392957
4.76 -0.396224
4.77 -0.399148
4.78 -0.401841
4.79 -0.4044
4.8 -0.406934
4.81 -0.40951
4.82 -0.412178
4.83 -0.414972
4.84 -0.417906
4.85 -0.420984
4.86 -0.424183
4.87 -0.427457
4.88 -0.430758
4.89 -0.434031
4.9 -0.437212
4.91 -0.440238
4.92 -0.443012
4.93 -0.445489
4.94 -0.447619
4.95 -0.449354
4.96 -0.450657
4.97 -0.451504
4.98 -0.451857
4.99 -0.451703
5 -0.451083
5.01 -0.450016
5.02 -0.448527
5.03 -0.446645
5.04 -0.444402
5.05 -0.441803
5.06 -0.438907
5.07 -0.435745
5.08 -0.432335
5.09 -0.428688
5.1 -0.424805
5.11 -0.420668
5.12 -0.416242
5.13 -0.411518
5.14 -0.406459
5.15 -0.401022
5.16 -0.39516
5.17 -0.388824
5.18 -0.381919
5.19 -0.374428
5.2 -0.366333
5.21 -0.357612
5.22 -0.348254
5.23 -0.338263
5.24 -0.327645
5.25 -0.316402
5.26 -0.304648
5.27 -0.292455
5.28 -0.27991
5.29 -0.267111
5.3 -0.254169
5.31 -0.241205
5.32 -0.228357
5.33 -0.215745
5.34 -0.203482
5.35 -0.191675
5.36 -0.180421
5.37 -0.16981
5.38 -0.159977
5.39 -0.150898
5.4 -0.142594
5.41 -0.135069
5.42 -0.128307
5.43 -0.122275
5.44 -0.116962
5.45 -0.112284
5.46 -0.108128
5.47 -0.104413
5.48 -0.101052
5.49 -0.0979581
5.5 -0.095051
5.51 -0.0922608
5.52 -0.0895069
5.53 -0.0867411
5.54 -0.0839297
5.55 -0.0810541
5.56 -0.0781111
5.57 -0.0751104
5.58 -0.0720822
5.59 -0.0690684
5.6 -0.0661154
5.61 -0.0632739
5.62 -0.0605961
5.63 -0.0581314
5.64 -0.0559552
5.65 -0.0540772
5.66 -0.0525129
5.67 -0.0512644
5.68 -0.0503167
5.69 -0.0496362
5.7 -0.0491772
5.71 -0.0488613
5.72 -0.048583
5.73 -0.0482387
5.74 -0.0477144
5.75 -0.0468899
5.76 -0.0456429
5.77 -0.0437894
5.78 -0.0412475
5.79 -0.037931
5.8 -0.0337597
5.81 -0.0286741
5.82 -0.0226389
5.83 -0.0156135
5.84 -0.00757499
5.85 0.00134175
5.86 0.0110552
5.87 0.0214585
5.88 0.0324223
5.89 0.0437981
5.9 0.0554293
5.91 0.0671073
5.92 0.0786487
5.93 0.0898808
5.94 0.10064
5.95 0.110776
5.96 0.120142
5.97 0.128558
5.98 0.136028
5.99 0.142513
6 0.148007
6.01 0.152533
6.02 0.156147
6.03 0.158883
6.04 0.160895
6.05 0.162357
6.06 0.163421
6.07 0.164247
6.08 0.165001
6.09 0.165848
6.1 0.16698
6.11 0.168515
6.12 0.170564
6.13 0.17321
6.14 0.176506
6.15 0.180472
6.16 0.185134
6.17 0.190424
6.18 0.196219
6.19 0.202399
6.2 0.208819
6.21 0.215311
6.22 0.221691
6.23 0.227708
6.24 0.233179
6.25 0.23791
6.26 0.241718
6.27 0.244435
6.28 0.245917
6.29 0.245967
6.3 0.244472
6.31 0.241475
6.32 0.236964
6.33 0.230963
6.34 0.223531
6.35 0.214757
6.36 0.204646
6.37 0.193477
6.38 0.181431
6.39 0.168689
6.4 0.15544
6.41 0.141873
6.42 0.128176
6.43 0.114548
6.44 0.101152
6.45 0.0881242
6.46 0.0755754
6.47 0.0635911
6.48 0.0522294
6.49 0.0415831
6.5 0.0316037
6.51 0.0222477
6.52 0.0134643
6.53 0.00518357
6.54 -0.00267891
6.55 -0.0102116
6.56 -0.0175172
6.57 -0.0247234
6.58 -0.0319272
6.59 -0.0392164
6.6 -0.0466664
6.61 -0.0543371
6.62 -0.0622939
6.63 -0.0705449
6.64 -0.0790766
6.65 -0.0878641
6.66 -0.0968631
6.67 -0.106011
6.68 -0.11523
6.69 -0.124415
6.7 -0.133457
6.71 -0.14225
6.72 -0.150684
6.73 -0.158653
6.74 -0.166054
6.75 -0.172741
6.76 -0.178639
6.77 -0.183712
6.78 -0.187909
6.79 -0.191192
6.8 -0.193541
6.81 -0.19494
6.82 -0.195307
6.83 -0.194763
6.84 -0.193341
6.85 -0.191078
6.86 -0.188016
6.87 -0.184199
6.88 -0.17963
6.89 -0.174358
6.9 -0.168457
6.91 -0.161953
6.92 -0.154865
6.93 -0.147201
6.94 -0.138964
6.95 -0.130077
6.96 -0.120587
6.97 -0.110472
6.98 -0.0997047
6.99 -0.0882567
7 -0.0760986
7.01 -0.0631656
7.02 -0.0494211
7.03 -0.0349024
7.04 -0.0196065
7.05 -0.00354193
7.06 0.0132707
7.07 0.0307972
7.08 0.0490526
7.09 0.067907
7.1 0.0872737
7.11 0.107064
7.12 0.127178
7.13 0.14751
7.14 0.167945
7.15 0.188349
7.16 0.208596
7.17 0.22857
7.18 0.248159
7.19 0.267255
7.2 0.28576
7.21 0.303513
7.22 0.320475
7.23 0.336597
7.24 0.351826
7.25 0.36612
7.26 0.379447
7.27 0.391756
7.28 0.402974
7.29 0.413183
7.3 0.422382
7.31 0.430575
7.32 0.437766
7.33 0.443959
7.34 0.449074
7.35 0.453153
7.36 0.456225
7.37 0.458277
7.38 0.459291
7.39 0.459243
7.4 0.458087
7.41 0.455689
7.42 0.452124
7.43 0.447354
7.44 0.44134
7.45 0.434046
7.46 0.425442
7.47 0.415407
7.48 0.403952
7.49 0.391137
7.5 0.376967
7.51 0.361463
7.52 0.344659
7.53 0.326597
7.54 0.307226
7.55 0.286769
7.56 0.265324
7.57 0.243004
7.58 0.219935
7.59 0.196255
7.6 0.172094
7.61 0.147633
7.62 0.123061
7.63 0.098542
7.64 0.0742435
7.65 0.0503299
7.66 0.0269617
7.67 0.00438805
7.68 -0.0173075
7.69 -0.0379963
7.7 -0.0575587
7.71 -0.0758891
7.72 -0.0928972
7.73 -0.10844
7.74 -0.122423
7.75 -0.13491
7.76 -0.145884
7.77 -0.155345
7.78 -0.163313
7.79 -0.169819
7.8 -0.174779
7.81 -0.178383
7.82 -0.180733
7.83 -0.181919
7.84 -0.182039
7.85 -0.181198
7.86 -0.17948
7.87 -0.17698
7.88 -0.173879
7.89 -0.170288
7.9 -0.166315
7.91 -0.162063
7.92 -0.157627
7.93 -0.153091
7.94 -0.148545
7.95 -0.144054
7.96 -0.139668
7.97 -0.135426
7.98 -0.131355
7.99 -0.127472
8 -0.123792
8.01 -0.120287
8.02 -0.116938
8.03 -0.113718
8.04 -0.110594
8.05 -0.107529
8.06 -0.104482
8.07 -0.101408
8.08 -0.0982688
8.09 -0.0950319
8.1 -0.09167
8.11 -0.0881627
8.12 -0.0844957
8.13 -0.0806526
8.14 -0.0766592
8.15 -0.0725344
8.16 -0.0683067
8.17 -0.0640131
8.18 -0.0596983
8.19 -0.0554189
8.2 -0.0512384
8.21 -0.0472132
8.22 -0.0434017
8.23 -0.0398598
8.24 -0.036639
8.25 -0.0337861
8.26 -0.0313854
8.27 -0.029418
8.28 -0.0278957
8.29 -0.0268177
8.3 -0.02617
8.31 -0.0259255
8.32 -0.0260614
8.33 -0.0265174
8.34 -0.0272066
8.35 -0.0280554
8.36 -0.0289841
8.37 -0.0299091
8.38 -0.0307457
8.39 -0.031383
8.4 -0.0317529
8.41 -0.031787
8.42 -0.0314258
8.43 -0.0306218
8.44 -0.0293412
8.45 -0.0275433
8.46 -0.0252146
8.47 -0.0224098
8.48 -0.0191636
8.49 -0.0155262
8.5 -0.0115617
8.51 -0.00734644
8.52 -0.00295985
8.53 0.00147975
8.54 0.00587025
8.55 0.0101115
8.56 0.0141051
8.57 0.0177578
8.58 0.020966
8.59 0.0236201
8.6 0.0256961
8.61 0.0271474
8.62 0.0279422
8.63 0.0280644
8.64 0.0275134
8.65 0.0262485
8.66 0.024342
8.67 0.0218577
8.68 0.0188502
8.69 0.0153822
8.7 0.0115219
8.71 0.00733514
8.72 0.00288593
8.73 -0.00172744
8.74 -0.00644021
8.75 -0.0111943
8.76 -0.0159397
8.77 -0.0206361
8.78 -0.0252459
8.79 -0.0297518
8.8 -0.0341513
8.81 -0.0384486
8.82 -0.0426569
8.83 -0.0467967
8.84 -0.0508949
8.85 -0.0549856
8.86 -0.0591066
8.87 -0.0632913
8.88 -0.0675715
8.89 -0.071975
8.9 -0.0765247
8.91 -0.0812483
8.92 -0.0861527
8.93 -0.0912286
8.94 -0.0964672
8.95 -0.101852
8.96 -0.107359
8.97 -0.112961
8.98 -0.118624
8.99 -0.1243
9 -0.129952
9.01 -0.135539
9.02 -0.141026
9.03 -0.146379
9.04 -0.151561
9.05 -0.156546
9.06 -0.16133
9.07 -0.16591
9.08 -0.170286
9.09 -0.174468
9.1 -0.178471
9.11 -0.182303
9.12 -0.186007
9.13 -0.189615
9.14 -0.193155
9.15 -0.196656
9.16 -0.200143
9.17 -0.203639
9.18 -0.20716
9.19 -0.210712
9.2 -0.214293
9.21 -0.217891
9.22 -0.221485
9.23 -0.225047
9.24 -0.228529
9.25 -0.231885
9.26 -0.235066
9.27 -0.238016
9.28 -0.240678
9.29 -0.242997
9.3 -0.244902
9.31 -0.246315
9.32 -0.247227
9.33 -0.247606
9.34 -0.247427
9.35 -0.246677
9.36 -0.245355
9.37 -0.243424
9.38 -0.240938
9.39 -0.23795
9.4 -0.234503
9.41 -0.230646
9.42 -0.226435
9.43 -0.221924
9.44 -0.217164
9.45 -0.212239
9.46 -0.207202
9.47 -0.202102
9.48 -0.196976
9.49 -0.191854
9.5 -0.186752
9.51 -0.181675
9.52 -0.17661
9.53 -0.171533
9.54 -0.166406
9.55 -0.161185
9.56 -0.15581
9.57 -0.150188
9.58 -0.144267
9.59 -0.137975
9.6 -0.131241
9.61 -0.123997
9.62 -0.116181
9.63 -0.107694
9.64 -0.0984926
9.65 -0.0885813
9.66 -0.0779435
9.67 -0.0665768
9.68 -0.0544928
9.69 -0.0417177
9.7 -0.0282216
9.71 -0.0141381
9.72 0.000466111
9.73 0.0155165
9.74 0.0309322
9.75 0.0466276
9.76 0.0625206
9.77 0.0785126
9.78 0.0945082
9.79 0.110429
9.8 0.126203
9.81 0.141766
9.82 0.157063
9.83 0.172012
9.84 0.186605
9.85 0.200821
9.86 0.214646
9.87 0.22807
9.88 0.241093
9.89 0.253701
9.9 0.265887
9.91 0.277689
9.92 0.289112
9.93 0.30016
9.94 0.310832
9.95 0.321122
9.96 0.330981
9.97 0.340414
9.98 0.349406
9.99 0.357925
10 0.365933
10.01 0.373389
10.02 0.380231
10.03 0.386371
10.04 0.391818
10.05 0.396532
10.06 0.400479
10.07 0.403629
10.08 0.405965
10.09 0.407409
10.1 0.408006
10.11 0.407801
10.12 0.406826
10.13 0.405123
10.14 0.402748
10.15 0.399756
10.16 0.396192
10.17 0.392201
10.18 0.387872
10.19 0.383301
10.2 0.378584
10.21 0.373813
10.22 0.369089
10.23 0.364504
10.24 0.360128
10.25 0.356024
10.26 0.352241
10.27 0.348815
10.28 0.345771
10.29 0.343157
10.3 0.34092
10.31 0.339036
10.32 0.337468
10.33 0.33617
10.34 0.335084
10.35 0.334149
10.36 0.333282
10.37 0.3324
10.38 0.331426
10.39 0.330285
10.4 0.328902
10.41 0.327209
10.42 0.325093
10.43 0.322533
10.44 0.319483
10.45 0.315905
10.46 0.311768
10.47 0.307047
10.48 0.3017
10.49 0.295705
10.5 0.289105
10.51 0.281904
10.52 0.274112
10.53 0.265741
10.54 0.256808
10.55 0.247276
10.56 0.23721
10.57 0.226637
10.58 0.215574
10.59 0.204038
10.6 0.192045
10.61 0.179594
10.62 0.166685
10.63 0.153369
10.64 0.139663
10.65 0.125587
10.66 0.111162
10.67 0.0964102
10.68 0.0813364
10.69 0.0659949
10.7 0.0504299
10.71 0.0346815
10.72 0.0187938
10.73 0.00281429
10.74 -0.0132062
10.75 -0.0292073
10.76 -0.0451324
10.77 -0.0609279
10.78 -0.0765419
10.79 -0.0919249
10.8 -0.107031
10.81 -0.121793
10.82 -0.136185
10.83 -0.150194
10.84 -0.163804
10.85 -0.177005
10.86 -0.189797
10.87 -0.202182
10.88 -0.214147
10.89 -0.225758
10.9 -0.237048
10.91 -0.248052
10.92 -0.258813
10.93 -0.269374
10.94 -0.27977
10.95 -0.290052
10.96 -0.300267
10.97 -0.310448
10.98 -0.32062
10.99 -0.330804
11 -0.34101
11.01 -0.351239
11.02 -0.361476
11.03 -0.371697
11.04 -0.381868
11.05 -0.391947
11.06 -0.401881
11.07 -0.411593
11.08 -0.421005
11.09 -0.430055
11.1 -0.438668
11.11 -0.446767
11.12 -0.454275
11.13 -0.461119
11.14 -0.46714
11.15 -0.472347
11.16 -0.47669
11.17 -0.480125
11.18 -0.482616
11.19 -0.484141
11.2 -0.484638
11.21 -0.484084
11.22 -0.482557
11.23 -0.48008
11.24 -0.476681
11.25 -0.472399
11.26 -0.467278
11.27 -0.461294
11.28 -0.454571
11.29 -0.44718
11.3 -0.439176
11.31 -0.430616
11.32 -0.42155
11.33 -0.412013
11.34 -0.402036
11.35 -0.391691
11.36 -0.38101
11.37 -0.370015
11.38 -0.358724
11.39 -0.347147
11.4 -0.335265
11.41 -0.323094
11.42 -0.310634
11.43 -0.297877
11.44 -0.284812
11.45 -0.271428
11.46 -0.257706
11.47 -0.243611
11.48 -0.22917
11.49 -0.214381
11.5 -0.199251
11.51 -0.18379
11.52 -0.168016
11.53 -0.151936
11.54 -0.135597
11.55 -0.119056
11.56 -0.10236
11.57 -0.0855661
11.58 -0.0687366
11.59 -0.0519399
11.6 -0.0352649
11.61 -0.018781
11.62 -0.00256269
11.63 0.013316
11.64 0.0287832
11.65 0.0437704
11.66 0.0581741
11.67 0.0719376
11.68 0.0850409
11.69 0.0974444
11.7 0.109118
11.71 0.12004
11.72 0.130198
11.73 0.139506
11.74 0.148064
11.75 0.155891
11.76 0.163017
11.77 0.169477
11.78 0.175314
11.79 0.180546
11.8 0.185227
11.81 0.189446
11.82 0.193256
11.83 0.196707
11.84 0.199847
11.85 0.202718
11.86 0.205338
11.87 0.20776
11.88 0.210007
11.89 0.21209
11.9 0.214012
11.91 0.215766
11.92 0.217326
11.93 0.218658
11.94 0.21974
11.95 0.22053
11.96 0.22098
11.97 0.221039
11.98 0.220651
11.99 0.219703
12 0.218171
12.01 0.216009
12.02 0.213163
12.03 0.209585
12.04 0.205231
12.05 0.200037
12.06 0.193927
12.07 0.186952
12.08 0.1791
12.09 0.17037
12.1 0.160768
12.11 0.150312
12.12 0.138956
12.13 0.126782
12.14 0.113857
12.15 0.100227
12.16 0.0859448
