# xPDFsuite Configuration #
[PDF]
wavelength = 0.1
dataformat = QA
inputfile = BiMsol6_insitu_700 C-00046.xy
backgroundfile = Quartz2mm-dist500-00000.xy
mode = xray
bgscale = 0.0042
composition = Bi2Fe4O9
outputtype = gr
qmaxinst = 24.998449118
qmin = 0.1
qmax = 21.4986662415
rmax = 80.0
rmin = 0.0
rstep = 0.01
rpoly = 0.9

[Misc]
inputdir = C:/Data/Seafile/CPH/Beamtime/Desy Oct 20/In situ data/Processed/BiMsol6/PDF
savedir = C:/Data/Seafile/CPH/Beamtime/Desy Oct 20/In situ data/PDF/BiMsol6
backgroundfilefull = C:/Data/Seafile/CPH/Beamtime/Desy Oct 20/In situ data/Processed/Standard_Empty_Cap/Quartz2mm-dist500-00000.xy

#### start data
#S 1
#L r($\AA$)  G($\AA^{-2}$)
0 0
0.01 0.00679217
0.02 0.0132056
0.03 0.0189159
0.04 0.0236323
0.05 0.0271101
0.06 0.0291628
0.07 0.0295859
0.08 0.0283191
0.09 0.0255113
0.1 0.0212847
0.11 0.0158294
0.12 0.00939502
0.13 0.00227983
0.14 -0.00518174
0.15 -0.0125658
0.16 -0.0195149
0.17 -0.0256936
0.18 -0.0308005
0.19 -0.0345831
0.2 -0.0367819
0.21 -0.0372178
0.22 -0.03599
0.23 -0.0331643
0.24 -0.0288881
0.25 -0.0233853
0.26 -0.0169478
0.27 -0.00990613
0.28 -0.00274287
0.29 0.00411303
0.3 0.0102451
0.31 0.0152568
0.32 0.0187909
0.33 0.0204861
0.34 0.0199881
0.35 0.0173457
0.36 0.0125519
0.37 0.00570772
0.38 -0.00297716
0.39 -0.0131868
0.4 -0.0245562
0.41 -0.0364507
0.42 -0.0482471
0.43 -0.0593125
0.44 -0.0689921
0.45 -0.0766342
0.46 -0.0815503
0.47 -0.0828565
0.48 -0.080359
0.49 -0.0737013
0.5 -0.0626535
0.51 -0.0471262
0.52 -0.0271812
0.53 -0.00275965
0.54 0.0255671
0.55 0.0570502
0.56 0.0909918
0.57 0.126578
0.58 0.1629
0.59 0.19897
0.6 0.233524
0.61 0.265592
0.62 0.294189
0.63 0.318398
0.64 0.337399
0.65 0.350492
0.66 0.356705
0.67 0.355662
0.68 0.347574
0.69 0.332478
0.7 0.310604
0.71 0.282365
0.72 0.248348
0.73 0.208821
0.74 0.165332
0.75 0.118903
0.76 0.0706112
0.77 0.0215699
0.78 -0.0271058
0.79 -0.0742039
0.8 -0.118524
0.81 -0.159279
0.82 -0.195701
0.83 -0.227168
0.84 -0.253224
0.85 -0.273584
0.86 -0.287548
0.87 -0.295748
0.88 -0.298546
0.89 -0.296376
0.9 -0.289802
0.91 -0.2795
0.92 -0.266143
0.93 -0.250581
0.94 -0.233874
0.95 -0.216849
0.96 -0.200293
0.97 -0.184927
0.98 -0.171385
0.99 -0.160454
1 -0.152405
1.01 -0.147422
1.02 -0.145613
1.03 -0.146955
1.04 -0.151301
1.05 -0.158456
1.06 -0.168149
1.07 -0.179684
1.08 -0.192554
1.09 -0.206222
1.1 -0.220144
1.11 -0.233792
1.12 -0.246575
1.13 -0.258045
1.14 -0.267889
1.15 -0.275849
1.16 -0.28176
1.17 -0.285555
1.18 -0.287228
1.19 -0.28676
1.2 -0.284582
1.21 -0.280984
1.22 -0.276304
1.23 -0.270919
1.24 -0.26522
1.25 -0.25963
1.26 -0.254566
1.27 -0.250343
1.28 -0.247229
1.29 -0.245426
1.3 -0.245062
1.31 -0.246193
1.32 -0.248928
1.33 -0.25297
1.34 -0.258121
1.35 -0.264118
1.36 -0.270653
1.37 -0.277383
1.38 -0.283917
1.39 -0.289838
1.4 -0.294819
1.41 -0.298556
1.42 -0.300797
1.43 -0.301349
1.44 -0.30009
1.45 -0.296772
1.46 -0.291649
1.47 -0.284869
1.48 -0.276644
1.49 -0.267251
1.5 -0.257025
1.51 -0.24634
1.52 -0.235661
1.53 -0.225429
1.54 -0.216048
1.55 -0.207891
1.56 -0.201289
1.57 -0.196515
1.58 -0.193989
1.59 -0.19366
1.6 -0.195507
1.61 -0.199452
1.62 -0.205334
1.63 -0.212905
1.64 -0.221881
1.65 -0.231858
1.66 -0.242288
1.67 -0.252698
1.68 -0.262603
1.69 -0.271525
1.7 -0.279009
1.71 -0.284441
1.72 -0.28755
1.73 -0.28812
1.74 -0.285966
1.75 -0.280995
1.76 -0.273205
1.77 -0.262621
1.78 -0.249295
1.79 -0.233758
1.8 -0.216366
1.81 -0.19753
1.82 -0.177703
1.83 -0.157364
1.84 -0.137035
1.85 -0.117252
1.86 -0.0984518
1.87 -0.0810269
1.88 -0.0653084
1.89 -0.0515569
1.9 -0.0399872
1.91 -0.0308949
1.92 -0.024045
1.93 -0.0193424
1.94 -0.0166151
1.95 -0.0156226
1.96 -0.0160672
1.97 -0.017655
1.98 -0.0199384
1.99 -0.0224817
2 -0.0249088
2.01 -0.0268676
2.02 -0.0280445
2.03 -0.0281726
2.04 -0.0269001
2.05 -0.0242436
2.06 -0.0201731
2.07 -0.0147375
2.08 -0.00806339
2.09 -0.000350177
2.1 0.00816187
2.11 0.0170969
2.12 0.0260379
2.13 0.0345869
2.14 0.0423367
2.15 0.0488862
2.16 0.0538557
2.17 0.0566585
2.18 0.0571799
2.19 0.0552218
2.2 0.0506443
2.21 0.0433865
2.22 0.0334695
2.23 0.0208889
2.24 0.00580387
2.25 -0.0113289
2.26 -0.0301714
2.27 -0.0503345
2.28 -0.0713904
2.29 -0.0928867
2.3 -0.114313
2.31 -0.135167
2.32 -0.155022
2.33 -0.173487
2.34 -0.190222
2.35 -0.204945
2.36 -0.217359
2.37 -0.227202
2.38 -0.234617
2.39 -0.239633
2.4 -0.242354
2.41 -0.24295
2.42 -0.241649
2.43 -0.238615
2.44 -0.2343
2.45 -0.229099
2.46 -0.223365
2.47 -0.217452
2.48 -0.211699
2.49 -0.206434
2.5 -0.202018
2.51 -0.19862
2.52 -0.196406
2.53 -0.19549
2.54 -0.195927
2.55 -0.197715
2.56 -0.20089
2.57 -0.205283
2.58 -0.210683
2.59 -0.2169
2.6 -0.22372
2.61 -0.230915
2.62 -0.238245
2.63 -0.245443
2.64 -0.252283
2.65 -0.258569
2.66 -0.264135
2.67 -0.268846
2.68 -0.272602
2.69 -0.275274
2.7 -0.276853
2.71 -0.277414
2.72 -0.277011
2.73 -0.275727
2.74 -0.273666
2.75 -0.27095
2.76 -0.267669
2.77 -0.264032
2.78 -0.260174
2.79 -0.25622
2.8 -0.25228
2.81 -0.248447
2.82 -0.244804
2.83 -0.241407
2.84 -0.23826
2.85 -0.235358
2.86 -0.232675
2.87 -0.230166
2.88 -0.22777
2.89 -0.225411
2.9 -0.222998
2.91 -0.220449
2.92 -0.217687
2.93 -0.214644
2.94 -0.211259
2.95 -0.207471
2.96 -0.203238
2.97 -0.198582
2.98 -0.193516
2.99 -0.188069
3 -0.182285
3.01 -0.176221
3.02 -0.169933
3.03 -0.163518
3.04 -0.157058
3.05 -0.150625
3.06 -0.144287
3.07 -0.138102
3.08 -0.132121
3.09 -0.126385
3.1 -0.120884
3.11 -0.115605
3.12 -0.110517
3.13 -0.10557
3.14 -0.100699
3.15 -0.0958175
3.16 -0.0908223
3.17 -0.0856152
3.18 -0.0800948
3.19 -0.0741608
3.2 -0.0677185
3.21 -0.0606676
3.22 -0.0528758
3.23 -0.0443472
3.24 -0.0350445
3.25 -0.0249491
3.26 -0.0140612
3.27 -0.00239998
3.28 0.0100481
3.29 0.0231981
3.3 0.0369492
3.31 0.0512223
3.32 0.0659322
3.33 0.0809904
3.34 0.0963109
3.35 0.111817
3.36 0.12741
3.37 0.143023
3.38 0.158605
3.39 0.174116
3.4 0.189533
3.41 0.204836
3.42 0.220029
3.43 0.235134
3.44 0.250174
3.45 0.265178
3.46 0.280175
3.47 0.295197
3.48 0.310277
3.49 0.325426
3.5 0.340648
3.51 0.355932
3.52 0.371252
3.53 0.386564
3.54 0.401798
3.55 0.416859
3.56 0.43165
3.57 0.446056
3.58 0.459949
3.59 0.473193
3.6 0.485645
3.61 0.497047
3.62 0.507331
3.63 0.516375
3.64 0.524056
3.65 0.530269
3.66 0.534924
3.67 0.537887
3.68 0.539048
3.69 0.538521
3.7 0.536316
3.71 0.532468
3.72 0.527038
3.73 0.520105
3.74 0.511651
3.75 0.501905
3.76 0.491035
3.77 0.479183
3.78 0.466495
3.79 0.45312
3.8 0.439194
3.81 0.424853
3.82 0.410274
3.83 0.395578
3.84 0.380871
3.85 0.366248
3.86 0.351788
3.87 0.337581
3.88 0.323669
3.89 0.310078
3.9 0.296832
3.91 0.283941
3.92 0.271411
3.93 0.259244
3.94 0.247458
3.95 0.236007
3.96 0.224878
3.97 0.214056
3.98 0.203531
3.99 0.193289
4 0.18334
4.01 0.173669
4.02 0.164255
4.03 0.155093
4.04 0.146177
4.05 0.137501
4.06 0.129056
4.07 0.120853
4.08 0.112853
4.09 0.105038
4.1 0.0973854
4.11 0.0898712
4.12 0.0824675
4.13 0.0751472
4.14 0.067874
4.15 0.0606127
4.16 0.0533342
4.17 0.0460128
4.18 0.0386273
4.19 0.031163
4.2 0.023603
4.21 0.0159602
4.22 0.00824855
4.23 0.00049163
4.24 -0.00727709
4.25 -0.0150147
4.26 -0.0226628
4.27 -0.0301503
4.28 -0.0374184
4.29 -0.044399
4.3 -0.051024
4.31 -0.057227
4.32 -0.0629467
4.33 -0.0680693
4.34 -0.0725944
4.35 -0.0765009
4.36 -0.0797738
4.37 -0.0824128
4.38 -0.0844339
4.39 -0.0858486
4.4 -0.086691
4.41 -0.0870728
4.42 -0.0870719
4.43 -0.0867765
4.44 -0.0862821
4.45 -0.0856888
4.46 -0.0851073
4.47 -0.0846474
4.48 -0.0844001
4.49 -0.0844473
4.5 -0.0848583
4.51 -0.0856878
4.52 -0.0869866
4.53 -0.0888046
4.54 -0.0910956
4.55 -0.0938366
4.56 -0.0969863
4.57 -0.100487
4.58 -0.104267
4.59 -0.10825
4.6 -0.112321
4.61 -0.116374
4.62 -0.120308
4.63 -0.124025
4.64 -0.127434
4.65 -0.130443
4.66 -0.132935
4.67 -0.134899
4.68 -0.136299
4.69 -0.137119
4.7 -0.137359
4.71 -0.137037
4.72 -0.136158
4.73 -0.134792
4.74 -0.133035
4.75 -0.130965
4.76 -0.128668
4.77 -0.126235
4.78 -0.123758
4.79 -0.12134
4.8 -0.119069
4.81 -0.117017
4.82 -0.115247
4.83 -0.113809
4.84 -0.11274
4.85 -0.112085
4.86 -0.111851
4.87 -0.112003
4.88 -0.112517
4.89 -0.113361
4.9 -0.11449
4.91 -0.115854
4.92 -0.117412
4.93 -0.119085
4.94 -0.120815
4.95 -0.122552
4.96 -0.124252
4.97 -0.125876
4.98 -0.12739
4.99 -0.12877
5 -0.130017
5.01 -0.131134
5.02 -0.132133
5.03 -0.133032
5.04 -0.133856
5.05 -0.134634
5.06 -0.135405
5.07 -0.1362
5.08 -0.137048
5.09 -0.137973
5.1 -0.138995
5.11 -0.140127
5.12 -0.141375
5.13 -0.142723
5.14 -0.144152
5.15 -0.145634
5.16 -0.147137
5.17 -0.148619
5.18 -0.150024
5.19 -0.151303
5.2 -0.152409
5.21 -0.153296
5.22 -0.153922
5.23 -0.154251
5.24 -0.154248
5.25 -0.153869
5.26 -0.153143
5.27 -0.152075
5.28 -0.150684
5.29 -0.148999
5.3 -0.14706
5.31 -0.144902
5.32 -0.142596
5.33 -0.14021
5.34 -0.137805
5.35 -0.13544
5.36 -0.133173
5.37 -0.131057
5.38 -0.129156
5.39 -0.127484
5.4 -0.126057
5.41 -0.124882
5.42 -0.12395
5.43 -0.123239
5.44 -0.122726
5.45 -0.122356
5.46 -0.122062
5.47 -0.121782
5.48 -0.12145
5.49 -0.120996
5.5 -0.120354
5.51 -0.119425
5.52 -0.11818
5.53 -0.116575
5.54 -0.114579
5.55 -0.112172
5.56 -0.109351
5.57 -0.106106
5.58 -0.102466
5.59 -0.0984981
5.6 -0.0942575
5.61 -0.089809
5.62 -0.0852255
5.63 -0.0805845
5.64 -0.0759768
5.65 -0.0714865
5.66 -0.0671862
5.67 -0.0631413
5.68 -0.0594069
5.69 -0.0560256
5.7 -0.0530433
5.71 -0.0504839
5.72 -0.048312
5.73 -0.0465042
5.74 -0.0450225
5.75 -0.0438152
5.76 -0.042819
5.77 -0.0419668
5.78 -0.0411591
5.79 -0.0403105
5.8 -0.0393387
5.81 -0.0381655
5.82 -0.0367193
5.83 -0.0349254
5.84 -0.0327094
5.85 -0.030069
5.86 -0.0269884
5.87 -0.0234683
5.88 -0.0195261
5.89 -0.0151948
5.9 -0.0104985
5.91 -0.00552647
5.92 -0.000363365
5.93 0.00490947
5.94 0.0102064
5.95 0.0154408
5.96 0.0205229
5.97 0.0253476
5.98 0.0298623
5.99 0.0340103
6 0.0377486
6.01 0.0410494
6.02 0.0439011
6.03 0.046277
6.04 0.0482185
6.05 0.0497851
6.06 0.0510315
6.07 0.0520233
6.08 0.0528358
6.09 0.0535501
6.1 0.0542599
6.11 0.0550582
6.12 0.056025
6.13 0.0572339
6.14 0.0587487
6.15 0.0606216
6.16 0.062918
6.17 0.0656579
6.18 0.068823
6.19 0.0724001
6.2 0.0763603
6.21 0.08066
6.22 0.0852424
6.23 0.0900552
6.24 0.0949877
6.25 0.0999547
6.26 0.104868
6.27 0.10964
6.28 0.114185
6.29 0.118402
6.3 0.122205
6.31 0.125553
6.32 0.128399
6.33 0.130707
6.34 0.132455
6.35 0.133636
6.36 0.134198
6.37 0.134216
6.38 0.13373
6.39 0.132786
6.4 0.131433
6.41 0.129732
6.42 0.127736
6.43 0.125511
6.44 0.123145
6.45 0.120701
6.46 0.118237
6.47 0.115808
6.48 0.113461
6.49 0.111251
6.5 0.109202
6.51 0.107334
6.52 0.105658
6.53 0.104181
6.54 0.102898
6.55 0.101807
6.56 0.100899
6.57 0.100137
6.58 0.0994969
6.59 0.098952
6.6 0.0984744
6.61 0.0980358
6.62 0.0976071
6.63 0.0971581
6.64 0.0966643
6.65 0.096104
6.66 0.0954579
6.67 0.0947097
6.68 0.0938433
6.69 0.0928368
6.7 0.0916943
6.71 0.0904107
6.72 0.0889832
6.73 0.0874108
6.74 0.0856948
6.75 0.0838282
6.76 0.0818205
6.77 0.0796847
6.78 0.0774292
6.79 0.0750641
6.8 0.0726015
6.81 0.0700545
6.82 0.0674341
6.83 0.0647669
6.84 0.0620728
6.85 0.0593731
6.86 0.0566905
6.87 0.0540485
6.88 0.0514771
6.89 0.0490037
6.9 0.0466478
6.91 0.0444311
6.92 0.0423732
6.93 0.0404907
6.94 0.0387963
6.95 0.0373213
6.96 0.0360463
6.97 0.0349671
6.98 0.034074
6.99 0.0333516
7 0.0327783
7.01 0.0323317
7.02 0.0319755
7.03 0.0316646
7.04 0.0313582
7.05 0.0310138
7.06 0.0305881
7.07 0.0300382
7.08 0.0293021
7.09 0.0283538
7.1 0.0271641
7.11 0.0257077
7.12 0.0239661
7.13 0.0219292
7.14 0.0195837
7.15 0.0169278
7.16 0.014003
7.17 0.0108362
7.18 0.00746222
7.19 0.00392299
7.2 0.000266415
7.21 -0.00345558
7.22 -0.00717571
7.23 -0.0108347
7.24 -0.0143752
7.25 -0.0177415
7.26 -0.0208815
7.27 -0.023739
7.28 -0.0262489
7.29 -0.0284042
7.3 -0.0301809
7.31 -0.0315636
7.32 -0.0325455
7.33 -0.0331283
7.34 -0.0332924
7.35 -0.0330768
7.36 -0.0325221
7.37 -0.0316607
7.38 -0.0305298
7.39 -0.02917
7.4 -0.0276219
7.41 -0.0259235
7.42 -0.0241367
7.43 -0.0223043
7.44 -0.0204671
7.45 -0.0186632
7.46 -0.0169277
7.47 -0.0153008
7.48 -0.0138114
7.49 -0.0124776
7.5 -0.0113189
7.51 -0.0103513
7.52 -0.00958826
7.53 -0.00904154
7.54 -0.00874372
7.55 -0.00867652
7.56 -0.00884413
7.57 -0.00924922
7.58 -0.00989299
7.59 -0.0107752
7.6 -0.0119074
7.61 -0.0132845
7.62 -0.0148859
7.63 -0.0167018
7.64 -0.0187192
7.65 -0.0209214
7.66 -0.0232881
7.67 -0.0258069
7.68 -0.0284303
7.69 -0.0311234
7.7 -0.0338481
7.71 -0.0365633
7.72 -0.0392251
7.73 -0.0417809
7.74 -0.0441749
7.75 -0.0463699
7.76 -0.0483236
7.77 -0.049998
7.78 -0.0513604
7.79 -0.0523852
7.8 -0.0530179
7.81 -0.053281
7.82 -0.0531849
7.83 -0.0527445
7.84 -0.0519854
7.85 -0.0509435
7.86 -0.0496579
7.87 -0.048183
7.88 -0.0466
7.89 -0.0449761
7.9 -0.0433809
7.91 -0.0418841
7.92 -0.0405531
7.93 -0.0394757
7.94 -0.0386977
7.95 -0.0382549
7.96 -0.0381773
7.97 -0.0384809
7.98 -0.0391673
7.99 -0.0402306
8 -0.0416572
8.01 -0.0433648
8.02 -0.0452907
8.03 -0.0473606
8.04 -0.0494907
8.05 -0.0515904
8.06 -0.0535479
8.07 -0.0552617
8.08 -0.0566473
8.09 -0.0576228
8.1 -0.0581173
8.11 -0.0580739
8.12 -0.0574433
8.13 -0.0561513
8.14 -0.0542621
8.15 -0.0518015
8.16 -0.048816
8.17 -0.0453722
8.18 -0.041555
8.19 -0.0374554
8.2 -0.0332106
8.21 -0.028959
8.22 -0.0248304
8.23 -0.0209543
8.24 -0.0174559
8.25 -0.0144537
8.26 -0.012127
8.27 -0.0104977
8.28 -0.00962568
8.29 -0.00954676
8.3 -0.0102716
8.31 -0.0117846
8.32 -0.014082
8.33 -0.0170851
8.34 -0.0206522
8.35 -0.0246662
8.36 -0.0289939
8.37 -0.0334894
8.38 -0.0379994
8.39 -0.0423355
8.4 -0.046344
8.41 -0.049883
8.42 -0.0528229
8.43 -0.0550521
8.44 -0.0564804
8.45 -0.0570009
8.46 -0.0565494
8.47 -0.0551856
8.48 -0.0529346
8.49 -0.0498485
8.5 -0.0460046
8.51 -0.0415028
8.52 -0.0364222
8.53 -0.0309564
8.54 -0.0252608
8.55 -0.0194846
8.56 -0.0137756
8.57 -0.00827509
8.58 -0.00312913
8.59 0.00151216
8.6 0.00558903
8.61 0.00903465
8.62 0.0118068
8.63 0.0138889
8.64 0.0152898
8.65 0.0159917
8.66 0.0160988
8.67 0.0157119
8.68 0.0149281
8.69 0.0138558
8.7 0.0126108
8.71 0.0113127
8.72 0.010096
8.73 0.00906964
8.74 0.00832753
8.75 0.00794753
8.76 0.00798876
8.77 0.00848951
8.78 0.00950151
8.79 0.0109967
8.8 0.0129208
8.81 0.0152191
8.82 0.0178189
8.83 0.0206329
8.84 0.0235626
8.85 0.0264902
8.86 0.0292975
8.87 0.0318798
8.88 0.0341396
8.89 0.0359909
8.9 0.0373623
8.91 0.0381636
8.92 0.0383667
8.93 0.037994
8.94 0.0370617
8.95 0.0356076
8.96 0.0336895
8.97 0.0313829
8.98 0.0287565
8.99 0.0259586
9 0.0231007
9.01 0.0202966
9.02 0.0176576
9.03 0.0152891
9.04 0.01331
9.05 0.0118149
9.06 0.0108379
9.07 0.0104171
9.08 0.0105688
9.09 0.0112872
9.1 0.0125447
9.11 0.0143375
9.12 0.0165402
9.13 0.0190595
9.14 0.0217952
9.15 0.0246384
9.16 0.0274761
9.17 0.0301851
9.18 0.0326346
9.19 0.0347374
9.2 0.0364092
9.21 0.0375818
9.22 0.0382057
9.23 0.0382518
9.24 0.0376579
9.25 0.0364873
9.26 0.0347932
9.27 0.0326354
9.28 0.0300902
9.29 0.027248
9.3 0.0242067
9.31 0.0210838
9.32 0.0180042
9.33 0.0150746
9.34 0.0123954
9.35 0.0100564
9.36 0.00813442
9.37 0.00673389
9.38 0.00587402
9.39 0.00555624
9.4 0.00577757
9.41 0.00651526
9.42 0.00772791
9.43 0.00936413
9.44 0.0113661
9.45 0.0136075
9.46 0.015994
9.47 0.0184272
9.48 0.0208086
9.49 0.0230433
9.5 0.0250198
9.51 0.0266579
9.52 0.0279065
9.53 0.0287191
9.54 0.0290653
9.55 0.0289321
9.56 0.0283195
9.57 0.0272081
9.58 0.0256892
9.59 0.0238158
9.6 0.0216519
9.61 0.0192694
9.62 0.0167452
9.63 0.0141596
9.64 0.0116027
9.65 0.00915022
9.66 0.00686792
9.67 0.00481245
9.68 0.00302959
9.69 0.001553
9.7 0.000442261
9.71 -0.000333789
9.72 -0.000783605
9.73 -0.000926392
9.74 -0.000791168
9.75 -0.000414974
9.76 0.000166808
9.77 0.00090226
9.78 0.00173081
9.79 0.00260597
9.8 0.00348486
9.81 0.00433005
9.82 0.00511106
9.83 0.00579501
9.84 0.0063766
9.85 0.00685497
9.86 0.00723685
9.87 0.00753695
9.88 0.00777683
9.89 0.00798354
9.9 0.00819246
9.91 0.00843858
9.92 0.00875402
9.93 0.00916832
9.94 0.00970668
9.95 0.0103884
9.96 0.0112404
9.97 0.0122544
9.98 0.0134195
9.99 0.0147191
10 0.0161285
10.01 0.0176151
10.02 0.0191395
10.03 0.0206507
10.04 0.0220978
10.05 0.0234321
10.06 0.0246058
10.07 0.0255749
10.08 0.0263001
10.09 0.0267247
10.1 0.0268368
10.11 0.0266352
10.12 0.0261191
10.13 0.0252991
10.14 0.0241959
10.15 0.0228368
10.16 0.0212505
10.17 0.0195105
10.18 0.0176713
10.19 0.0157906
10.2 0.013927
10.21 0.0121383
10.22 0.0104914
10.23 0.0090378
10.24 0.00781055
10.25 0.00683979
10.26 0.00614538
10.27 0.00573619
10.28 0.00561181
10.29 0.00578368
10.3 0.00619425
10.31 0.00680797
10.32 0.00758178
10.33 0.00846693
10.34 0.00941092
10.35 0.0103565
10.36 0.0112423
10.37 0.0120189
10.38 0.0126419
10.39 0.0130739
10.4 0.0132861
10.41 0.0132588
10.42 0.0129545
10.43 0.0124033
10.44 0.0116199
10.45 0.010627
10.46 0.00945536
10.47 0.00814244
10.48 0.00672797
10.49 0.00526306
10.5 0.00379991
10.51 0.00238272
10.52 0.001052
10.53 -0.000157173
10.54 -0.00121666
10.55 -0.00208804
10.56 -0.00277566
10.57 -0.00328321
10.58 -0.00362106
10.59 -0.00380838
10.6 -0.00387215
10.61 -0.00384409
10.62 -0.00376648
10.63 -0.00368804
10.64 -0.00365128
10.65 -0.00369714
10.66 -0.00386294
10.67 -0.0041805
10.68 -0.004692
10.69 -0.00540228
10.7 -0.00631026
10.71 -0.00740925
10.72 -0.00868215
10.73 -0.0101019
10.74 -0.0116341
10.75 -0.0132319
10.76 -0.0148344
10.77 -0.0163861
10.78 -0.0178301
10.79 -0.0191106
10.8 -0.0201748
10.81 -0.0209513
10.82 -0.0214083
10.83 -0.021529
10.84 -0.0212983
10.85 -0.0207135
10.86 -0.0197851
10.87 -0.0185324
10.88 -0.0169735
10.89 -0.0151916
10.9 -0.0132478
10.91 -0.0112109
10.92 -0.00915531
10.93 -0.00715839
10.94 -0.00531243
10.95 -0.00369966
10.96 -0.00238046
10.97 -0.00141358
10.98 -0.0008467
10.99 -0.000714534
11 -0.00103941
11.01 -0.00187432
11.02 -0.00315196
11.03 -0.00484079
11.04 -0.00689436
11.05 -0.00925259
11.06 -0.0118436
11.07 -0.0145894
11.08 -0.0173873
11.09 -0.0201359
11.1 -0.0227423
11.11 -0.0251163
11.12 -0.0271738
11.13 -0.0288391
11.14 -0.0299917
11.15 -0.0306258
11.16 -0.0307129
11.17 -0.0302376
11.18 -0.0292014
11.19 -0.0276227
11.2 -0.0255146
11.21 -0.0229245
11.22 -0.0199537
11.23 -0.0166783
11.24 -0.0131825
11.25 -0.00955548
11.26 -0.00588903
11.27 -0.00228825
11.28 0.00115468
11.29 0.00436136
11.3 0.00726134
11.31 0.00979521
11.32 0.0119161
11.33 0.0135742
11.34 0.0147283
11.35 0.0154146
11.36 0.0156462
11.37 0.0154486
11.38 0.0148592
11.39 0.0139247
11.4 0.0126796
11.41 0.0112095
11.42 0.00958649
11.43 0.00787498
11.44 0.0061375
11.45 0.00443276
11.46 0.0028172
11.47 0.00135084
11.48 6.00409e-05
11.49 -0.00102922
11.5 -0.00190056
11.51 -0.0025471
11.52 -0.00297106
11.53 -0.00316815
11.54 -0.00316782
11.55 -0.00300399
11.56 -0.00270647
11.57 -0.00230777
11.58 -0.00184161
11.59 -0.00134138
11.6 -0.000842144
11.61 -0.000374424
11.62 3.8408e-05
11.63 0.00037798
11.64 0.000631384
11.65 0.000791359
11.66 0.000850191
11.67 0.000814236
11.68 0.000697788
11.69 0.000513976
11.7 0.000278684
11.71 9.54762e-06
11.72 -0.000275086
11.73 -0.000554937
11.74 -0.00081249
11.75 -0.00103397
11.76 -0.00120866
11.77 -0.00132937
11.78 -0.00139266
11.79 -0.00139608
11.8 -0.00134455
11.81 -0.00124989
