# xPDFsuite Configuration #
[PDF]
wavelength = 0.1
dataformat = QA
inputfile = BiMsol6_insitu_700 C-00461.xy
backgroundfile = Quartz2mm-dist500-00000.xy
mode = xray
bgscale = 0.0042
composition = Bi2Fe4O9
outputtype = gr
qmaxinst = 24.998449118
qmin = 0.1
qmax = 21.4986662415
rmax = 80.0
rmin = 0.0
rstep = 0.01
rpoly = 0.9

[Misc]
inputdir = C:/Data/Seafile/CPH/Beamtime/Desy Oct 20/In situ data/Processed/BiMsol6/PDF
savedir = C:/Data/Seafile/CPH/Beamtime/Desy Oct 20/In situ data/PDF/BiMsol6
backgroundfilefull = C:/Data/Seafile/CPH/Beamtime/Desy Oct 20/In situ data/Processed/Standard_Empty_Cap/Quartz2mm-dist500-00000.xy

#### start data
#S 1
#L r($\AA$)  G($\AA^{-2}$)
0 0
0.01 0.00595119
0.02 0.0115638
0.03 0.016548
0.04 0.020644
0.05 0.0236336
0.06 0.0253508
0.07 0.0256141
0.08 0.024371
0.09 0.0217562
0.1 0.0178807
0.11 0.0129162
0.12 0.00708793
0.13 0.000664134
0.14 -0.00605304
0.15 -0.0126849
0.16 -0.0189118
0.17 -0.0244341
0.18 -0.0289835
0.19 -0.0323364
0.2 -0.0342634
0.21 -0.0346089
0.22 -0.0334673
0.23 -0.0309034
0.24 -0.0270555
0.25 -0.0221307
0.26 -0.0163975
0.27 -0.0101627
0.28 -0.0038632
0.29 0.00211193
0.3 0.00738485
0.31 0.0115969
0.32 0.0144262
0.33 0.0155469
0.34 0.0146409
0.35 0.0117617
0.36 0.00691013
0.37 0.000185924
0.38 -0.00821099
0.39 -0.0179833
0.4 -0.0287852
0.41 -0.040027
0.42 -0.0511297
0.43 -0.0615041
0.44 -0.0705403
0.45 -0.0776305
0.46 -0.0821309
0.47 -0.0832108
0.48 -0.0806895
0.49 -0.0742283
0.5 -0.0636043
0.51 -0.0487241
0.52 -0.0296334
0.53 -0.00625514
0.54 0.0208909
0.55 0.0511162
0.56 0.0837833
0.57 0.118145
0.58 0.153364
0.59 0.188528
0.6 0.222475
0.61 0.254278
0.62 0.283007
0.63 0.307792
0.64 0.327842
0.65 0.342475
0.66 0.350746
0.67 0.352254
0.68 0.347141
0.69 0.335387
0.7 0.317147
0.71 0.292746
0.72 0.262671
0.73 0.227068
0.74 0.18736
0.75 0.144452
0.76 0.0993089
0.77 0.0529385
0.78 0.00636123
0.79 -0.0393278
0.8 -0.0830094
0.81 -0.123889
0.82 -0.161213
0.83 -0.194351
0.84 -0.222814
0.85 -0.246262
0.86 -0.263969
0.87 -0.276403
0.88 -0.283799
0.89 -0.286461
0.9 -0.284817
0.91 -0.279398
0.92 -0.270727
0.93 -0.259488
0.94 -0.246637
0.95 -0.232895
0.96 -0.218965
0.97 -0.205506
0.98 -0.193113
0.99 -0.182492
1 -0.173988
1.01 -0.167854
1.02 -0.16427
1.03 -0.163309
1.04 -0.164939
1.05 -0.169093
1.06 -0.175649
1.07 -0.184083
1.08 -0.194032
1.09 -0.2051
1.1 -0.216872
1.11 -0.228932
1.12 -0.24084
1.13 -0.252194
1.14 -0.262691
1.15 -0.27208
1.16 -0.280175
1.17 -0.286858
1.18 -0.292054
1.19 -0.295672
1.2 -0.297952
1.21 -0.299041
1.22 -0.299124
1.23 -0.298417
1.24 -0.297151
1.25 -0.295556
1.26 -0.293899
1.27 -0.292394
1.28 -0.291208
1.29 -0.290469
1.3 -0.290262
1.31 -0.290622
1.32 -0.291586
1.33 -0.293015
1.34 -0.294794
1.35 -0.296772
1.36 -0.298773
1.37 -0.300608
1.38 -0.302046
1.39 -0.302872
1.4 -0.30294
1.41 -0.302116
1.42 -0.3003
1.43 -0.29744
1.44 -0.29353
1.45 -0.288516
1.46 -0.282623
1.47 -0.276017
1.48 -0.268901
1.49 -0.26151
1.5 -0.254106
1.51 -0.246994
1.52 -0.240504
1.53 -0.234879
1.54 -0.23036
1.55 -0.22715
1.56 -0.225407
1.57 -0.225236
1.58 -0.226839
1.59 -0.230045
1.6 -0.234721
1.61 -0.240701
1.62 -0.247755
1.63 -0.255606
1.64 -0.263933
1.65 -0.272337
1.66 -0.280407
1.67 -0.287767
1.68 -0.294052
1.69 -0.298921
1.7 -0.302075
1.71 -0.303069
1.72 -0.301822
1.73 -0.298288
1.74 -0.292434
1.75 -0.284305
1.76 -0.274021
1.77 -0.261724
1.78 -0.247596
1.79 -0.232132
1.8 -0.215692
1.81 -0.198662
1.82 -0.181441
1.83 -0.164428
1.84 -0.148083
1.85 -0.132776
1.86 -0.118784
1.87 -0.106351
1.88 -0.0956596
1.89 -0.0868249
1.9 -0.0799175
1.91 -0.075061
1.92 -0.0719456
1.93 -0.0703946
1.94 -0.0701786
1.95 -0.0710254
1.96 -0.0726318
1.97 -0.0746832
1.98 -0.0768
1.99 -0.0786522
2 -0.0799561
2.01 -0.0804661
2.02 -0.0799856
2.03 -0.0783704
2.04 -0.07541
2.05 -0.0712447
2.06 -0.0659509
2.07 -0.0596697
2.08 -0.0526017
2.09 -0.0449995
2.1 -0.0371646
2.11 -0.0294783
2.12 -0.0223006
2.13 -0.0159814
2.14 -0.010859
2.15 -0.00724669
2.16 -0.0054211
2.17 -0.00585105
2.18 -0.00850755
2.19 -0.0134649
2.2 -0.0207433
2.21 -0.030293
2.22 -0.0419947
2.23 -0.0557414
2.24 -0.0712901
2.25 -0.0881945
2.26 -0.106109
2.27 -0.124662
2.28 -0.143468
2.29 -0.16214
2.3 -0.180218
2.31 -0.197358
2.32 -0.213269
2.33 -0.227692
2.34 -0.240427
2.35 -0.251333
2.36 -0.260264
2.37 -0.267122
2.38 -0.27213
2.39 -0.27541
2.4 -0.277136
2.41 -0.277525
2.42 -0.276826
2.43 -0.27527
2.44 -0.273227
2.45 -0.271008
2.46 -0.268888
2.47 -0.267123
2.48 -0.265937
2.49 -0.265542
2.5 -0.266159
2.51 -0.267801
2.52 -0.270504
2.53 -0.274259
2.54 -0.279011
2.55 -0.284663
2.56 -0.291131
2.57 -0.298198
2.58 -0.305648
2.59 -0.313282
2.6 -0.320899
2.61 -0.328302
2.62 -0.335301
2.63 -0.341661
2.64 -0.347297
2.65 -0.352105
2.66 -0.356016
2.67 -0.358995
2.68 -0.361037
2.69 -0.362115
2.7 -0.362311
2.71 -0.361757
2.72 -0.360557
2.73 -0.358824
2.74 -0.356679
2.75 -0.354243
2.76 -0.351619
2.77 -0.348938
2.78 -0.34628
2.79 -0.343705
2.8 -0.341253
2.81 -0.338937
2.82 -0.336754
2.83 -0.334666
2.84 -0.332608
2.85 -0.33051
2.86 -0.328287
2.87 -0.325851
2.88 -0.323107
2.89 -0.319916
2.9 -0.316227
2.91 -0.311977
2.92 -0.307113
2.93 -0.301603
2.94 -0.295432
2.95 -0.288581
2.96 -0.281062
2.97 -0.272973
2.98 -0.264376
2.99 -0.255345
3 -0.245963
3.01 -0.236312
3.02 -0.226464
3.03 -0.216511
3.04 -0.206517
3.05 -0.196521
3.06 -0.186546
3.07 -0.176591
3.08 -0.166629
3.09 -0.156598
3.1 -0.146423
3.11 -0.136006
3.12 -0.125232
3.13 -0.113975
3.14 -0.1021
3.15 -0.0893968
3.16 -0.0757561
3.17 -0.0610847
3.18 -0.0452819
3.19 -0.0282696
3.2 -0.00999758
3.21 0.00957912
3.22 0.030533
3.23 0.0526784
3.24 0.075916
3.25 0.100111
3.26 0.125094
3.27 0.150667
3.28 0.176613
3.29 0.202639
3.3 0.22847
3.31 0.253838
3.32 0.278477
3.33 0.302127
3.34 0.324531
3.35 0.3453
3.36 0.364379
3.37 0.381613
3.38 0.396878
3.39 0.410089
3.4 0.421196
3.41 0.430058
3.42 0.436729
3.43 0.441393
3.44 0.444147
3.45 0.445114
3.46 0.44444
3.47 0.442284
3.48 0.438685
3.49 0.433985
3.5 0.428359
3.51 0.421978
3.52 0.414999
3.53 0.407572
3.54 0.399817
3.55 0.391863
3.56 0.383824
3.57 0.375778
3.58 0.367786
3.59 0.359898
3.6 0.35215
3.61 0.344589
3.62 0.337222
3.63 0.330064
3.64 0.32313
3.65 0.316439
3.66 0.310013
3.67 0.303894
3.68 0.298133
3.69 0.292751
3.7 0.287796
3.71 0.283325
3.72 0.279394
3.73 0.276067
3.74 0.273473
3.75 0.27163
3.76 0.270576
3.77 0.270355
3.78 0.271003
3.79 0.272543
3.8 0.275012
3.81 0.278454
3.82 0.282766
3.83 0.287911
3.84 0.293835
3.85 0.300473
3.86 0.307749
3.87 0.315614
3.88 0.323937
3.89 0.332601
3.9 0.341509
3.91 0.350563
3.92 0.359671
3.93 0.368743
3.94 0.377684
3.95 0.386429
3.96 0.394921
3.97 0.403111
3.98 0.410961
3.99 0.41844
4 0.425494
4.01 0.432113
4.02 0.438301
4.03 0.444043
4.04 0.449325
4.05 0.454128
4.06 0.458425
4.07 0.462127
4.08 0.46525
4.09 0.467747
4.1 0.469563
4.11 0.470636
4.12 0.470899
4.13 0.470224
4.14 0.468528
4.15 0.465791
4.16 0.461947
4.17 0.456934
4.18 0.450703
4.19 0.443217
4.2 0.434306
4.21 0.424108
4.22 0.412643
4.23 0.399949
4.24 0.386078
4.25 0.371103
4.26 0.355067
4.27 0.338073
4.28 0.320305
4.29 0.301888
4.3 0.282949
4.31 0.263616
4.32 0.244015
4.33 0.224258
4.34 0.204473
4.35 0.184753
4.36 0.165169
4.37 0.145775
4.38 0.126605
4.39 0.107686
4.4 0.0890206
4.41 0.0705654
4.42 0.0522824
4.43 0.034122
4.44 0.0160272
4.45 -0.00206296
4.46 -0.0202197
4.47 -0.0385015
4.48 -0.0569522
4.49 -0.0756045
4.5 -0.0944756
4.51 -0.113565
4.52 -0.132855
4.53 -0.152308
4.54 -0.171838
4.55 -0.191358
4.56 -0.210767
4.57 -0.229944
4.58 -0.248762
4.59 -0.267034
4.6 -0.284622
4.61 -0.301412
4.62 -0.317276
4.63 -0.332097
4.64 -0.345779
4.65 -0.358221
4.66 -0.369255
4.67 -0.378983
4.68 -0.387408
4.69 -0.394562
4.7 -0.400499
4.71 -0.405301
4.72 -0.409008
4.73 -0.411783
4.74 -0.413814
4.75 -0.415247
4.76 -0.416236
4.77 -0.41693
4.78 -0.417476
4.79 -0.41802
4.8 -0.418693
4.81 -0.419592
4.82 -0.420793
4.83 -0.42235
4.84 -0.424291
4.85 -0.426643
4.86 -0.429383
4.87 -0.432444
4.88 -0.435762
4.89 -0.43926
4.9 -0.442849
4.91 -0.446433
4.92 -0.44989
4.93 -0.453123
4.94 -0.456042
4.95 -0.458563
4.96 -0.460616
4.97 -0.462144
4.98 -0.463078
4.99 -0.463379
5 -0.463083
5.01 -0.4622
5.02 -0.460757
5.03 -0.458789
5.04 -0.45634
5.05 -0.453423
5.06 -0.450132
5.07 -0.446524
5.08 -0.442645
5.09 -0.43853
5.1 -0.434207
5.11 -0.429682
5.12 -0.424946
5.13 -0.419995
5.14 -0.414799
5.15 -0.409311
5.16 -0.403477
5.17 -0.397231
5.18 -0.390452
5.19 -0.383086
5.2 -0.375075
5.21 -0.36635
5.22 -0.356852
5.23 -0.346532
5.24 -0.335336
5.25 -0.323187
5.26 -0.310172
5.27 -0.296315
5.28 -0.281664
5.29 -0.26628
5.3 -0.250247
5.31 -0.233627
5.32 -0.216568
5.33 -0.199211
5.34 -0.181685
5.35 -0.164115
5.36 -0.146629
5.37 -0.12935
5.38 -0.112429
5.39 -0.0959378
5.4 -0.0799552
5.41 -0.0645444
5.42 -0.0497507
5.43 -0.0356019
5.44 -0.0221517
5.45 -0.0093817
5.46 0.00276401
5.47 0.0143186
5.48 0.0253229
5.49 0.0358225
5.5 0.0458631
5.51 0.0554476
5.52 0.0646652
5.53 0.0735448
5.54 0.0821047
5.55 0.0903508
5.56 0.0982758
5.57 0.105838
5.58 0.112995
5.59 0.119719
5.6 0.125952
5.61 0.131632
5.62 0.13669
5.63 0.141059
5.64 0.144586
5.65 0.147284
5.66 0.149117
5.67 0.150053
5.68 0.15008
5.69 0.149202
5.7 0.147407
5.71 0.144725
5.72 0.141288
5.73 0.137185
5.74 0.132519
5.75 0.127406
5.76 0.121972
5.77 0.116345
5.78 0.110687
5.79 0.105133
5.8 0.0998047
5.81 0.0948117
5.82 0.090249
5.83 0.0862118
5.84 0.082789
5.85 0.0799637
5.86 0.0777396
5.87 0.0760981
5.88 0.0749987
5.89 0.0743823
5.9 0.0742
5.91 0.0743282
5.92 0.0746556
5.93 0.0750802
5.94 0.0755017
5.95 0.0758258
5.96 0.0759632
5.97 0.075819
5.98 0.0753656
5.99 0.0745775
6 0.0734518
6.01 0.0720084
6.02 0.0702902
6.03 0.0683525
6.04 0.0663004
6.05 0.0642464
6.06 0.0623062
6.07 0.0606022
6.08 0.0592589
6.09 0.058405
6.1 0.0582239
6.11 0.0587586
6.12 0.0600877
6.13 0.0622674
6.14 0.0653291
6.15 0.0692767
6.16 0.0741374
6.17 0.0798366
6.18 0.0862404
6.19 0.0932357
6.2 0.100687
6.21 0.10844
6.22 0.116328
6.23 0.124147
6.24 0.131707
6.25 0.138829
6.26 0.145346
6.27 0.151105
6.28 0.155969
6.29 0.159768
6.3 0.162392
6.31 0.163855
6.32 0.164136
6.33 0.163243
6.34 0.161211
6.35 0.158104
6.36 0.153918
6.37 0.148869
6.38 0.143097
6.39 0.136743
6.4 0.129955
6.41 0.122879
6.42 0.115663
6.43 0.108461
6.44 0.101404
6.45 0.0945989
6.46 0.088132
6.47 0.0820708
6.48 0.0764614
6.49 0.0713739
6.5 0.0667747
6.51 0.0626332
6.52 0.0589131
6.53 0.0555646
6.54 0.0525279
6.55 0.0497414
6.56 0.0471356
6.57 0.0446218
6.58 0.0421363
6.59 0.0396229
6.6 0.037036
6.61 0.0343419
6.62 0.0315094
6.63 0.028541
6.64 0.0254535
6.65 0.0222728
6.66 0.0190367
6.67 0.0157936
6.68 0.0126018
6.69 0.00953993
6.7 0.00666656
6.71 0.00404512
6.72 0.00173531
6.73 -0.000209421
6.74 -0.00174401
6.75 -0.00279963
6.76 -0.00336424
6.77 -0.00345053
6.78 -0.00306373
6.79 -0.00222122
6.8 -0.000951577
6.81 0.000709668
6.82 0.00274405
6.83 0.00505679
6.84 0.00759166
6.85 0.0102921
6.86 0.0131036
6.87 0.0159761
6.88 0.0188646
6.89 0.0217295
6.9 0.0245472
6.91 0.0273053
6.92 0.0300021
6.93 0.032647
6.94 0.0352592
6.95 0.0378708
6.96 0.0405225
6.97 0.0432571
6.98 0.0461201
6.99 0.0491578
7 0.0524149
7.01 0.0559473
7.02 0.0597991
7.03 0.0639777
7.04 0.0684986
7.05 0.0733669
7.06 0.0785767
7.07 0.0841109
7.08 0.0899681
7.09 0.096078
7.1 0.102387
7.11 0.108839
7.12 0.115373
7.13 0.121924
7.14 0.12842
7.15 0.134785
7.16 0.140962
7.17 0.146894
7.18 0.152532
7.19 0.157835
7.2 0.162769
7.21 0.167273
7.22 0.171356
7.23 0.175026
7.24 0.178283
7.25 0.181137
7.26 0.183602
7.27 0.185683
7.28 0.187381
7.29 0.188744
7.3 0.189787
7.31 0.190519
7.32 0.190946
7.33 0.191063
7.34 0.190833
7.35 0.190248
7.36 0.189292
7.37 0.187927
7.38 0.186111
7.39 0.183795
7.4 0.180918
7.41 0.177365
7.42 0.17314
7.43 0.168188
7.44 0.162463
7.45 0.155921
7.46 0.148529
7.47 0.1402
7.48 0.130942
7.49 0.120799
7.5 0.109786
7.51 0.0979338
7.52 0.0852846
7.53 0.0718904
7.54 0.0577584
7.55 0.0430516
7.56 0.0278617
7.57 0.0122882
7.58 -0.00356344
7.59 -0.0195836
7.6 -0.0356563
7.61 -0.0516514
7.62 -0.0674558
7.63 -0.0829619
7.64 -0.0980669
7.65 -0.112674
7.66 -0.126693
7.67 -0.139959
7.68 -0.152464
7.69 -0.164149
7.7 -0.174962
7.71 -0.184858
7.72 -0.193803
7.73 -0.201724
7.74 -0.20858
7.75 -0.214434
7.76 -0.219288
7.77 -0.22315
7.78 -0.226038
7.79 -0.227977
7.8 -0.228908
7.81 -0.228952
7.82 -0.22817
7.83 -0.226613
7.84 -0.224339
7.85 -0.221411
7.86 -0.217875
7.87 -0.213792
7.88 -0.209282
7.89 -0.204423
7.9 -0.199292
7.91 -0.193968
7.92 -0.188528
7.93 -0.18305
7.94 -0.177615
7.95 -0.172289
7.96 -0.167129
7.97 -0.162187
7.98 -0.157506
7.99 -0.153126
8 -0.149095
8.01 -0.145395
8.02 -0.14203
8.03 -0.138991
8.04 -0.136262
8.05 -0.133819
8.06 -0.131651
8.07 -0.129705
8.08 -0.127935
8.09 -0.126301
8.1 -0.124763
8.11 -0.123285
8.12 -0.121834
8.13 -0.120381
8.14 -0.118904
8.15 -0.117393
8.16 -0.115843
8.17 -0.11426
8.18 -0.112656
8.19 -0.11105
8.2 -0.109472
8.21 -0.107951
8.22 -0.106518
8.23 -0.105204
8.24 -0.104038
8.25 -0.103044
8.26 -0.102262
8.27 -0.101679
8.28 -0.101289
8.29 -0.101079
8.3 -0.101017
8.31 -0.101065
8.32 -0.101165
8.33 -0.101241
8.34 -0.101209
8.35 -0.100982
8.36 -0.100465
8.37 -0.0995618
8.38 -0.0981738
8.39 -0.0961331
8.4 -0.0934023
8.41 -0.0899094
8.42 -0.0855909
8.43 -0.0803991
8.44 -0.0743041
8.45 -0.0672548
8.46 -0.0592425
8.47 -0.0503702
8.48 -0.0406961
8.49 -0.0302979
8.5 -0.019271
8.51 -0.00772629
8.52 0.0042386
8.53 0.0164442
8.54 0.0287452
8.55 0.0410036
8.56 0.053085
8.57 0.0648629
8.58 0.0762043
8.59 0.0869719
8.6 0.0971243
8.61 0.106604
8.62 0.115374
8.63 0.12342
8.64 0.130749
8.65 0.13733
8.66 0.143258
8.67 0.148618
8.68 0.153487
8.69 0.157949
8.7 0.162093
8.71 0.166005
8.72 0.169769
8.73 0.173479
8.74 0.177197
8.75 0.180966
8.76 0.184813
8.77 0.188745
8.78 0.19275
8.79 0.196783
8.8 0.200777
8.81 0.204655
8.82 0.208319
8.83 0.211661
8.84 0.214557
8.85 0.216814
8.86 0.218358
8.87 0.219069
8.88 0.218838
8.89 0.217567
8.9 0.215175
8.91 0.211521
8.92 0.206579
8.93 0.200402
8.94 0.193004
8.95 0.184425
8.96 0.174726
8.97 0.163989
8.98 0.152222
8.99 0.139664
9 0.126444
9.01 0.112699
9.02 0.0985669
9.03 0.0841846
9.04 0.0696816
9.05 0.0551934
9.06 0.0408277
9.07 0.0266688
9.08 0.0127822
9.09 -0.000786072
9.1 -0.0140104
9.11 -0.0268482
9.12 -0.0393496
9.13 -0.05155
9.14 -0.0634934
9.15 -0.0752328
9.16 -0.0868267
9.17 -0.0983335
9.18 -0.109817
9.19 -0.12133
9.2 -0.132911
9.21 -0.144581
9.22 -0.156348
9.23 -0.168199
9.24 -0.180102
9.25 -0.191993
9.26 -0.203795
9.27 -0.215416
9.28 -0.226748
9.29 -0.237671
9.3 -0.248036
9.31 -0.257653
9.32 -0.266438
9.33 -0.274262
9.34 -0.281005
9.35 -0.286559
9.36 -0.290832
9.37 -0.293633
9.38 -0.29498
9.39 -0.294894
9.4 -0.293377
9.41 -0.290456
9.42 -0.286177
9.43 -0.280587
9.44 -0.273694
9.45 -0.26573
9.46 -0.256811
9.47 -0.247063
9.48 -0.236615
9.49 -0.225593
9.5 -0.214095
9.51 -0.202265
9.52 -0.19022
9.53 -0.178044
9.54 -0.165805
9.55 -0.153552
9.56 -0.141317
9.57 -0.129115
9.58 -0.116936
9.59 -0.104755
9.6 -0.0925367
9.61 -0.0802345
9.62 -0.0677958
9.63 -0.0551484
9.64 -0.0422293
9.65 -0.028998
9.66 -0.0154104
9.67 -0.00143234
9.68 0.0129577
9.69 0.0277671
9.7 0.0430327
9.71 0.0586781
9.72 0.0746582
9.73 0.0909136
9.74 0.107371
9.75 0.123946
9.76 0.140539
9.77 0.157033
9.78 0.17332
9.79 0.189295
9.8 0.204855
9.81 0.219901
9.82 0.234345
9.83 0.248027
9.84 0.260939
9.85 0.273037
9.86 0.284286
9.87 0.294663
9.88 0.304158
9.89 0.31274
9.9 0.320397
9.91 0.327224
9.92 0.333254
9.93 0.338527
9.94 0.343087
9.95 0.346974
9.96 0.350177
9.97 0.352782
9.98 0.354834
9.99 0.35636
10 0.357379
10.01 0.357904
10.02 0.357924
10.03 0.357409
10.04 0.356394
10.05 0.354868
10.06 0.352816
10.07 0.350226
10.08 0.347084
10.09 0.343335
10.1 0.339002
10.11 0.334111
10.12 0.328672
10.13 0.32271
10.14 0.316255
10.15 0.309343
10.16 0.301998
10.17 0.294327
10.18 0.2864
10.19 0.27829
10.2 0.270078
10.21 0.261844
10.22 0.253678
10.23 0.245669
10.24 0.237886
10.25 0.230393
10.26 0.223248
10.27 0.216495
10.28 0.210174
10.29 0.204353
10.3 0.19899
10.31 0.194078
10.32 0.189598
10.33 0.185519
10.34 0.181799
10.35 0.178403
10.36 0.175263
10.37 0.172297
10.38 0.169439
10.39 0.166621
10.4 0.163775
10.41 0.160836
10.42 0.157721
10.43 0.154384
10.44 0.150779
10.45 0.146864
10.46 0.142607
10.47 0.137978
10.48 0.132939
10.49 0.127467
10.5 0.121582
10.51 0.115281
10.52 0.108567
10.53 0.101441
10.54 0.0939117
10.55 0.0859438
10.56 0.0775798
10.57 0.068832
10.58 0.0597058
10.59 0.0502061
10.6 0.0403373
10.61 0.0300897
10.62 0.0194537
10.63 0.00846387
10.64 -0.00287183
10.65 -0.0145428
10.66 -0.0265346
10.67 -0.0388288
10.68 -0.0514246
10.69 -0.0642706
10.7 -0.0773239
10.71 -0.0905431
10.72 -0.103882
10.73 -0.11729
10.74 -0.130712
10.75 -0.144081
10.76 -0.157339
10.77 -0.170431
10.78 -0.183301
10.79 -0.195901
10.8 -0.208187
10.81 -0.220093
10.82 -0.231602
10.83 -0.242712
10.84 -0.253419
10.85 -0.263726
10.86 -0.273651
10.87 -0.283213
10.88 -0.292425
10.89 -0.301368
10.9 -0.31009
10.91 -0.318646
10.92 -0.32709
10.93 -0.335476
10.94 -0.343857
10.95 -0.352283
10.96 -0.360788
10.97 -0.369397
10.98 -0.37812
10.99 -0.386956
11 -0.395889
11.01 -0.404891
11.02 -0.413902
11.03 -0.422861
11.04 -0.431693
11.05 -0.440316
11.06 -0.448636
11.07 -0.456528
11.08 -0.463875
11.09 -0.470601
11.1 -0.476612
11.11 -0.481818
11.12 -0.48614
11.13 -0.489512
11.14 -0.491763
11.15 -0.49296
11.16 -0.493093
11.17 -0.492162
11.18 -0.490184
11.19 -0.487192
11.2 -0.483193
11.21 -0.478237
11.22 -0.472467
11.23 -0.465964
11.24 -0.458816
11.25 -0.45111
11.26 -0.442933
11.27 -0.434336
11.28 -0.425433
11.29 -0.416292
11.3 -0.406964
11.31 -0.397483
11.32 -0.387872
11.33 -0.37813
11.34 -0.368241
11.35 -0.358185
11.36 -0.347925
11.37 -0.33741
11.38 -0.326582
11.39 -0.315377
11.4 -0.303683
11.41 -0.291455
11.42 -0.278644
11.43 -0.265198
11.44 -0.251072
11.45 -0.236237
11.46 -0.220658
11.47 -0.204286
11.48 -0.187211
11.49 -0.169469
11.5 -0.151114
11.51 -0.132218
11.52 -0.112863
11.53 -0.0931265
11.54 -0.0731436
11.55 -0.0530424
11.56 -0.0329404
11.57 -0.012955
11.58 0.00679947
11.59 0.0262087
11.6 0.0451225
11.61 0.0634935
11.62 0.0812514
11.63 0.0983407
11.64 0.114723
11.65 0.130376
11.66 0.145246
11.67 0.15936
11.68 0.172784
11.69 0.18556
11.7 0.19774
11.71 0.209384
11.72 0.220557
11.73 0.231287
11.74 0.241695
11.75 0.251842
11.76 0.261783
11.77 0.271565
11.78 0.281225
11.79 0.290779
11.8 0.300237
11.81 0.309596
11.82 0.318833
11.83 0.327913
11.84 0.336786
11.85 0.345393
11.86 0.353618
11.87 0.361407
11.88 0.36868
11.89 0.375351
11.9 0.381332
11.91 0.386539
11.92 0.390852
11.93 0.394159
11.94 0.396463
11.95 0.39771
11.96 0.39786
11.97 0.396881
11.98 0.394757
11.99 0.391369
12 0.386815
12.01 0.381134
12.02 0.374356
12.03 0.366514
12.04 0.357651
12.05 0.347783
12.06 0.336918
12.07 0.325189
12.08 0.312649
12.09 0.299348
12.1 0.285335
12.11 0.270655
12.12 0.255301
12.13 0.239351
12.14 0.222861
12.15 0.205862
12.16 0.188388
12.17 0.170468
12.18 0.152125
12.19 0.133367
12.2 0.114269
12.21 0.0948703
