# xPDFsuite Configuration #
[PDF]
wavelength = 0.1
dataformat = QA
inputfile = BiMsol6_insitu_700 C-00535.xy
backgroundfile = Quartz2mm-dist500-00000.xy
mode = xray
bgscale = 0.0042
composition = Bi2Fe4O9
outputtype = gr
qmaxinst = 24.998449118
qmin = 0.1
qmax = 21.4986662415
rmax = 80.0
rmin = 0.0
rstep = 0.01
rpoly = 0.9

[Misc]
inputdir = C:/Data/Seafile/CPH/Beamtime/Desy Oct 20/In situ data/Processed/BiMsol6/PDF
savedir = C:/Data/Seafile/CPH/Beamtime/Desy Oct 20/In situ data/PDF/BiMsol6
backgroundfilefull = C:/Data/Seafile/CPH/Beamtime/Desy Oct 20/In situ data/Processed/Standard_Empty_Cap/Quartz2mm-dist500-00000.xy

#### start data
#S 1
#L r($\AA$)  G($\AA^{-2}$)
0 0
0.01 0.00614722
0.02 0.0119438
0.03 0.0170899
0.04 0.0213163
0.05 0.0243977
0.06 0.0261625
0.07 0.0264234
0.08 0.025127
0.09 0.0224136
0.1 0.0183989
0.11 0.0132618
0.12 0.00723623
0.13 0.000600709
0.14 -0.00633066
0.15 -0.0131663
0.16 -0.0195756
0.17 -0.025249
0.18 -0.0299098
0.19 -0.0333278
0.2 -0.0352675
0.21 -0.0355702
0.22 -0.0343362
0.23 -0.0316347
0.24 -0.0276112
0.25 -0.0224822
0.26 -0.016527
0.27 -0.0100653
0.28 -0.00354843
0.29 0.00262207
0.3 0.00805706
0.31 0.0123882
0.32 0.0152863
0.33 0.0164193
0.34 0.0154645
0.35 0.0124833
0.36 0.0074829
0.37 0.000572577
0.38 -0.00803515
0.39 -0.018028
0.4 -0.0290412
0.41 -0.0404655
0.42 -0.0517046
0.43 -0.0621526
0.44 -0.0711856
0.45 -0.0781845
0.46 -0.0824965
0.47 -0.0832811
0.48 -0.0803715
0.49 -0.0734393
0.5 -0.0622776
0.51 -0.0468148
0.52 -0.0271234
0.53 -0.00316184
0.54 0.0245103
0.55 0.0551675
0.56 0.0881337
0.57 0.122624
0.58 0.157767
0.59 0.192616
0.6 0.225958
0.61 0.256874
0.62 0.28443
0.63 0.307757
0.64 0.32608
0.65 0.33874
0.66 0.344819
0.67 0.343968
0.68 0.336401
0.69 0.322162
0.7 0.301476
0.71 0.274744
0.72 0.24253
0.73 0.205092
0.74 0.163903
0.75 0.119931
0.76 0.074196
0.77 0.0277495
0.78 -0.0183577
0.79 -0.0629866
0.8 -0.105012
0.81 -0.1437
0.82 -0.178333
0.83 -0.208339
0.84 -0.233297
0.85 -0.25295
0.86 -0.266658
0.87 -0.275021
0.88 -0.278388
0.89 -0.277172
0.9 -0.27191
0.91 -0.263238
0.92 -0.251793
0.93 -0.238373
0.94 -0.223959
0.95 -0.209318
0.96 -0.195177
0.97 -0.182199
0.98 -0.170963
0.99 -0.162189
1 -0.156111
1.01 -0.152884
1.02 -0.152589
1.03 -0.155192
1.04 -0.160539
1.05 -0.168435
1.06 -0.178609
1.07 -0.190412
1.08 -0.203369
1.09 -0.216977
1.1 -0.230733
1.11 -0.244151
1.12 -0.256683
1.13 -0.267928
1.14 -0.277609
1.15 -0.2855
1.16 -0.291462
1.17 -0.295444
1.18 -0.297454
1.19 -0.297487
1.2 -0.295949
1.21 -0.293111
1.22 -0.28929
1.23 -0.284831
1.24 -0.28009
1.25 -0.275446
1.26 -0.27127
1.27 -0.267837
1.28 -0.265375
1.29 -0.264049
1.3 -0.263957
1.31 -0.265131
1.32 -0.267635
1.33 -0.271194
1.34 -0.275612
1.35 -0.28064
1.36 -0.285991
1.37 -0.291354
1.38 -0.296368
1.39 -0.300668
1.4 -0.303986
1.41 -0.30607
1.42 -0.30672
1.43 -0.305796
1.44 -0.303224
1.45 -0.298828
1.46 -0.292878
1.47 -0.285547
1.48 -0.277063
1.49 -0.267711
1.5 -0.25782
1.51 -0.247761
1.52 -0.237973
1.53 -0.228839
1.54 -0.220716
1.55 -0.213925
1.56 -0.208737
1.57 -0.205365
1.58 -0.204154
1.59 -0.20499
1.6 -0.207801
1.61 -0.21246
1.62 -0.218763
1.63 -0.226435
1.64 -0.235158
1.65 -0.244508
1.66 -0.253974
1.67 -0.263104
1.68 -0.271448
1.69 -0.278575
1.7 -0.284085
1.71 -0.287424
1.72 -0.288407
1.73 -0.286897
1.74 -0.282784
1.75 -0.276048
1.76 -0.266755
1.77 -0.255006
1.78 -0.240932
1.79 -0.225075
1.8 -0.207816
1.81 -0.189578
1.82 -0.170811
1.83 -0.151977
1.84 -0.133595
1.85 -0.116132
1.86 -0.0999501
1.87 -0.0853714
1.88 -0.0726517
1.89 -0.0619711
1.9 -0.0534607
1.91 -0.0473174
1.92 -0.0432333
1.93 -0.0410454
1.94 -0.0405238
1.95 -0.0413821
1.96 -0.0432905
1.97 -0.0459107
1.98 -0.048804
1.99 -0.0515741
2 -0.0538797
2.01 -0.0554179
2.02 -0.0559369
2.03 -0.055242
2.04 -0.0530633
2.05 -0.0495212
2.06 -0.0446738
2.07 -0.0386566
2.08 -0.0316775
2.09 -0.024009
2.1 -0.0159802
2.11 -0.00802289
2.12 -0.000557806
2.13 0.00600553
2.14 0.0112661
2.15 0.0148473
2.16 0.0164114
2.17 0.0153974
2.18 0.0118131
2.19 0.00555241
2.2 -0.00342581
2.21 -0.0150781
2.22 -0.0292765
2.23 -0.0459045
2.24 -0.06468
2.25 -0.0850732
2.26 -0.106669
2.27 -0.129015
2.28 -0.151639
2.29 -0.174063
2.3 -0.19571
2.31 -0.216149
2.32 -0.235008
2.33 -0.251957
2.34 -0.266733
2.35 -0.279149
2.36 -0.289008
2.37 -0.296173
2.38 -0.300923
2.39 -0.30341
2.4 -0.303851
2.41 -0.302525
2.42 -0.299755
2.43 -0.29584
2.44 -0.291269
2.45 -0.286459
2.46 -0.281781
2.47 -0.277583
2.48 -0.274175
2.49 -0.271852
2.5 -0.27093
2.51 -0.271433
2.52 -0.273425
2.53 -0.276905
2.54 -0.281806
2.55 -0.288005
2.56 -0.295395
2.57 -0.303679
2.58 -0.312554
2.59 -0.321739
2.6 -0.330949
2.61 -0.339899
2.62 -0.348313
2.63 -0.355848
2.64 -0.362367
2.65 -0.367714
2.66 -0.371779
2.67 -0.374504
2.68 -0.37588
2.69 -0.375871
2.7 -0.374601
2.71 -0.372276
2.72 -0.369065
2.73 -0.365162
2.74 -0.360778
2.75 -0.356126
2.76 -0.351434
2.77 -0.346923
2.78 -0.342764
2.79 -0.339099
2.8 -0.336038
2.81 -0.33365
2.82 -0.332004
2.83 -0.331091
2.84 -0.330807
2.85 -0.331063
2.86 -0.331737
2.87 -0.332686
2.88 -0.33375
2.89 -0.334736
2.9 -0.335462
2.91 -0.335768
2.92 -0.335506
2.93 -0.334549
2.94 -0.332795
2.95 -0.330132
2.96 -0.326485
2.97 -0.321915
2.98 -0.316447
2.99 -0.310132
3 -0.303042
3.01 -0.295268
3.02 -0.286864
3.03 -0.277991
3.04 -0.268762
3.05 -0.259267
3.06 -0.249578
3.07 -0.239747
3.08 -0.229793
3.09 -0.2197
3.1 -0.209432
3.11 -0.198912
3.12 -0.188035
3.13 -0.176669
3.14 -0.16466
3.15 -0.151756
3.16 -0.137799
3.17 -0.12264
3.18 -0.106111
3.19 -0.0880643
3.2 -0.068375
3.21 -0.0469154
3.22 -0.0234984
3.23 0.00170201
3.24 0.0286308
3.25 0.0571823
3.26 0.0872003
3.27 0.118479
3.28 0.15082
3.29 0.183853
3.3 0.217202
3.31 0.250506
3.32 0.283391
3.33 0.315476
3.34 0.346367
3.35 0.375507
3.36 0.402695
3.37 0.427628
3.38 0.450044
3.39 0.469729
3.4 0.486518
3.41 0.500108
3.42 0.510468
3.43 0.517779
3.44 0.522107
3.45 0.523567
3.46 0.52232
3.47 0.51856
3.48 0.512281
3.49 0.504019
3.5 0.494045
3.51 0.482631
3.52 0.470047
3.53 0.456554
3.54 0.442374
3.55 0.427755
3.56 0.412931
3.57 0.398066
3.58 0.383295
3.59 0.368725
3.6 0.354434
3.61 0.340512
3.62 0.326959
3.63 0.313778
3.64 0.300963
3.65 0.288501
3.66 0.276372
3.67 0.264574
3.68 0.253106
3.69 0.241942
3.7 0.231097
3.71 0.220595
3.72 0.210481
3.73 0.20081
3.74 0.191712
3.75 0.183247
3.76 0.175503
3.77 0.168584
3.78 0.162601
3.79 0.157663
3.8 0.153913
3.81 0.151535
3.82 0.150508
3.83 0.150903
3.84 0.152771
3.85 0.156143
3.86 0.16103
3.87 0.167545
3.88 0.175577
3.89 0.185015
3.9 0.195785
3.91 0.207795
3.92 0.220937
3.93 0.23511
3.94 0.250243
3.95 0.266103
3.96 0.282555
3.97 0.299464
3.98 0.316696
3.99 0.334123
4 0.351618
4.01 0.369048
4.02 0.386302
4.03 0.403279
4.04 0.419884
4.05 0.436031
4.06 0.451628
4.07 0.466524
4.08 0.480702
4.09 0.494084
4.1 0.506596
4.11 0.51816
4.12 0.528699
4.13 0.538062
4.14 0.546163
4.15 0.552987
4.16 0.558459
4.17 0.562506
4.18 0.565062
4.19 0.566066
4.2 0.565284
4.21 0.562849
4.22 0.558746
4.23 0.552969
4.24 0.545525
4.25 0.536442
4.26 0.525686
4.27 0.513299
4.28 0.49947
4.29 0.48429
4.3 0.467865
4.31 0.45031
4.32 0.431744
4.33 0.412216
4.34 0.391938
4.35 0.371046
4.36 0.349652
4.37 0.327861
4.38 0.305764
4.39 0.283436
4.4 0.26094
4.41 0.238338
4.42 0.21566
4.43 0.19292
4.44 0.170122
4.45 0.147257
4.46 0.124299
4.47 0.10123
4.48 0.0780304
4.49 0.054679
4.5 0.0311622
4.51 0.00747517
4.52 -0.016379
4.53 -0.0403831
4.54 -0.0644809
4.55 -0.0886132
4.56 -0.112704
4.57 -0.136659
4.58 -0.160371
4.59 -0.183677
4.6 -0.206442
4.61 -0.228539
4.62 -0.249826
4.63 -0.270161
4.64 -0.28941
4.65 -0.307427
4.66 -0.32398
4.67 -0.339108
4.68 -0.352748
4.69 -0.364863
4.7 -0.37544
4.71 -0.384497
4.72 -0.39198
4.73 -0.398004
4.74 -0.402739
4.75 -0.40631
4.76 -0.408855
4.77 -0.410529
4.78 -0.411491
4.79 -0.411872
4.8 -0.411914
4.81 -0.411778
4.82 -0.411612
4.83 -0.411552
4.84 -0.411712
4.85 -0.412212
4.86 -0.41313
4.87 -0.414486
4.88 -0.416296
4.89 -0.41855
4.9 -0.421214
4.91 -0.424234
4.92 -0.427561
4.93 -0.431065
4.94 -0.434644
4.95 -0.438189
4.96 -0.44159
4.97 -0.444738
4.98 -0.447508
4.99 -0.449778
5 -0.451495
5.01 -0.45259
5.02 -0.45301
5.03 -0.452718
5.04 -0.451693
5.05 -0.449857
5.06 -0.447285
5.07 -0.444014
5.08 -0.44008
5.09 -0.435528
5.1 -0.430407
5.11 -0.424753
5.12 -0.418605
5.13 -0.412056
5.14 -0.40515
5.15 -0.397929
5.16 -0.390426
5.17 -0.382665
5.18 -0.374645
5.19 -0.366392
5.2 -0.357914
5.21 -0.349208
5.22 -0.340271
5.23 -0.331093
5.24 -0.321664
5.25 -0.311961
5.26 -0.302011
5.27 -0.291822
5.28 -0.281411
5.29 -0.270805
5.3 -0.26004
5.31 -0.249156
5.32 -0.238224
5.33 -0.227314
5.34 -0.2165
5.35 -0.205861
5.36 -0.19548
5.37 -0.185447
5.38 -0.175893
5.39 -0.166858
5.4 -0.158412
5.41 -0.150618
5.42 -0.143526
5.43 -0.137174
5.44 -0.131637
5.45 -0.126911
5.46 -0.122948
5.47 -0.119723
5.48 -0.117198
5.49 -0.115323
5.5 -0.114036
5.51 -0.113317
5.52 -0.11302
5.53 -0.113061
5.54 -0.113357
5.55 -0.113824
5.56 -0.114381
5.57 -0.114947
5.58 -0.115445
5.59 -0.115813
5.6 -0.116
5.61 -0.115965
5.62 -0.115673
5.63 -0.115099
5.64 -0.114193
5.65 -0.112973
5.66 -0.111436
5.67 -0.109582
5.68 -0.10741
5.69 -0.104919
5.7 -0.102095
5.71 -0.0989225
5.72 -0.095418
5.73 -0.0915689
5.74 -0.087359
5.75 -0.0827682
5.76 -0.0777728
5.77 -0.0723028
5.78 -0.0663614
5.79 -0.0599314
5.8 -0.0529893
5.81 -0.0455165
5.82 -0.0375003
5.83 -0.0289182
5.84 -0.0197495
5.85 -0.0100591
5.86 0.000122554
5.87 0.0107528
5.88 0.021777
5.89 0.0331288
5.9 0.0447456
5.91 0.0565157
5.92 0.0683372
5.93 0.0801116
5.94 0.0917387
5.95 0.10312
5.96 0.11415
5.97 0.124699
5.98 0.134725
5.99 0.144166
6 0.15297
6.01 0.161106
6.02 0.168555
6.03 0.175268
6.04 0.181288
6.05 0.186681
6.06 0.191498
6.07 0.1958
6.08 0.199658
6.09 0.203149
6.1 0.206335
6.11 0.209334
6.12 0.212223
6.13 0.215069
6.14 0.21793
6.15 0.220851
6.16 0.223866
6.17 0.226987
6.18 0.230196
6.19 0.233464
6.2 0.236744
6.21 0.239971
6.22 0.243066
6.23 0.245897
6.24 0.248377
6.25 0.250395
6.26 0.251838
6.27 0.252594
6.28 0.252555
6.29 0.25157
6.3 0.249529
6.31 0.246423
6.32 0.2422
6.33 0.236831
6.34 0.230305
6.35 0.222632
6.36 0.213734
6.37 0.203778
6.38 0.192854
6.39 0.181055
6.4 0.16849
6.41 0.155276
6.42 0.141527
6.43 0.127379
6.44 0.113003
6.45 0.0985274
6.46 0.0840764
6.47 0.0697635
6.48 0.0556908
6.49 0.0419849
6.5 0.0287007
6.51 0.0158824
6.52 0.00356536
6.53 -0.00823213
6.54 -0.0195076
6.55 -0.0302585
6.56 -0.0404884
6.57 -0.0502805
6.58 -0.0596824
6.59 -0.0687475
6.6 -0.0775324
6.61 -0.0860946
6.62 -0.0944802
6.63 -0.102755
6.64 -0.110967
6.65 -0.119152
6.66 -0.127336
6.67 -0.135533
6.68 -0.143747
6.69 -0.151968
6.7 -0.160173
6.71 -0.168326
6.72 -0.176386
6.73 -0.1843
6.74 -0.192007
6.75 -0.199415
6.76 -0.206451
6.77 -0.213051
6.78 -0.219138
6.79 -0.224634
6.8 -0.229464
6.81 -0.233548
6.82 -0.236725
6.83 -0.239015
6.84 -0.240359
6.85 -0.240703
6.86 -0.240001
6.87 -0.238215
6.88 -0.23524
6.89 -0.231055
6.9 -0.225705
6.91 -0.21918
6.92 -0.211478
6.93 -0.202603
6.94 -0.192563
6.95 -0.181249
6.96 -0.168813
6.97 -0.155292
6.98 -0.140721
6.99 -0.125144
7 -0.108609
7.01 -0.0911277
7.02 -0.072756
7.03 -0.0536184
7.04 -0.0337847
7.05 -0.0133283
7.06 0.00767407
7.07 0.0291431
7.08 0.0510284
7.09 0.073204
7.1 0.0955816
7.11 0.118078
7.12 0.140613
7.13 0.163105
7.14 0.185469
7.15 0.207614
7.16 0.229479
7.17 0.250999
7.18 0.272111
7.19 0.292756
7.2 0.312879
7.21 0.332372
7.22 0.351219
7.23 0.36939
7.24 0.386841
7.25 0.40353
7.26 0.419415
7.27 0.43443
7.28 0.448472
7.29 0.461574
7.3 0.473689
7.31 0.48477
7.32 0.494769
7.33 0.503633
7.34 0.511211
7.35 0.517496
7.36 0.522477
7.37 0.526103
7.38 0.528324
7.39 0.529092
7.4 0.52834
7.41 0.525898
7.42 0.52189
7.43 0.516296
7.44 0.509105
7.45 0.500318
7.46 0.489945
7.47 0.477903
7.48 0.46427
7.49 0.449169
7.5 0.432664
7.51 0.414829
7.52 0.39575
7.53 0.375517
7.54 0.35414
7.55 0.33186
7.56 0.3088
7.57 0.28509
7.58 0.260862
7.59 0.23625
7.6 0.211385
7.61 0.186426
7.62 0.16152
7.63 0.136799
7.64 0.11239
7.65 0.0884152
7.66 0.0649926
7.67 0.042318
7.68 0.0204324
7.69 -0.00057457
7.7 -0.020618
7.71 -0.0396217
7.72 -0.0575185
7.73 -0.0741921
7.74 -0.0895622
7.75 -0.103674
7.76 -0.1165
7.77 -0.128025
7.78 -0.138241
7.79 -0.147152
7.8 -0.154642
7.81 -0.160847
7.82 -0.165822
7.83 -0.169612
7.84 -0.172269
7.85 -0.173852
7.86 -0.174395
7.87 -0.173941
7.88 -0.172652
7.89 -0.170611
7.9 -0.167904
7.91 -0.16462
7.92 -0.160847
7.93 -0.156643
7.94 -0.152125
7.95 -0.147382
7.96 -0.142485
7.97 -0.137499
7.98 -0.13248
7.99 -0.127478
8 -0.122539
8.01 -0.117687
8.02 -0.11294
8.03 -0.108307
8.04 -0.10379
8.05 -0.0993818
8.06 -0.095077
8.07 -0.0908527
8.08 -0.086685
8.09 -0.0825533
8.1 -0.0784371
8.11 -0.0743184
8.12 -0.0701822
8.13 -0.0660159
8.14 -0.0618193
8.15 -0.0575974
8.16 -0.0533617
8.17 -0.0491315
8.18 -0.0449324
8.19 -0.0408034
8.2 -0.0367868
8.21 -0.0329213
8.22 -0.0292509
8.23 -0.0258199
8.24 -0.022671
8.25 -0.0198447
8.26 -0.0174173
8.27 -0.0153764
8.28 -0.0137377
8.29 -0.012507
8.3 -0.0116795
8.31 -0.0112386
8.32 -0.0111747
8.33 -0.0114429
8.34 -0.0119702
8.35 -0.0126968
8.36 -0.0135563
8.37 -0.0144776
8.38 -0.0153871
8.39 -0.0161943
8.4 -0.0168312
8.41 -0.0172349
8.42 -0.0173505
8.43 -0.0171337
8.44 -0.0165526
8.45 -0.015572
8.46 -0.0141812
8.47 -0.0124252
8.48 -0.0103375
8.49 -0.00796642
8.5 -0.00537441
8.51 -0.00263617
8.52 0.000160079
8.53 0.0029053
8.54 0.00550007
8.55 0.00784487
8.56 0.0098422
8.57 0.0113997
8.58 0.0124124
8.59 0.0127691
8.6 0.0124582
8.61 0.0114388
8.62 0.00968696
8.63 0.00719618
8.64 0.00397784
8.65 3.74665e-06
8.66 -0.00463265
8.67 -0.00984702
8.68 -0.0155637
8.69 -0.0216975
8.7 -0.0281565
8.71 -0.0348479
8.72 -0.0416727
8.73 -0.0485187
8.74 -0.0552997
8.75 -0.0619389
8.76 -0.0683704
8.77 -0.0745414
8.78 -0.080389
8.79 -0.0859001
8.8 -0.0910836
8.81 -0.0959506
8.82 -0.100526
8.83 -0.104848
8.84 -0.10896
8.85 -0.112913
8.86 -0.116787
8.87 -0.120646
8.88 -0.124551
8.89 -0.12856
8.9 -0.132724
8.91 -0.1371
8.92 -0.14172
8.93 -0.14659
8.94 -0.151712
8.95 -0.157075
8.96 -0.162655
8.97 -0.168417
8.98 -0.17432
8.99 -0.180284
9 -0.186244
9.01 -0.192129
9.02 -0.197865
9.03 -0.203381
9.04 -0.208589
9.05 -0.213415
9.06 -0.217826
9.07 -0.22178
9.08 -0.225248
9.09 -0.228212
9.1 -0.23067
9.11 -0.232579
9.12 -0.234014
9.13 -0.235017
9.14 -0.235634
9.15 -0.235919
9.16 -0.235932
9.17 -0.235729
9.18 -0.235377
9.19 -0.234953
9.2 -0.234513
9.21 -0.234106
9.22 -0.233773
9.23 -0.233544
9.24 -0.233454
9.25 -0.233499
9.26 -0.233671
9.27 -0.233952
9.28 -0.234314
9.29 -0.23472
9.3 -0.235126
9.31 -0.23547
9.32 -0.235702
9.33 -0.235765
9.34 -0.235609
9.35 -0.235183
9.36 -0.234444
9.37 -0.233324
9.38 -0.231811
9.39 -0.2299
9.4 -0.227585
9.41 -0.224869
9.42 -0.221765
9.43 -0.218288
9.44 -0.214446
9.45 -0.21031
9.46 -0.20592
9.47 -0.201317
9.48 -0.196543
9.49 -0.191636
9.5 -0.186627
9.51 -0.18155
9.52 -0.176428
9.53 -0.17127
9.54 -0.166076
9.55 -0.160838
9.56 -0.155533
9.57 -0.150117
9.58 -0.144558
9.59 -0.138806
9.6 -0.132806
9.61 -0.126502
9.62 -0.119831
9.63 -0.112703
9.64 -0.105054
9.65 -0.0968541
9.66 -0.0880571
9.67 -0.0786239
9.68 -0.068525
9.69 -0.0577415
9.7 -0.0461864
9.71 -0.0339452
9.72 -0.0210381
9.73 -0.00749524
9.74 0.00664249
9.75 0.0213247
9.76 0.0365141
9.77 0.0521399
9.78 0.0680989
9.79 0.0843153
9.8 0.100712
9.81 0.117211
9.82 0.133737
9.83 0.150204
9.84 0.16654
9.85 0.18268
9.86 0.198568
9.87 0.214149
9.88 0.229376
9.89 0.24419
9.9 0.258533
9.91 0.272408
9.92 0.285786
9.93 0.298645
9.94 0.310965
9.95 0.322728
9.96 0.333863
9.97 0.344393
9.98 0.354317
9.99 0.363622
10 0.372294
10.01 0.380321
10.02 0.387671
10.03 0.394295
10.04 0.400243
10.05 0.405508
10.06 0.410089
10.07 0.413988
10.08 0.417211
10.09 0.419714
10.1 0.421548
10.11 0.422759
10.12 0.423375
10.13 0.423429
10.14 0.422959
10.15 0.421999
10.16 0.420566
10.17 0.418757
10.18 0.416623
10.19 0.414214
10.2 0.411582
10.21 0.408776
10.22 0.405838
10.23 0.40282
10.24 0.399765
10.25 0.396706
10.26 0.39367
10.27 0.390679
10.28 0.387747
10.29 0.384893
10.3 0.382111
10.31 0.379397
10.32 0.376745
10.33 0.374143
10.34 0.371575
10.35 0.369023
10.36 0.366463
10.37 0.363874
10.38 0.361234
10.39 0.358519
10.4 0.355706
10.41 0.352774
10.42 0.349682
10.43 0.346419
10.44 0.342965
10.45 0.339295
10.46 0.335385
10.47 0.33121
10.48 0.326726
10.49 0.321894
10.5 0.316701
10.51 0.311113
10.52 0.305093
10.53 0.298603
10.54 0.291604
10.55 0.283995
10.56 0.27578
10.57 0.26693
10.58 0.257409
10.59 0.247189
10.6 0.236242
10.61 0.224524
10.62 0.211994
10.63 0.198713
10.64 0.184695
10.65 0.169965
10.66 0.154559
10.67 0.138525
10.68 0.121877
10.69 0.104733
10.7 0.0871902
10.71 0.0693383
10.72 0.0512739
10.73 0.0330972
10.74 0.0149129
10.75 -0.00315865
10.76 -0.0210213
10.77 -0.0385844
10.78 -0.0557659
10.79 -0.0724945
10.8 -0.0887111
10.81 -0.104324
10.82 -0.119326
10.83 -0.133727
10.84 -0.147534
10.85 -0.160768
10.86 -0.173463
10.87 -0.185661
10.88 -0.197391
10.89 -0.208773
10.9 -0.219879
10.91 -0.230787
10.92 -0.241572
10.93 -0.252308
10.94 -0.263065
10.95 -0.273908
10.96 -0.284878
10.97 -0.296004
10.98 -0.3073
10.99 -0.318766
11 -0.330383
11.01 -0.342125
11.02 -0.353923
11.03 -0.365709
11.04 -0.377406
11.05 -0.388926
11.06 -0.400175
11.07 -0.411027
11.08 -0.421366
11.09 -0.431118
11.1 -0.440191
11.11 -0.448503
11.12 -0.455979
11.13 -0.46256
11.14 -0.468088
11.15 -0.472631
11.16 -0.476179
11.17 -0.478735
11.18 -0.480315
11.19 -0.480947
11.2 -0.480633
11.21 -0.479409
11.22 -0.477398
11.23 -0.474662
11.24 -0.471267
11.25 -0.467273
11.26 -0.462741
11.27 -0.457682
11.28 -0.452183
11.29 -0.446288
11.3 -0.44002
11.31 -0.433391
11.32 -0.426402
11.33 -0.419031
11.34 -0.411236
11.35 -0.403018
11.36 -0.39434
11.37 -0.385164
11.38 -0.375446
11.39 -0.365147
11.4 -0.354171
11.41 -0.342519
11.42 -0.330187
11.43 -0.317163
11.44 -0.303446
11.45 -0.289048
11.46 -0.27398
11.47 -0.258247
11.48 -0.241964
11.49 -0.225201
11.5 -0.208038
11.51 -0.190565
11.52 -0.172879
11.53 -0.155082
11.54 -0.1373
11.55 -0.119641
11.56 -0.10221
11.57 -0.0851036
11.58 -0.0684134
11.59 -0.0522283
11.6 -0.0366783
11.61 -0.0217652
11.62 -0.00753099
11.63 0.0059958
11.64 0.0188
11.65 0.0308792
11.66 0.0421973
11.67 0.0527903
11.68 0.0627266
11.69 0.0720454
11.7 0.0807909
11.71 0.0890108
11.72 0.096753
11.73 0.104023
11.74 0.11092
11.75 0.117484
11.76 0.123752
11.77 0.129753
11.78 0.135509
11.79 0.141023
11.8 0.146302
11.81 0.151361
11.82 0.156191
11.83 0.160781
11.84 0.165114
11.85 0.169171
11.86 0.172894
11.87 0.176287
11.88 0.17933
11.89 0.181999
11.9 0.184275
11.91 0.18614
11.92 0.187557
11.93 0.188501
11.94 0.188993
11.95 0.189027
11.96 0.188599
11.97 0.187704
11.98 0.18634
11.99 0.184459
12 0.182091
12.01 0.179242
12.02 0.175903
12.03 0.172062
12.04 0.167708
12.05 0.162803
12.06 0.157297
12.07 0.151211
12.08 0.14452
12.09 0.137197
12.1 0.129215
12.11 0.12055
12.12 0.111115
12.13 0.100928
12.14 0.0899993
12.15 0.0783223
12.16 0.0658991
12.17 0.0527411
12.18 0.0388546
12.19 0.0242267
12.2 0.00897085
