# xPDFsuite Configuration #
[PDF]
wavelength = 0.1
dataformat = QA
inputfile = BiMsol6_insitu_700 C-00321.xy
backgroundfile = Quartz2mm-dist500-00000.xy
mode = xray
bgscale = 0.0042
composition = Bi2Fe4O9
outputtype = gr
qmaxinst = 24.998449118
qmin = 0.1
qmax = 21.4986662415
rmax = 80.0
rmin = 0.0
rstep = 0.01
rpoly = 0.9

[Misc]
inputdir = C:/Data/Seafile/CPH/Beamtime/Desy Oct 20/In situ data/Processed/BiMsol6/PDF
savedir = C:/Data/Seafile/CPH/Beamtime/Desy Oct 20/In situ data/PDF/BiMsol6
backgroundfilefull = C:/Data/Seafile/CPH/Beamtime/Desy Oct 20/In situ data/Processed/Standard_Empty_Cap/Quartz2mm-dist500-00000.xy

#### start data
#S 1
#L r($\AA$)  G($\AA^{-2}$)
0 0
0.01 0.00652953
0.02 0.0126922
0.03 0.0181738
0.04 0.0226926
0.05 0.0260118
0.06 0.0279506
0.07 0.0283112
0.08 0.0270352
0.09 0.0242671
0.1 0.0201255
0.11 0.0147946
0.12 0.0085168
0.13 0.00158122
0.14 -0.00568754
0.15 -0.0128786
0.16 -0.0196456
0.17 -0.0256631
0.18 -0.0306391
0.19 -0.0343291
0.2 -0.0364817
0.21 -0.0369241
0.22 -0.0357534
0.23 -0.0330346
0.24 -0.0289121
0.25 -0.0236049
0.26 -0.0173983
0.27 -0.0106164
0.28 -0.00372966
0.29 0.00284321
0.3 0.00869509
0.31 0.0134383
0.32 0.0167236
0.33 0.0181967
0.34 0.0175101
0.35 0.0147124
0.36 0.0097967
0.37 0.00286174
0.38 -0.00588656
0.39 -0.0161379
0.4 -0.0275335
0.41 -0.039448
0.42 -0.0512664
0.43 -0.0623634
0.44 -0.0720903
0.45 -0.0797998
0.46 -0.0848063
0.47 -0.086227
0.48 -0.0838616
0.49 -0.0773465
0.5 -0.0664408
0.51 -0.0510417
0.52 -0.0311942
0.53 -0.00681542
0.54 0.0215458
0.55 0.0531603
0.56 0.087352
0.57 0.123328
0.58 0.160198
0.59 0.196993
0.6 0.23248
0.61 0.265676
0.62 0.295596
0.63 0.321319
0.64 0.342012
0.65 0.356958
0.66 0.365165
0.67 0.366221
0.68 0.360291
0.69 0.347373
0.7 0.32765
0.71 0.301489
0.72 0.269429
0.73 0.231667
0.74 0.189722
0.75 0.144576
0.76 0.097272
0.77 0.0488953
0.78 0.000540752
0.79 -0.0466101
0.8 -0.0913652
0.81 -0.132905
0.82 -0.170445
0.83 -0.203338
0.84 -0.231094
0.85 -0.253387
0.86 -0.269487
0.87 -0.279953
0.88 -0.285092
0.89 -0.285283
0.9 -0.281039
0.91 -0.272987
0.92 -0.261749
0.93 -0.248125
0.94 -0.233156
0.95 -0.217648
0.96 -0.202375
0.97 -0.188057
0.98 -0.175333
0.99 -0.164987
1 -0.157333
1.01 -0.152593
1.02 -0.150911
1.03 -0.152308
1.04 -0.15668
1.05 -0.163881
1.06 -0.173692
1.07 -0.185456
1.08 -0.198702
1.09 -0.212921
1.1 -0.227594
1.11 -0.242205
1.12 -0.256186
1.13 -0.269074
1.14 -0.28053
1.15 -0.290274
1.16 -0.298107
1.17 -0.303924
1.18 -0.307674
1.19 -0.309284
1.2 -0.309129
1.21 -0.307447
1.22 -0.304528
1.23 -0.300702
1.24 -0.29632
1.25 -0.291748
1.26 -0.287382
1.27 -0.283534
1.28 -0.280466
1.29 -0.278384
1.3 -0.27743
1.31 -0.277681
1.32 -0.279257
1.33 -0.281933
1.34 -0.285557
1.35 -0.289919
1.36 -0.294765
1.37 -0.299809
1.38 -0.304721
1.39 -0.309145
1.4 -0.312798
1.41 -0.31542
1.42 -0.316792
1.43 -0.316749
1.44 -0.315189
1.45 -0.311909
1.46 -0.307128
1.47 -0.300984
1.48 -0.293668
1.49 -0.285434
1.5 -0.276582
1.51 -0.267457
1.52 -0.258478
1.53 -0.250028
1.54 -0.242466
1.55 -0.23612
1.56 -0.231279
1.57 -0.228175
1.58 -0.227178
1.59 -0.228213
1.6 -0.23124
1.61 -0.236165
1.62 -0.242816
1.63 -0.250944
1.64 -0.260259
1.65 -0.270363
1.66 -0.280738
1.67 -0.290934
1.68 -0.30049
1.69 -0.308957
1.7 -0.315908
1.71 -0.32076
1.72 -0.323278
1.73 -0.323278
1.74 -0.320607
1.75 -0.315195
1.76 -0.307067
1.77 -0.296274
1.78 -0.282899
1.79 -0.267478
1.8 -0.250379
1.81 -0.232025
1.82 -0.212878
1.83 -0.193422
1.84 -0.1742
1.85 -0.155745
1.86 -0.138485
1.87 -0.122813
1.88 -0.109059
1.89 -0.0974819
1.9 -0.0882958
1.91 -0.0818094
1.92 -0.0777602
1.93 -0.0760454
1.94 -0.076483
1.95 -0.0788204
1.96 -0.0827448
1.97 -0.0879521
1.98 -0.0939676
1.99 -0.100324
2 -0.106617
2.01 -0.112461
2.02 -0.117508
2.03 -0.121453
2.04 -0.123886
2.05 -0.124788
2.06 -0.124086
2.07 -0.121781
2.08 -0.117958
2.09 -0.112771
2.1 -0.106398
2.11 -0.0991714
2.12 -0.0914978
2.13 -0.0837493
2.14 -0.076313
2.15 -0.069577
2.16 -0.0639152
2.17 -0.0598621
2.18 -0.0575967
2.19 -0.0573413
2.2 -0.059264
2.21 -0.0634615
2.22 -0.0699557
2.23 -0.0787882
2.24 -0.0898565
2.25 -0.102786
2.26 -0.117301
2.27 -0.133079
2.28 -0.149757
2.29 -0.16695
2.3 -0.18423
2.31 -0.201153
2.32 -0.217344
2.33 -0.232467
2.34 -0.246225
2.35 -0.258378
2.36 -0.26868
2.37 -0.276915
2.38 -0.283207
2.39 -0.287596
2.4 -0.290183
2.41 -0.291134
2.42 -0.290661
2.43 -0.288945
2.44 -0.286383
2.45 -0.283321
2.46 -0.280075
2.47 -0.276957
2.48 -0.27426
2.49 -0.272271
2.5 -0.271304
2.51 -0.271463
2.52 -0.272864
2.53 -0.275572
2.54 -0.279598
2.55 -0.284896
2.56 -0.291452
2.57 -0.299058
2.58 -0.307479
2.59 -0.316499
2.6 -0.325882
2.61 -0.335382
2.62 -0.344745
2.63 -0.353671
2.64 -0.361959
2.65 -0.369418
2.66 -0.375885
2.67 -0.381236
2.68 -0.385381
2.69 -0.388188
2.7 -0.389667
2.71 -0.389918
2.72 -0.389005
2.73 -0.38702
2.74 -0.384073
2.75 -0.380288
2.76 -0.37573
2.77 -0.370622
2.78 -0.365085
2.79 -0.359222
2.8 -0.353122
2.81 -0.346846
2.82 -0.340425
2.83 -0.333865
2.84 -0.32715
2.85 -0.320233
2.86 -0.313043
2.87 -0.305492
2.88 -0.297482
2.89 -0.288831
2.9 -0.279476
2.91 -0.269323
2.92 -0.258284
2.93 -0.246287
2.94 -0.233286
2.95 -0.219215
2.96 -0.204053
2.97 -0.187923
2.98 -0.170898
2.99 -0.153083
3 -0.134607
3.01 -0.11562
3.02 -0.0962759
3.03 -0.0768017
3.04 -0.0573907
3.05 -0.0382266
3.06 -0.0194847
3.07 -0.00132576
3.08 0.0160825
3.09 0.0325673
3.1 0.0481138
3.11 0.0626749
3.12 0.076237
3.13 0.0888196
3.14 0.100474
3.15 0.111219
3.16 0.121223
3.17 0.130648
3.18 0.139643
3.19 0.148365
3.2 0.156975
3.21 0.165635
3.22 0.174526
3.23 0.18377
3.24 0.193475
3.25 0.203723
3.26 0.214571
3.27 0.226043
3.28 0.238178
3.29 0.250912
3.3 0.264149
3.31 0.277791
3.32 0.29172
3.33 0.305803
3.34 0.31989
3.35 0.333792
3.36 0.347357
3.37 0.360433
3.38 0.372879
3.39 0.384571
3.4 0.3954
3.41 0.405216
3.42 0.413961
3.43 0.421656
3.44 0.428299
3.45 0.433911
3.46 0.438536
3.47 0.442242
3.48 0.445026
3.49 0.447096
3.5 0.448566
3.51 0.449552
3.52 0.450176
3.53 0.450553
3.54 0.450795
3.55 0.451014
3.56 0.451304
3.57 0.451737
3.58 0.452365
3.59 0.453226
3.6 0.454339
3.61 0.455735
3.62 0.457372
3.63 0.459219
3.64 0.461235
3.65 0.463371
3.66 0.465572
3.67 0.467777
3.68 0.469914
3.69 0.471926
3.7 0.473757
3.71 0.475358
3.72 0.476686
3.73 0.477705
3.74 0.478351
3.75 0.478627
3.76 0.478528
3.77 0.478048
3.78 0.477184
3.79 0.475938
3.8 0.474304
3.81 0.472263
3.82 0.469853
3.83 0.467074
3.84 0.463923
3.85 0.460393
3.86 0.456472
3.87 0.452109
3.88 0.447296
3.89 0.442022
3.9 0.436256
3.91 0.429963
3.92 0.423111
3.93 0.415651
3.94 0.407495
3.95 0.398673
3.96 0.389157
3.97 0.378927
3.98 0.367967
3.99 0.356269
4 0.34378
4.01 0.330527
4.02 0.316562
4.03 0.301909
4.04 0.286599
4.05 0.27067
4.06 0.254162
4.07 0.237077
4.08 0.21953
4.09 0.201579
4.1 0.183282
4.11 0.164702
4.12 0.145899
4.13 0.126929
4.14 0.107865
4.15 0.0887758
4.16 0.0697238
4.17 0.0507691
4.18 0.0319718
4.19 0.0133918
4.2 -0.0048731
4.21 -0.022788
4.22 -0.0402948
4.23 -0.0573346
4.24 -0.0738489
4.25 -0.0897806
4.26 -0.10504
4.27 -0.119553
4.28 -0.133314
4.29 -0.146279
4.3 -0.158409
4.31 -0.169671
4.32 -0.180041
4.33 -0.189409
4.34 -0.197851
4.35 -0.205386
4.36 -0.212034
4.37 -0.217825
4.38 -0.222799
4.39 -0.226982
4.4 -0.230416
4.41 -0.233235
4.42 -0.235517
4.43 -0.237348
4.44 -0.238815
4.45 -0.240009
4.46 -0.241008
4.47 -0.241918
4.48 -0.24282
4.49 -0.243784
4.5 -0.244869
4.51 -0.246122
4.52 -0.247585
4.53 -0.249293
4.54 -0.251233
4.55 -0.253396
4.56 -0.25576
4.57 -0.258291
4.58 -0.260947
4.59 -0.263677
4.6 -0.266413
4.61 -0.269089
4.62 -0.271645
4.63 -0.274018
4.64 -0.276154
4.65 -0.277995
4.66 -0.279467
4.67 -0.280572
4.68 -0.281291
4.69 -0.281617
4.7 -0.281558
4.71 -0.281132
4.72 -0.280347
4.73 -0.279257
4.74 -0.277931
4.75 -0.276427
4.76 -0.274807
4.77 -0.273137
4.78 -0.271485
4.79 -0.269933
4.8 -0.268537
4.81 -0.267352
4.82 -0.266426
4.83 -0.265799
4.84 -0.2655
4.85 -0.265571
4.86 -0.266022
4.87 -0.266832
4.88 -0.26799
4.89 -0.269476
4.9 -0.271267
4.91 -0.273331
4.92 -0.275654
4.93 -0.278171
4.94 -0.28084
4.95 -0.283622
4.96 -0.286479
4.97 -0.289376
4.98 -0.292277
4.99 -0.295148
5 -0.297963
5.01 -0.300697
5.02 -0.30333
5.03 -0.305841
5.04 -0.30821
5.05 -0.310399
5.06 -0.312398
5.07 -0.314185
5.08 -0.315732
5.09 -0.317005
5.1 -0.31797
5.11 -0.31857
5.12 -0.318733
5.13 -0.318437
5.14 -0.317626
5.15 -0.316242
5.16 -0.314227
5.17 -0.311521
5.18 -0.307995
5.19 -0.303634
5.2 -0.298412
5.21 -0.292288
5.22 -0.28523
5.23 -0.277214
5.24 -0.268204
5.25 -0.258134
5.26 -0.247105
5.27 -0.235142
5.28 -0.22228
5.29 -0.208563
5.3 -0.194043
5.31 -0.178728
5.32 -0.162723
5.33 -0.146126
5.34 -0.12901
5.35 -0.111447
5.36 -0.0935083
5.37 -0.0752582
5.38 -0.0567462
5.39 -0.0380607
5.4 -0.0192543
5.41 -0.000374519
5.42 0.0185357
5.43 0.0374374
5.44 0.0562888
5.45 0.0750507
5.46 0.0936899
5.47 0.112168
5.48 0.130443
5.49 0.148466
5.5 0.166181
5.51 0.183472
5.52 0.200299
5.53 0.216576
5.54 0.232206
5.55 0.247082
5.56 0.261092
5.57 0.274054
5.58 0.285816
5.59 0.296317
5.6 0.305434
5.61 0.313051
5.62 0.319061
5.63 0.32337
5.64 0.3257
5.65 0.326168
5.66 0.32476
5.67 0.321468
5.68 0.316314
5.69 0.309344
5.7 0.300558
5.71 0.290026
5.72 0.278004
5.73 0.264642
5.74 0.25011
5.75 0.23459
5.76 0.218276
5.77 0.20133
5.78 0.18402
5.79 0.166553
5.8 0.149115
5.81 0.131878
5.82 0.114999
5.83 0.0986319
5.84 0.0829333
5.85 0.0679414
5.86 0.0537123
5.87 0.0402775
5.88 0.0276449
5.89 0.0158001
5.9 0.00477051
5.91 -0.00554331
5.92 -0.0152286
5.93 -0.0243562
5.94 -0.0329993
5.95 -0.0412292
5.96 -0.0491047
5.97 -0.0566651
5.98 -0.0639799
5.99 -0.0710697
6 -0.0779363
6.01 -0.084562
6.02 -0.0909089
6.03 -0.096889
6.04 -0.102425
6.05 -0.107439
6.06 -0.111823
6.07 -0.115465
6.08 -0.11825
6.09 -0.120048
6.1 -0.120637
6.11 -0.120024
6.12 -0.118131
6.13 -0.114899
6.14 -0.110289
6.15 -0.104291
6.16 -0.0968355
6.17 -0.0879937
6.18 -0.0779189
6.19 -0.0667186
6.2 -0.0545254
6.21 -0.0414942
6.22 -0.0277982
6.23 -0.0135928
6.24 0.00084954
6.25 0.0153262
6.26 0.029637
6.27 0.0435887
6.28 0.0570004
6.29 0.0696626
6.3 0.0814041
6.31 0.0921599
6.32 0.101846
6.33 0.110408
6.34 0.11782
6.35 0.124089
6.36 0.129138
6.37 0.133146
6.38 0.136216
6.39 0.138465
6.4 0.140021
6.41 0.141029
6.42 0.141631
6.43 0.141996
6.44 0.142307
6.45 0.142712
6.46 0.143348
6.47 0.144342
6.48 0.145803
6.49 0.147882
6.5 0.150614
6.51 0.154034
6.52 0.158164
6.53 0.163011
6.54 0.16856
6.55 0.174798
6.56 0.181706
6.57 0.189164
6.58 0.197099
6.59 0.205432
6.6 0.21408
6.61 0.222959
6.62 0.231987
6.63 0.241069
6.64 0.250123
6.65 0.259081
6.66 0.267881
6.67 0.276468
6.68 0.284792
6.69 0.292785
6.7 0.300445
6.71 0.307747
6.72 0.314672
6.73 0.321206
6.74 0.327335
6.75 0.333017
6.76 0.338251
6.77 0.343041
6.78 0.347373
6.79 0.351229
6.8 0.354587
6.81 0.357418
6.82 0.359635
6.83 0.361262
6.84 0.362265
6.85 0.362607
6.86 0.36225
6.87 0.361157
6.88 0.35924
6.89 0.356462
6.9 0.352834
6.91 0.348328
6.92 0.342918
6.93 0.336585
6.94 0.329313
6.95 0.320984
6.96 0.311701
6.97 0.30147
6.98 0.290298
6.99 0.2782
7 0.265194
7.01 0.251261
7.02 0.236418
7.03 0.220758
7.04 0.204317
7.05 0.187134
7.06 0.169253
7.07 0.150721
7.08 0.131531
7.09 0.111798
7.1 0.091589
7.11 0.0709657
7.12 0.0499954
7.13 0.0287494
7.14 0.00729884
7.15 -0.0142686
7.16 -0.0358529
7.17 -0.0573643
7.18 -0.0787098
7.19 -0.0997937
7.2 -0.120518
7.21 -0.140733
7.22 -0.16036
7.23 -0.179314
7.24 -0.197503
7.25 -0.21484
7.26 -0.231245
7.27 -0.246615
7.28 -0.260816
7.29 -0.273892
7.3 -0.285806
7.31 -0.296537
7.32 -0.306077
7.33 -0.314432
7.34 -0.321534
7.35 -0.327475
7.36 -0.33235
7.37 -0.336223
7.38 -0.339169
7.39 -0.34127
7.4 -0.342606
7.41 -0.34323
7.42 -0.343314
7.43 -0.342956
7.44 -0.342252
7.45 -0.341291
7.46 -0.340159
7.47 -0.338928
7.48 -0.337675
7.49 -0.336453
7.5 -0.335301
7.51 -0.334244
7.52 -0.333294
7.53 -0.332451
7.54 -0.331707
7.55 -0.331023
7.56 -0.330361
7.57 -0.329675
7.58 -0.32891
7.59 -0.32801
7.6 -0.326898
7.61 -0.325501
7.62 -0.323772
7.63 -0.321652
7.64 -0.319091
7.65 -0.316043
7.66 -0.312469
7.67 -0.308277
7.68 -0.303508
7.69 -0.29816
7.7 -0.292237
7.71 -0.285757
7.72 -0.278746
7.73 -0.271218
7.74 -0.26322
7.75 -0.25484
7.76 -0.246141
7.77 -0.237192
7.78 -0.228065
7.79 -0.218836
7.8 -0.209587
7.81 -0.200405
7.82 -0.191366
7.83 -0.182542
7.84 -0.174
7.85 -0.165803
7.86 -0.158024
7.87 -0.150738
7.88 -0.143952
7.89 -0.137698
7.9 -0.131998
7.91 -0.126866
7.92 -0.12231
7.93 -0.118376
7.94 -0.115015
7.95 -0.112193
7.96 -0.109881
7.97 -0.108048
7.98 -0.106655
7.99 -0.105671
8 -0.105069
8.01 -0.104766
8.02 -0.104715
8.03 -0.104872
8.04 -0.105194
8.05 -0.10564
8.06 -0.106179
8.07 -0.106774
8.08 -0.107399
8.09 -0.108038
8.1 -0.108681
8.11 -0.109326
8.12 -0.109979
8.13 -0.110653
8.14 -0.111366
8.15 -0.112143
8.16 -0.11301
8.17 -0.113996
8.18 -0.115133
8.19 -0.116463
8.2 -0.118015
8.21 -0.119801
8.22 -0.121837
8.23 -0.124131
8.24 -0.126683
8.25 -0.129483
8.26 -0.132528
8.27 -0.135754
8.28 -0.139111
8.29 -0.142538
8.3 -0.145962
8.31 -0.1493
8.32 -0.152442
8.33 -0.155272
8.34 -0.157694
8.35 -0.159598
8.36 -0.160873
8.37 -0.161413
8.38 -0.161113
8.39 -0.159766
8.4 -0.157374
8.41 -0.153875
8.42 -0.149213
8.43 -0.143348
8.44 -0.136258
8.45 -0.127884
8.46 -0.118212
8.47 -0.107367
8.48 -0.0954039
8.49 -0.0823914
8.5 -0.0684132
8.51 -0.0535647
8.52 -0.0378864
8.53 -0.0215641
8.54 -0.00472798
8.55 0.0125058
8.56 0.0300234
8.57 0.0477162
8.58 0.0654823
8.59 0.0832182
8.6 0.100842
8.61 0.118291
8.62 0.135514
8.63 0.152475
8.64 0.16915
8.65 0.185503
8.66 0.201552
8.67 0.217319
8.68 0.232822
8.69 0.248083
8.7 0.263129
8.71 0.277978
8.72 0.292642
8.73 0.30715
8.74 0.321507
8.75 0.335706
8.76 0.349728
8.77 0.363542
8.78 0.37708
8.79 0.390282
8.8 0.403083
8.81 0.415397
8.82 0.427127
8.83 0.438169
8.84 0.448401
8.85 0.457609
8.86 0.465766
8.87 0.472762
8.88 0.478489
8.89 0.482853
8.9 0.485766
8.91 0.487054
8.92 0.486671
8.93 0.484661
8.94 0.481004
8.95 0.475697
8.96 0.468758
8.97 0.460216
8.98 0.44995
8.99 0.438211
9 0.42508
9.01 0.410646
9.02 0.395007
9.03 0.378268
9.04 0.360491
9.05 0.341794
9.06 0.322349
9.07 0.302263
9.08 0.281638
9.09 0.260574
9.1 0.239163
9.11 0.217474
9.12 0.195618
9.13 0.173673
9.14 0.151705
9.15 0.12978
9.16 0.107957
9.17 0.086305
9.18 0.0648963
9.19 0.0437762
9.2 0.0230042
9.21 0.00264194
9.22 -0.0172457
9.23 -0.0365904
9.24 -0.0552544
9.25 -0.073199
9.26 -0.0903586
9.27 -0.106652
9.28 -0.121999
9.29 -0.136316
9.3 -0.149487
9.31 -0.161362
9.32 -0.171967
9.33 -0.181239
9.34 -0.189125
9.35 -0.19558
9.36 -0.20057
9.37 -0.203948
9.38 -0.205784
9.39 -0.206134
9.4 -0.205018
9.41 -0.20247
9.42 -0.198536
9.43 -0.193244
9.44 -0.186576
9.45 -0.178733
9.46 -0.169799
9.47 -0.159861
9.48 -0.149008
9.49 -0.137333
9.5 -0.12488
9.51 -0.111773
9.52 -0.0981297
9.53 -0.084033
9.54 -0.069561
9.55 -0.0547871
9.56 -0.0397786
9.57 -0.0245902
9.58 -0.00930423
9.59 0.00602421
9.6 0.0213425
9.61 0.0365999
9.62 0.0517465
9.63 0.0667189
9.64 0.0814597
9.65 0.0959251
9.66 0.11006
9.67 0.123806
9.68 0.137103
9.69 0.149887
9.7 0.16202
9.71 0.173493
9.72 0.184242
9.73 0.1942
9.74 0.203304
9.75 0.211493
9.76 0.21866
9.77 0.224737
9.78 0.22975
9.79 0.233672
9.8 0.236485
9.81 0.238183
9.82 0.238773
9.83 0.238163
9.84 0.236489
9.85 0.233812
9.86 0.230187
9.87 0.225681
9.88 0.22037
9.89 0.214309
9.9 0.207576
9.91 0.200314
9.92 0.192615
9.93 0.184569
9.94 0.176261
9.95 0.167774
9.96 0.159179
9.97 0.150556
9.98 0.141963
9.99 0.133445
10 0.125039
10.01 0.116768
10.02 0.108654
10.03 0.100711
10.04 0.0929202
10.05 0.0852706
10.06 0.0777448
10.07 0.0703213
10.08 0.0629757
10.09 0.0556851
10.1 0.048419
10.11 0.0411532
10.12 0.0338686
10.13 0.0265507
10.14 0.0191901
10.15 0.0117825
10.16 0.0043281
10.17 -0.00315793
10.18 -0.0106591
10.19 -0.0181533
10.2 -0.0256139
10.21 -0.0330102
10.22 -0.040299
10.23 -0.0474421
10.24 -0.0544081
10.25 -0.0611617
10.26 -0.0676695
10.27 -0.0739009
10.28 -0.079827
10.29 -0.0853901
10.3 -0.0906088
10.31 -0.0954735
10.32 -0.0999806
10.33 -0.104132
10.34 -0.107937
10.35 -0.111389
10.36 -0.114511
10.37 -0.117347
10.38 -0.119923
10.39 -0.122271
10.4 -0.124422
10.41 -0.12641
10.42 -0.128258
10.43 -0.130016
10.44 -0.131717
10.45 -0.133392
10.46 -0.135068
10.47 -0.136772
10.48 -0.138529
10.49 -0.140365
10.5 -0.14229
10.51 -0.144319
10.52 -0.14646
10.53 -0.148721
10.54 -0.151105
10.55 -0.153626
10.56 -0.156272
10.57 -0.159037
10.58 -0.161912
10.59 -0.16489
10.6 -0.16796
10.61 -0.17111
10.62 -0.174326
10.63 -0.177586
10.64 -0.18087
10.65 -0.184158
10.66 -0.187428
10.67 -0.190658
10.68 -0.193816
10.69 -0.19688
10.7 -0.199827
10.71 -0.202635
10.72 -0.20528
10.73 -0.207743
10.74 -0.209999
10.75 -0.212017
10.76 -0.213805
10.77 -0.215355
10.78 -0.216665
10.79 -0.217738
10.8 -0.218581
10.81 -0.219191
10.82 -0.219597
10.83 -0.219834
10.84 -0.219928
10.85 -0.219913
10.86 -0.219823
10.87 -0.219697
10.88 -0.219578
10.89 -0.219507
10.9 -0.219521
10.91 -0.219653
10.92 -0.219934
10.93 -0.220385
10.94 -0.22104
10.95 -0.221904
10.96 -0.222967
10.97 -0.22422
10.98 -0.225644
10.99 -0.227211
11 -0.228885
11.01 -0.230622
11.02 -0.232356
11.03 -0.234028
11.04 -0.235572
11.05 -0.236921
11.06 -0.238007
11.07 -0.238738
11.08 -0.239039
11.09 -0.238868
11.1 -0.238173
11.11 -0.236909
11.12 -0.235038
11.13 -0.232536
11.14 -0.229317
11.15 -0.225447
11.16 -0.220943
11.17 -0.215831
11.18 -0.210147
11.19 -0.203938
11.2 -0.197239
11.21 -0.190116
11.22 -0.182671
11.23 -0.174978
11.24 -0.167113
11.25 -0.159151
11.26 -0.151165
11.27 -0.143233
11.28 -0.135419
11.29 -0.127775
11.3 -0.120341
11.31 -0.113152
11.32 -0.106226
11.33 -0.0995842
11.34 -0.0932354
11.35 -0.0871421
11.36 -0.0812795
11.37 -0.0756141
11.38 -0.070105
11.39 -0.0647058
11.4 -0.0593661
11.41 -0.0540229
11.42 -0.0486213
11.43 -0.0431099
11.44 -0.0374406
11.45 -0.0315699
11.46 -0.0254542
11.47 -0.019042
11.48 -0.012336
11.49 -0.00532474
11.5 0.00199491
11.51 0.0096179
11.52 0.0175314
11.53 0.0257347
11.54 0.0341875
11.55 0.0428477
11.56 0.0516806
11.57 0.0606499
11.58 0.0697191
11.59 0.0788528
11.6 0.0880168
11.61 0.0971763
11.62 0.106307
11.63 0.11539
11.64 0.124411
11.65 0.133362
11.66 0.142237
11.67 0.151041
11.68 0.159784
11.69 0.168478
11.7 0.177137
11.71 0.185774
11.72 0.194404
11.73 0.203039
11.74 0.211688
11.75 0.220353
11.76 0.229032
11.77 0.237713
11.78 0.246379
11.79 0.255
11.8 0.263536
11.81 0.271943
11.82 0.280171
11.83 0.288162
11.84 0.295849
11.85 0.303164
11.86 0.30998
11.87 0.316257
11.88 0.321928
11.89 0.32692
11.9 0.331166
11.91 0.334606
11.92 0.337144
11.93 0.338702
11.94 0.339311
11.95 0.338949
11.96 0.337602
11.97 0.335272
11.98 0.331969
11.99 0.327628
12 0.322359
12.01 0.316226
12.02 0.309284
12.03 0.301592
12.04 0.293217
12.05 0.28421
12.06 0.274626
12.07 0.26459
12.08 0.254174
12.09 0.243449
12.1 0.232484
12.11 0.221341
12.12 0.210075
12.13 0.198751
12.14 0.18742
12.15 0.176123
12.16 0.164895
12.17 0.153769
12.18 0.142774
12.19 0.131949
12.2 0.1213
12.21 0.110846
12.22 0.100604
12.23 0.0905939
