# xPDFsuite Configuration #
[PDF]
wavelength = 0.1
dataformat = QA
inputfile = BiMsol6_insitu_700 C-00352.xy
backgroundfile = Quartz2mm-dist500-00000.xy
mode = xray
bgscale = 0.0042
composition = Bi2Fe4O9
outputtype = gr
qmaxinst = 24.998449118
qmin = 0.1
qmax = 21.4986662415
rmax = 80.0
rmin = 0.0
rstep = 0.01
rpoly = 0.9

[Misc]
inputdir = C:/Data/Seafile/CPH/Beamtime/Desy Oct 20/In situ data/Processed/BiMsol6/PDF
savedir = C:/Data/Seafile/CPH/Beamtime/Desy Oct 20/In situ data/PDF/BiMsol6
backgroundfilefull = C:/Data/Seafile/CPH/Beamtime/Desy Oct 20/In situ data/Processed/Standard_Empty_Cap/Quartz2mm-dist500-00000.xy

#### start data
#S 1
#L r($\AA$)  G($\AA^{-2}$)
0 0
0.01 0.00647989
0.02 0.012594
0.03 0.0180292
0.04 0.0225048
0.05 0.0257848
0.06 0.0276896
0.07 0.0280228
0.08 0.0267273
0.09 0.0239478
0.1 0.0198038
0.11 0.0144801
0.12 0.00821934
0.13 0.00131077
0.14 -0.00592032
0.15 -0.0130648
0.16 -0.0197774
0.17 -0.0257345
0.18 -0.0306459
0.19 -0.0342695
0.2 -0.0363567
0.21 -0.0367383
0.22 -0.0355145
0.23 -0.0327534
0.24 -0.0286026
0.25 -0.0232839
0.26 -0.017085
0.27 -0.0103343
0.28 -0.00350195
0.29 0.0029934
0.3 0.00874519
0.31 0.0133672
0.32 0.0165126
0.33 0.0178303
0.34 0.016977
0.35 0.0140081
0.36 0.00892248
0.37 0.00182551
0.38 -0.00707017
0.39 -0.0174474
0.4 -0.0289378
0.41 -0.0409105
0.42 -0.0527461
0.43 -0.0638146
0.44 -0.0734641
0.45 -0.0810453
0.46 -0.0858709
0.47 -0.0870551
0.48 -0.0844057
0.49 -0.0775629
0.5 -0.0662917
0.51 -0.0504959
0.52 -0.0302283
0.53 -0.00541405
0.54 0.0233872
0.55 0.0554366
0.56 0.090049
0.57 0.126423
0.58 0.16366
0.59 0.200785
0.6 0.236554
0.61 0.269984
0.62 0.300089
0.63 0.325946
0.64 0.346722
0.65 0.361704
0.66 0.369899
0.67 0.370901
0.68 0.364883
0.69 0.351847
0.7 0.331982
0.71 0.305661
0.72 0.273426
0.73 0.235477
0.74 0.193338
0.75 0.14799
0.76 0.100477
0.77 0.0518829
0.78 0.00329856
0.79 -0.0440992
0.8 -0.0891246
0.81 -0.130963
0.82 -0.168835
0.83 -0.202101
0.84 -0.230273
0.85 -0.253033
0.86 -0.269656
0.87 -0.280698
0.88 -0.286462
0.89 -0.287324
0.9 -0.283791
0.91 -0.276479
0.92 -0.265998
0.93 -0.253134
0.94 -0.238908
0.95 -0.224109
0.96 -0.209493
0.97 -0.195759
0.98 -0.183531
0.99 -0.173561
1 -0.166156
1.01 -0.161526
1.02 -0.159809
1.03 -0.161018
1.04 -0.16505
1.05 -0.171759
1.06 -0.180926
1.07 -0.191923
1.08 -0.204297
1.09 -0.217562
1.1 -0.231224
1.11 -0.244796
1.12 -0.257745
1.13 -0.269643
1.14 -0.280184
1.15 -0.289116
1.16 -0.296272
1.17 -0.301568
1.18 -0.304981
1.19 -0.306471
1.2 -0.306403
1.21 -0.305018
1.22 -0.302604
1.23 -0.299481
1.24 -0.295983
1.25 -0.292465
1.26 -0.289287
1.27 -0.286721
1.28 -0.284995
1.29 -0.284277
1.3 -0.284668
1.31 -0.286208
1.32 -0.288965
1.33 -0.292689
1.34 -0.297196
1.35 -0.302253
1.36 -0.307588
1.37 -0.312903
1.38 -0.317846
1.39 -0.322068
1.4 -0.325308
1.41 -0.327322
1.42 -0.327916
1.43 -0.326951
1.44 -0.324359
1.45 -0.319967
1.46 -0.314045
1.47 -0.306767
1.48 -0.298366
1.49 -0.289127
1.5 -0.279386
1.51 -0.269523
1.52 -0.259985
1.53 -0.251162
1.54 -0.243422
1.55 -0.237097
1.56 -0.232471
1.57 -0.229767
1.58 -0.229355
1.59 -0.231122
1.6 -0.234999
1.61 -0.240864
1.62 -0.248515
1.63 -0.257671
1.64 -0.26801
1.65 -0.279099
1.66 -0.290397
1.67 -0.30143
1.68 -0.311719
1.69 -0.320802
1.7 -0.328246
1.71 -0.333454
1.72 -0.336202
1.73 -0.336321
1.74 -0.333669
1.75 -0.328197
1.76 -0.319948
1.77 -0.308998
1.78 -0.295452
1.79 -0.279875
1.8 -0.262656
1.81 -0.244238
1.82 -0.225098
1.83 -0.205734
1.84 -0.186706
1.85 -0.168543
1.86 -0.151669
1.87 -0.136467
1.88 -0.123256
1.89 -0.112277
1.9 -0.103723
1.91 -0.0978768
1.92 -0.0944466
1.93 -0.093302
1.94 -0.0942336
1.95 -0.0969625
1.96 -0.101152
1.97 -0.106464
1.98 -0.112409
1.99 -0.118513
2 -0.124366
2.01 -0.12958
2.02 -0.133812
2.03 -0.136762
2.04 -0.138022
2.05 -0.137612
2.06 -0.13548
2.07 -0.131659
2.08 -0.126259
2.09 -0.119468
2.1 -0.111497
2.11 -0.102712
2.12 -0.0935519
2.13 -0.0844141
2.14 -0.0757101
2.15 -0.0678479
2.16 -0.0612175
2.17 -0.056384
2.18 -0.0535151
2.19 -0.0528322
2.2 -0.0544987
2.21 -0.0586022
2.22 -0.0651512
2.23 -0.0741756
2.24 -0.0855524
2.25 -0.0988746
2.26 -0.113843
2.27 -0.130108
2.28 -0.147284
2.29 -0.164958
2.3 -0.182674
2.31 -0.199967
2.32 -0.216446
2.33 -0.231755
2.34 -0.245589
2.35 -0.257696
2.36 -0.267819
2.37 -0.275737
2.38 -0.281585
2.39 -0.285407
2.4 -0.287317
2.41 -0.287489
2.42 -0.286152
2.43 -0.283499
2.44 -0.279951
2.45 -0.275878
2.46 -0.271619
2.47 -0.267508
2.48 -0.26386
2.49 -0.260988
2.5 -0.259239
2.51 -0.258728
2.52 -0.259595
2.53 -0.261921
2.54 -0.265733
2.55 -0.271
2.56 -0.277732
2.57 -0.285723
2.58 -0.294732
2.59 -0.304544
2.6 -0.314916
2.61 -0.325595
2.62 -0.336315
2.63 -0.346769
2.64 -0.356718
2.65 -0.365943
2.66 -0.374253
2.67 -0.381489
2.68 -0.387527
2.69 -0.392194
2.7 -0.395456
2.71 -0.397376
2.72 -0.397983
2.73 -0.397332
2.74 -0.395501
2.75 -0.392585
2.76 -0.388591
2.77 -0.383753
2.78 -0.378181
2.79 -0.371976
2.8 -0.365226
2.81 -0.358005
2.82 -0.350346
2.83 -0.342282
2.84 -0.333849
2.85 -0.325037
2.86 -0.315819
2.87 -0.306156
2.88 -0.295999
2.89 -0.285228
2.9 -0.273836
2.91 -0.261779
2.92 -0.249016
2.93 -0.23552
2.94 -0.221284
2.95 -0.206285
2.96 -0.190541
2.97 -0.174166
2.98 -0.157238
2.99 -0.139857
3 -0.12214
3.01 -0.104216
3.02 -0.0862336
3.03 -0.0683574
3.04 -0.0507318
3.05 -0.0334933
3.06 -0.016767
3.07 -0.00066179
3.08 0.0147082
3.09 0.0292304
3.1 0.0429335
3.11 0.0558122
3.12 0.0678882
3.13 0.0792099
3.14 0.0898502
3.15 0.0998642
3.16 0.109413
3.17 0.118644
3.18 0.127695
3.19 0.136707
3.2 0.145815
3.21 0.155156
3.22 0.164885
3.23 0.175071
3.24 0.185785
3.25 0.197074
3.26 0.208958
3.27 0.221433
3.28 0.234499
3.29 0.248071
3.3 0.262033
3.31 0.276278
3.32 0.290681
3.33 0.305104
3.34 0.3194
3.35 0.333376
3.36 0.346903
3.37 0.359846
3.38 0.372079
3.39 0.383493
3.4 0.393994
3.41 0.403449
3.42 0.411813
3.43 0.419121
3.44 0.425377
3.45 0.430607
3.46 0.434857
3.47 0.438192
3.48 0.440606
3.49 0.4423
3.5 0.443379
3.51 0.443953
3.52 0.444133
3.53 0.444032
3.54 0.443752
3.55 0.443407
3.56 0.443098
3.57 0.442902
3.58 0.442888
3.59 0.44311
3.6 0.443613
3.61 0.444461
3.62 0.445646
3.63 0.447172
3.64 0.449034
3.65 0.451225
3.66 0.453727
3.67 0.45653
3.68 0.459612
3.69 0.462923
3.7 0.466431
3.71 0.470104
3.72 0.473907
3.73 0.477804
3.74 0.481762
3.75 0.485734
3.76 0.489679
3.77 0.493553
3.78 0.497314
3.79 0.500911
3.8 0.504287
3.81 0.507362
3.82 0.510098
3.83 0.512432
3.84 0.514298
3.85 0.51563
3.86 0.516358
3.87 0.516354
3.88 0.515573
3.89 0.513974
3.9 0.511494
3.91 0.508078
3.92 0.503675
3.93 0.49822
3.94 0.49159
3.95 0.48386
3.96 0.475015
3.97 0.465047
3.98 0.453958
3.99 0.441758
4 0.428389
4.01 0.41391
4.02 0.398405
4.03 0.381914
4.04 0.364483
4.05 0.346159
4.06 0.326989
4.07 0.306956
4.08 0.286207
4.09 0.264802
4.1 0.242802
4.11 0.220271
4.12 0.197273
4.13 0.173858
4.14 0.150108
4.15 0.126121
4.16 0.101976
4.17 0.0777556
4.18 0.0535486
4.19 0.0294472
4.2 0.00558275
4.21 -0.0179559
4.22 -0.0410651
4.23 -0.0636388
4.24 -0.085571
4.25 -0.106757
4.26 -0.127049
4.27 -0.146322
4.28 -0.164549
4.29 -0.181655
4.3 -0.19758
4.31 -0.212277
4.32 -0.225717
4.33 -0.237757
4.34 -0.24852
4.35 -0.258055
4.36 -0.26641
4.37 -0.273654
4.38 -0.279868
4.39 -0.285121
4.4 -0.289503
4.41 -0.293208
4.42 -0.29636
4.43 -0.299085
4.44 -0.301506
4.45 -0.30374
4.46 -0.305896
4.47 -0.308082
4.48 -0.310374
4.49 -0.312828
4.5 -0.315479
4.51 -0.318344
4.52 -0.321421
4.53 -0.324692
4.54 -0.32809
4.55 -0.33155
4.56 -0.334996
4.57 -0.338341
4.58 -0.341495
4.59 -0.344332
4.6 -0.346764
4.61 -0.348719
4.62 -0.350125
4.63 -0.350928
4.64 -0.351087
4.65 -0.350572
4.66 -0.349332
4.67 -0.347462
4.68 -0.345013
4.69 -0.342055
4.7 -0.338677
4.71 -0.334982
4.72 -0.331082
4.73 -0.327125
4.74 -0.323251
4.75 -0.319587
4.76 -0.316258
4.77 -0.313379
4.78 -0.311054
4.79 -0.309444
4.8 -0.308545
4.81 -0.308396
4.82 -0.309014
4.83 -0.31039
4.84 -0.312495
4.85 -0.315313
4.86 -0.318762
4.87 -0.322712
4.88 -0.327059
4.89 -0.331693
4.9 -0.336499
4.91 -0.34136
4.92 -0.346146
4.93 -0.350747
4.94 -0.355072
4.95 -0.359043
4.96 -0.362596
4.97 -0.365684
4.98 -0.368256
4.99 -0.370288
5 -0.371823
5.01 -0.372883
5.02 -0.373501
5.03 -0.373719
5.04 -0.373583
5.05 -0.373116
5.06 -0.372395
5.07 -0.371464
5.08 -0.370353
5.09 -0.36908
5.1 -0.36765
5.11 -0.366044
5.12 -0.364219
5.13 -0.36214
5.14 -0.359743
5.15 -0.356948
5.16 -0.353665
5.17 -0.349792
5.18 -0.345152
5.19 -0.33966
5.2 -0.333228
5.21 -0.325752
5.22 -0.317135
5.23 -0.307293
5.24 -0.296123
5.25 -0.283473
5.26 -0.269436
5.27 -0.254001
5.28 -0.237178
5.29 -0.218996
5.3 -0.199503
5.31 -0.178675
5.32 -0.156651
5.33 -0.133577
5.34 -0.109558
5.35 -0.0847063
5.36 -0.0591379
5.37 -0.0329638
5.38 -0.00627101
5.39 0.0207683
5.4 0.0480465
5.41 0.0754613
5.42 0.102916
5.43 0.130321
5.44 0.157576
5.45 0.184588
5.46 0.211286
5.47 0.237591
5.48 0.263421
5.49 0.288692
5.5 0.313309
5.51 0.337078
5.52 0.359967
5.53 0.381857
5.54 0.40262
5.55 0.422121
5.56 0.440215
5.57 0.456661
5.58 0.471272
5.59 0.483996
5.6 0.494689
5.61 0.503216
5.62 0.509455
5.63 0.513301
5.64 0.514396
5.65 0.512928
5.66 0.508896
5.67 0.502308
5.68 0.493207
5.69 0.481666
5.7 0.467696
5.71 0.451398
5.72 0.433116
5.73 0.413051
5.74 0.391425
5.75 0.368476
5.76 0.344452
5.77 0.319556
5.78 0.294131
5.79 0.268438
5.8 0.24271
5.81 0.217159
5.82 0.191978
5.83 0.167355
5.84 0.143474
5.85 0.120389
5.86 0.0981654
5.87 0.0768438
5.88 0.056435
5.89 0.0369257
5.9 0.0183516
5.91 0.000605607
5.92 -0.0164033
5.93 -0.0327444
5.94 -0.0484862
5.95 -0.0636916
5.96 -0.078403
5.97 -0.0926278
5.98 -0.106425
5.99 -0.119785
6 -0.132677
6.01 -0.145047
6.02 -0.156818
6.03 -0.16783
6.04 -0.177974
6.05 -0.187146
6.06 -0.195206
6.07 -0.202011
6.08 -0.207423
6.09 -0.21129
6.1 -0.213328
6.11 -0.213612
6.12 -0.212076
6.13 -0.208686
6.14 -0.203438
6.15 -0.196367
6.16 -0.187433
6.17 -0.176779
6.18 -0.164644
6.19 -0.151201
6.2 -0.13665
6.21 -0.121213
6.22 -0.105124
6.23 -0.0886106
6.24 -0.0719877
6.25 -0.0554955
6.26 -0.0393605
6.27 -0.0237908
6.28 -0.00896981
6.29 0.00489298
6.3 0.0176504
6.31 0.0292852
6.32 0.0397576
6.33 0.0490643
6.34 0.0572381
6.35 0.0643448
6.36 0.070391
6.37 0.0756075
6.38 0.0801531
6.39 0.0841898
6.4 0.0878877
6.41 0.0914195
6.42 0.0949617
6.43 0.0987018
6.44 0.10278
6.45 0.10732
6.46 0.112423
6.47 0.118168
6.48 0.124607
6.49 0.131837
6.5 0.139803
6.51 0.148463
6.52 0.157771
6.53 0.167664
6.54 0.178066
6.55 0.188902
6.56 0.20009
6.57 0.211506
6.58 0.223064
6.59 0.234687
6.6 0.246309
6.61 0.257875
6.62 0.269337
6.63 0.280672
6.64 0.291878
6.65 0.302962
6.66 0.31394
6.67 0.32484
6.68 0.335695
6.69 0.346541
6.7 0.357417
6.71 0.368348
6.72 0.379354
6.73 0.390438
6.74 0.401592
6.75 0.412787
6.76 0.423966
6.77 0.435057
6.78 0.445968
6.79 0.456591
6.8 0.466799
6.81 0.476445
6.82 0.485288
6.83 0.493228
6.84 0.500102
6.85 0.505747
6.86 0.510006
6.87 0.512733
6.88 0.513683
6.89 0.512736
6.9 0.509895
6.91 0.505095
6.92 0.498293
6.93 0.489474
6.94 0.478647
6.95 0.465628
6.96 0.450706
6.97 0.433972
6.98 0.41553
6.99 0.3955
7 0.374012
7.01 0.35115
7.02 0.327059
7.03 0.301974
7.04 0.276037
7.05 0.249388
7.06 0.222157
7.07 0.194466
7.08 0.1664
7.09 0.138099
7.1 0.109654
7.11 0.0811382
7.12 0.0526176
7.13 0.0241492
7.14 -0.00421068
7.15 -0.0324038
7.16 -0.0603955
7.17 -0.088142
7.18 -0.115597
7.19 -0.142712
7.2 -0.16943
7.21 -0.195644
7.22 -0.221305
7.23 -0.246351
7.24 -0.270699
7.25 -0.294261
7.26 -0.316947
7.27 -0.338634
7.28 -0.359153
7.29 -0.378505
7.3 -0.396606
7.31 -0.413383
7.32 -0.428773
7.33 -0.442726
7.34 -0.455085
7.35 -0.465898
7.36 -0.475222
7.37 -0.483078
7.38 -0.489506
7.39 -0.494561
7.4 -0.498296
7.41 -0.500709
7.42 -0.502034
7.43 -0.50238
7.44 -0.501866
7.45 -0.500614
7.46 -0.498746
7.47 -0.496354
7.48 -0.493578
7.49 -0.490544
7.5 -0.487341
7.51 -0.484047
7.52 -0.480724
7.53 -0.477417
7.54 -0.47416
7.55 -0.470958
7.56 -0.467802
7.57 -0.464665
7.58 -0.46151
7.59 -0.458285
7.6 -0.454916
7.61 -0.451324
7.62 -0.447442
7.63 -0.443193
7.64 -0.438502
7.65 -0.433296
7.66 -0.427509
7.67 -0.421006
7.68 -0.413803
7.69 -0.405871
7.7 -0.397188
7.71 -0.38775
7.72 -0.377562
7.73 -0.366614
7.74 -0.354934
7.75 -0.342626
7.76 -0.329755
7.77 -0.316396
7.78 -0.302636
7.79 -0.288569
7.8 -0.274283
7.81 -0.259914
7.82 -0.245572
7.83 -0.231365
7.84 -0.217398
7.85 -0.203777
7.86 -0.190618
7.87 -0.178051
7.88 -0.166121
7.89 -0.154902
7.9 -0.144458
7.91 -0.134843
7.92 -0.126102
7.93 -0.118347
7.94 -0.111546
7.95 -0.105677
7.96 -0.100738
7.97 -0.0967134
7.98 -0.093578
7.99 -0.0913193
8 -0.0899429
8.01 -0.089321
8.02 -0.0893981
8.03 -0.0901148
8.04 -0.0914089
8.05 -0.0932169
8.06 -0.0955054
8.07 -0.0981862
8.08 -0.101184
8.09 -0.104443
8.1 -0.107913
8.11 -0.111552
8.12 -0.115321
8.13 -0.119194
8.14 -0.123137
8.15 -0.127133
8.16 -0.13117
8.17 -0.135244
8.18 -0.139353
8.19 -0.143501
8.2 -0.147692
8.21 -0.151928
8.22 -0.15621
8.23 -0.160537
8.24 -0.164903
8.25 -0.169294
8.26 -0.173687
8.27 -0.178048
8.28 -0.182335
8.29 -0.186496
8.3 -0.190469
8.31 -0.194183
8.32 -0.19753
8.33 -0.200404
8.34 -0.202727
8.35 -0.204395
8.36 -0.205303
8.37 -0.205343
8.38 -0.204409
8.39 -0.202273
8.4 -0.198942
8.41 -0.194342
8.42 -0.188404
8.43 -0.18107
8.44 -0.172301
8.45 -0.162005
8.46 -0.150141
8.47 -0.136828
8.48 -0.122102
8.49 -0.106013
8.5 -0.0886292
8.51 -0.0700307
8.52 -0.0502118
8.53 -0.029378
8.54 -0.0076629
8.55 0.0148165
8.56 0.0379417
8.57 0.0615953
8.58 0.0856735
8.59 0.110069
8.6 0.13465
8.61 0.159327
8.62 0.184024
8.63 0.20867
8.64 0.23321
8.65 0.257581
8.66 0.281751
8.67 0.305699
8.68 0.329404
8.69 0.352849
8.7 0.37602
8.71 0.398894
8.72 0.421428
8.73 0.443627
8.74 0.465456
8.75 0.486876
8.76 0.507835
8.77 0.528271
8.78 0.548056
8.79 0.567113
8.8 0.585367
8.81 0.602708
8.82 0.619021
8.83 0.634182
8.84 0.648048
8.85 0.660345
8.86 0.671086
8.87 0.680149
8.88 0.687424
8.89 0.69281
8.9 0.696218
8.91 0.697436
8.92 0.696429
8.93 0.693267
8.94 0.687935
8.95 0.680435
8.96 0.670785
8.97 0.659022
8.98 0.64497
8.99 0.628946
9 0.611032
9.01 0.591325
9.02 0.569926
9.03 0.546944
9.04 0.52242
9.05 0.496473
9.06 0.469312
9.07 0.441049
9.08 0.411797
9.09 0.381665
9.1 0.350759
9.11 0.319121
9.12 0.286927
9.13 0.254283
9.14 0.221288
9.15 0.188039
9.16 0.154639
9.17 0.121196
9.18 0.0878362
9.19 0.0546789
9.2 0.0218463
9.21 -0.0105323
9.22 -0.042321
9.23 -0.0733776
9.24 -0.103455
9.25 -0.13245
9.26 -0.160225
9.27 -0.186626
9.28 -0.211499
9.29 -0.234696
9.3 -0.256013
9.31 -0.2752
9.32 -0.292297
9.33 -0.307207
9.34 -0.319846
9.35 -0.330155
9.36 -0.338091
9.37 -0.343433
9.38 -0.346314
9.39 -0.346842
9.4 -0.345069
9.41 -0.341069
9.42 -0.33493
9.43 -0.326721
9.44 -0.316433
9.45 -0.304393
9.46 -0.290742
9.47 -0.275624
9.48 -0.259185
9.49 -0.241569
9.5 -0.222853
9.51 -0.203219
9.52 -0.182837
9.53 -0.161823
9.54 -0.140283
9.55 -0.118316
9.56 -0.0960052
9.57 -0.0734131
9.58 -0.0506438
9.59 -0.0277613
9.6 -0.00482558
9.61 0.0181049
9.62 0.0409719
9.63 0.0637032
9.64 0.0862253
9.65 0.108475
9.66 0.130374
9.67 0.151839
9.68 0.172777
9.69 0.19309
9.7 0.212575
9.71 0.231194
9.72 0.248832
9.73 0.265376
9.74 0.28071
9.75 0.294726
9.76 0.307244
9.77 0.318136
9.78 0.327422
9.79 0.335041
9.8 0.340949
9.81 0.345124
9.82 0.347562
9.83 0.348107
9.84 0.346964
9.85 0.344221
9.86 0.339964
9.87 0.334294
9.88 0.32733
9.89 0.319162
9.9 0.309914
9.91 0.299819
9.92 0.289026
9.93 0.277683
9.94 0.26593
9.95 0.253899
9.96 0.241709
9.97 0.229488
9.98 0.217324
9.99 0.205289
10 0.193433
10.01 0.18179
10.02 0.17038
10.03 0.159214
10.04 0.148251
10.05 0.137458
10.06 0.126793
10.07 0.116207
10.08 0.105648
10.09 0.0950531
10.1 0.0843674
10.11 0.0735467
10.12 0.0625543
10.13 0.0513635
10.14 0.0399598
10.15 0.0283379
10.16 0.0164972
10.17 0.004489
10.18 -0.00764354
10.19 -0.019845
10.2 -0.0320492
10.21 -0.0441815
10.22 -0.0561434
10.23 -0.0678414
10.24 -0.0791968
10.25 -0.0901259
10.26 -0.10055
10.27 -0.110398
10.28 -0.119603
10.29 -0.12804
10.3 -0.135749
10.31 -0.142711
10.32 -0.148925
10.33 -0.154404
10.34 -0.159176
10.35 -0.163247
10.36 -0.166685
10.37 -0.169596
10.38 -0.17206
10.39 -0.174161
10.4 -0.175987
10.41 -0.177628
10.42 -0.179174
10.43 -0.180728
10.44 -0.182369
10.45 -0.184168
10.46 -0.186185
10.47 -0.18847
10.48 -0.191078
10.49 -0.194043
10.5 -0.197352
10.51 -0.201004
10.52 -0.204984
10.53 -0.209267
10.54 -0.213819
10.55 -0.218617
10.56 -0.223586
10.57 -0.22867
10.58 -0.233812
10.59 -0.238957
10.6 -0.24405
10.61 -0.249033
10.62 -0.253845
10.63 -0.258455
10.64 -0.262828
10.65 -0.266936
10.66 -0.270761
10.67 -0.274289
10.68 -0.277488
10.69 -0.280382
10.7 -0.282989
10.71 -0.285325
10.72 -0.28741
10.73 -0.289271
10.74 -0.290929
10.75 -0.292408
10.76 -0.293757
10.77 -0.295005
10.78 -0.296182
10.79 -0.297315
10.8 -0.298431
10.81 -0.299554
10.82 -0.300706
10.83 -0.301901
10.84 -0.303152
10.85 -0.304467
10.86 -0.305851
10.87 -0.307308
10.88 -0.308842
10.89 -0.310442
10.9 -0.312102
10.91 -0.313811
10.92 -0.315559
10.93 -0.317334
10.94 -0.319122
10.95 -0.320903
10.96 -0.322658
10.97 -0.32437
10.98 -0.326018
10.99 -0.327578
11 -0.329026
11.01 -0.33032
11.02 -0.331443
11.03 -0.332368
11.04 -0.333062
11.05 -0.333494
11.06 -0.33363
11.07 -0.333415
11.08 -0.332808
11.09 -0.331793
11.1 -0.330336
11.11 -0.328403
11.12 -0.325965
11.13 -0.322991
11.14 -0.319393
11.15 -0.315206
11.16 -0.310417
11.17 -0.305018
11.18 -0.299005
11.19 -0.292381
11.2 -0.285127
11.21 -0.27725
11.22 -0.268818
11.23 -0.259864
11.24 -0.250427
11.25 -0.240552
11.26 -0.23029
11.27 -0.21967
11.28 -0.208784
11.29 -0.1977
11.3 -0.186482
11.31 -0.175193
11.32 -0.163894
11.33 -0.152649
11.34 -0.141522
11.35 -0.130558
11.36 -0.119796
11.37 -0.109271
11.38 -0.0990068
11.39 -0.0890186
11.4 -0.0793373
11.41 -0.0699401
11.42 -0.0608025
11.43 -0.0518993
11.44 -0.0431962
11.45 -0.0346511
11.46 -0.0262163
11.47 -0.0178327
11.48 -0.00943104
11.49 -0.000948607
11.5 0.00767813
11.51 0.016512
11.52 0.0256137
11.53 0.0350692
11.54 0.0449234
11.55 0.055206
11.56 0.0659513
11.57 0.0771847
11.58 0.0889217
11.59 0.101174
11.6 0.113981
11.61 0.127269
11.62 0.141011
11.63 0.155169
11.64 0.169694
11.65 0.184534
11.66 0.199639
11.67 0.214928
11.68 0.23032
11.69 0.24574
11.7 0.261118
11.71 0.276379
11.72 0.291455
11.73 0.306242
11.74 0.320703
11.75 0.334781
11.76 0.348427
11.77 0.361595
11.78 0.374246
11.79 0.386317
11.8 0.39777
11.81 0.408619
11.82 0.418843
11.83 0.428427
11.84 0.437354
11.85 0.445611
11.86 0.453105
11.87 0.459886
11.88 0.465939
11.89 0.471241
11.9 0.475764
11.91 0.479478
11.92 0.482308
11.93 0.484183
11.94 0.485125
11.95 0.485088
11.96 0.484028
11.97 0.481901
11.98 0.478663
11.99 0.474163
12 0.468452
12.01 0.46153
12.02 0.45338
12.03 0.443999
12.04 0.433394
12.05 0.421545
12.06 0.408432
12.07 0.394209
12.08 0.37894
12.09 0.362705
12.1 0.345597
12.11 0.32772
12.12 0.309147
12.13 0.290054
12.14 0.270596
12.15 0.250912
12.16 0.231145
12.17 0.211435
12.18 0.19193
12.19 0.172806
12.2 0.154168
12.21 0.136134
12.22 0.118808
12.23 0.102286
12.24 0.0866461
