# xPDFsuite Configuration #
[PDF]
wavelength = 0.1
dataformat = QA
inputfile = BiMsol6_insitu_700 C-00346.xy
backgroundfile = Quartz2mm-dist500-00000.xy
mode = xray
bgscale = 0.0042
composition = Bi2Fe4O9
outputtype = gr
qmaxinst = 24.998449118
qmin = 0.1
qmax = 21.4986662415
rmax = 80.0
rmin = 0.0
rstep = 0.01
rpoly = 0.9

[Misc]
inputdir = C:/Data/Seafile/CPH/Beamtime/Desy Oct 20/In situ data/Processed/BiMsol6/PDF
savedir = C:/Data/Seafile/CPH/Beamtime/Desy Oct 20/In situ data/PDF/BiMsol6
backgroundfilefull = C:/Data/Seafile/CPH/Beamtime/Desy Oct 20/In situ data/Processed/Standard_Empty_Cap/Quartz2mm-dist500-00000.xy

#### start data
#S 1
#L r($\AA$)  G($\AA^{-2}$)
0 0
0.01 0.00690721
0.02 0.0134306
0.03 0.0192414
0.04 0.0240445
0.05 0.0275913
0.06 0.0296917
0.07 0.0301369
0.08 0.0288634
0.09 0.0260204
0.1 0.0217292
0.11 0.01618
0.12 0.00962353
0.13 0.00235982
0.14 -0.00527591
0.15 -0.0128533
0.16 -0.0200099
0.17 -0.0264048
0.18 -0.0317306
0.19 -0.0357287
0.2 -0.0381321
0.21 -0.0387542
0.22 -0.0376889
0.23 -0.0349969
0.24 -0.030821
0.25 -0.0253821
0.26 -0.0189705
0.27 -0.011913
0.28 -0.00469711
0.29 0.0022435
0.3 0.00848658
0.31 0.0136282
0.32 0.0173022
0.33 0.0191365
0.34 0.0187633
0.35 0.0162198
0.36 0.0114872
0.37 0.00465521
0.38 -0.00407647
0.39 -0.0144003
0.4 -0.025964
0.41 -0.0381322
0.42 -0.0502785
0.43 -0.0617657
0.44 -0.0719308
0.45 -0.0801095
0.46 -0.0855976
0.47 -0.0874893
0.48 -0.0855636
0.49 -0.0794374
0.5 -0.0688515
0.51 -0.0536869
0.52 -0.0339749
0.53 -0.00961342
0.54 0.018853
0.55 0.0506923
0.56 0.0852264
0.57 0.121656
0.58 0.159081
0.59 0.19652
0.6 0.232725
0.61 0.266685
0.62 0.297393
0.63 0.323903
0.64 0.345357
0.65 0.361016
0.66 0.369858
0.67 0.371448
0.68 0.365939
0.69 0.353314
0.7 0.333747
0.71 0.307599
0.72 0.275409
0.73 0.237361
0.74 0.195001
0.75 0.149324
0.76 0.101392
0.77 0.0523108
0.78 0.00319887
0.79 -0.0447367
0.8 -0.0902731
0.81 -0.132563
0.82 -0.170796
0.83 -0.2043
0.84 -0.232565
0.85 -0.255247
0.86 -0.271587
0.87 -0.282146
0.88 -0.287229
0.89 -0.287218
0.9 -0.282633
0.91 -0.274111
0.92 -0.262287
0.93 -0.247984
0.94 -0.232273
0.95 -0.215988
0.96 -0.199932
0.97 -0.184854
0.98 -0.171425
0.99 -0.160464
1 -0.152312
1.01 -0.147209
1.02 -0.14532
1.03 -0.14668
1.04 -0.151197
1.05 -0.158732
1.06 -0.169078
1.07 -0.181555
1.08 -0.195677
1.09 -0.210922
1.1 -0.226746
1.11 -0.242609
1.12 -0.25792
1.13 -0.272177
1.14 -0.285008
1.15 -0.2961
1.16 -0.305225
1.17 -0.312247
1.18 -0.317087
1.19 -0.319634
1.2 -0.320256
1.21 -0.319176
1.22 -0.316675
1.23 -0.313078
1.24 -0.308736
1.25 -0.304008
1.26 -0.299305
1.27 -0.294964
1.28 -0.291265
1.29 -0.288435
1.3 -0.286639
1.31 -0.285982
1.32 -0.286606
1.33 -0.28832
1.34 -0.290996
1.35 -0.29445
1.36 -0.298449
1.37 -0.302726
1.38 -0.306972
1.39 -0.310845
1.4 -0.314067
1.41 -0.316378
1.42 -0.317563
1.43 -0.317453
1.44 -0.31594
1.45 -0.312821
1.46 -0.308295
1.47 -0.302482
1.48 -0.29556
1.49 -0.287768
1.5 -0.27939
1.51 -0.270755
1.52 -0.262266
1.53 -0.254293
1.54 -0.247183
1.55 -0.241256
1.56 -0.236793
1.57 -0.234022
1.58 -0.233306
1.59 -0.234573
1.6 -0.237786
1.61 -0.242858
1.62 -0.249619
1.63 -0.257828
1.64 -0.267203
1.65 -0.277353
1.66 -0.287772
1.67 -0.298016
1.68 -0.307631
1.69 -0.316173
1.7 -0.323223
1.71 -0.328201
1.72 -0.330874
1.73 -0.331058
1.74 -0.328595
1.75 -0.323417
1.76 -0.315543
1.77 -0.305019
1.78 -0.291922
1.79 -0.276781
1.8 -0.259957
1.81 -0.241866
1.82 -0.222964
1.83 -0.20373
1.84 -0.1847
1.85 -0.166402
1.86 -0.149265
1.87 -0.133679
1.88 -0.119975
1.89 -0.108412
1.9 -0.0992071
1.91 -0.0926696
1.92 -0.0885442
1.93 -0.0867325
1.94 -0.0870572
1.95 -0.0892702
1.96 -0.0930631
1.97 -0.0981352
1.98 -0.104015
1.99 -0.110237
2 -0.116396
2.01 -0.122107
2.02 -0.127019
2.03 -0.130823
2.04 -0.133103
2.05 -0.133834
2.06 -0.132935
2.07 -0.130401
2.08 -0.126308
2.09 -0.120804
2.1 -0.114055
2.11 -0.106385
2.12 -0.0982011
2.13 -0.0898717
2.14 -0.0817826
2.15 -0.0743226
2.16 -0.0678689
2.17 -0.0629557
2.18 -0.0597775
2.19 -0.0585679
2.2 -0.0595084
2.21 -0.0627104
2.22 -0.0682123
2.23 -0.0760753
2.24 -0.0862189
2.25 -0.098285
2.26 -0.112017
2.27 -0.127107
2.28 -0.143209
2.29 -0.159949
2.3 -0.176925
2.31 -0.193688
2.32 -0.209866
2.33 -0.225118
2.34 -0.239146
2.35 -0.251698
2.36 -0.262521
2.37 -0.271386
2.38 -0.278387
2.39 -0.28354
2.4 -0.286925
2.41 -0.288681
2.42 -0.288994
2.43 -0.288015
2.44 -0.286115
2.45 -0.283618
2.46 -0.280823
2.47 -0.278024
2.48 -0.275502
2.49 -0.273532
2.5 -0.272416
2.51 -0.272274
2.52 -0.27323
2.53 -0.275362
2.54 -0.278696
2.55 -0.283211
2.56 -0.288911
2.57 -0.295623
2.58 -0.303145
2.59 -0.31129
2.6 -0.319852
2.61 -0.328615
2.62 -0.337355
2.63 -0.345808
2.64 -0.353784
2.65 -0.361104
2.66 -0.367618
2.67 -0.373202
2.68 -0.377768
2.69 -0.381188
2.7 -0.383454
2.71 -0.384636
2.72 -0.384777
2.73 -0.383939
2.74 -0.382204
2.75 -0.379661
2.76 -0.376339
2.77 -0.372423
2.78 -0.368002
2.79 -0.363149
2.8 -0.357924
2.81 -0.352367
2.82 -0.34648
2.83 -0.340254
2.84 -0.333677
2.85 -0.326704
2.86 -0.319269
2.87 -0.311298
2.88 -0.302708
2.89 -0.29333
2.9 -0.283143
2.91 -0.272085
2.92 -0.2601
2.93 -0.24715
2.94 -0.233222
2.95 -0.218283
2.96 -0.202353
2.97 -0.185572
2.98 -0.168037
2.99 -0.149869
3 -0.131206
3.01 -0.112207
3.02 -0.0930407
3.03 -0.0739142
3.04 -0.0550051
3.05 -0.0364805
3.06 -0.0184949
3.07 -0.00118505
3.08 0.0153064
3.09 0.0308365
3.1 0.0454234
3.11 0.0590476
3.12 0.0717211
3.13 0.0834862
3.14 0.0944143
3.15 0.10455
3.16 0.114069
3.17 0.123134
3.18 0.131896
3.19 0.140508
3.2 0.149125
3.21 0.157898
3.22 0.166999
3.23 0.176522
3.24 0.186555
3.25 0.197162
3.26 0.20838
3.27 0.220215
3.28 0.232687
3.29 0.245718
3.3 0.2592
3.31 0.273031
3.32 0.287091
3.33 0.301246
3.34 0.31535
3.35 0.32922
3.36 0.342719
3.37 0.355711
3.38 0.36807
3.39 0.379685
3.4 0.390464
3.41 0.400276
3.42 0.409076
3.43 0.416894
3.44 0.423733
3.45 0.429619
3.46 0.434594
3.47 0.438722
3.48 0.442001
3.49 0.444615
3.5 0.446663
3.51 0.448247
3.52 0.449466
3.53 0.450418
3.54 0.451191
3.55 0.451878
3.56 0.45256
3.57 0.453297
3.58 0.454136
3.59 0.455112
3.6 0.456247
3.61 0.457573
3.62 0.459075
3.63 0.460743
3.64 0.462565
3.65 0.464523
3.66 0.466598
3.67 0.468772
3.68 0.471024
3.69 0.473328
3.7 0.47567
3.71 0.478034
3.72 0.480409
3.73 0.482787
3.74 0.485155
3.75 0.487507
3.76 0.489831
3.77 0.492115
3.78 0.494341
3.79 0.496488
3.8 0.498522
3.81 0.500392
3.82 0.502063
3.83 0.50348
3.84 0.504582
3.85 0.5053
3.86 0.505559
3.87 0.505227
3.88 0.504235
3.89 0.50252
3.9 0.499998
3.91 0.49659
3.92 0.492221
3.93 0.486806
3.94 0.480194
3.95 0.472445
3.96 0.463529
3.97 0.453429
3.98 0.44214
3.99 0.429674
4 0.415973
4.01 0.401111
4.02 0.385189
4.03 0.368268
4.04 0.350415
4.05 0.331705
4.06 0.312211
4.07 0.291954
4.08 0.2711
4.09 0.249731
4.1 0.22793
4.11 0.205775
4.12 0.183341
4.13 0.160693
4.14 0.137912
4.15 0.115074
4.16 0.092244
4.17 0.0694838
4.18 0.0468555
4.19 0.0244212
4.2 0.00228051
4.21 -0.0195233
4.22 -0.0409238
4.23 -0.0618514
4.24 -0.0822345
4.25 -0.102
4.26 -0.121036
4.27 -0.139244
4.28 -0.156601
4.29 -0.17304
4.3 -0.188501
4.31 -0.202929
4.32 -0.216283
4.33 -0.228413
4.34 -0.2394
4.35 -0.249259
4.36 -0.258005
4.37 -0.265669
4.38 -0.2723
4.39 -0.277926
4.4 -0.282599
4.41 -0.286487
4.42 -0.289694
4.43 -0.292328
4.44 -0.294502
4.45 -0.296331
4.46 -0.297916
4.47 -0.299388
4.48 -0.300849
4.49 -0.30238
4.5 -0.304048
4.51 -0.305903
4.52 -0.307983
4.53 -0.310315
4.54 -0.312868
4.55 -0.315612
4.56 -0.318501
4.57 -0.321475
4.58 -0.324462
4.59 -0.327368
4.6 -0.3301
4.61 -0.332572
4.62 -0.334701
4.63 -0.33641
4.64 -0.337634
4.65 -0.338311
4.66 -0.338353
4.67 -0.337802
4.68 -0.336665
4.69 -0.334969
4.7 -0.33276
4.71 -0.330102
4.72 -0.327059
4.73 -0.323748
4.74 -0.320298
4.75 -0.316822
4.76 -0.31344
4.77 -0.310269
4.78 -0.307422
4.79 -0.305062
4.8 -0.303235
4.81 -0.302013
4.82 -0.301448
4.83 -0.301575
4.84 -0.302404
4.85 -0.303966
4.86 -0.306223
4.87 -0.309082
4.88 -0.312473
4.89 -0.316313
4.9 -0.320505
4.91 -0.324949
4.92 -0.329543
4.93 -0.334156
4.94 -0.338686
4.95 -0.34304
4.96 -0.347132
4.97 -0.350892
4.98 -0.354242
4.99 -0.357124
5 -0.359542
5.01 -0.361487
5.02 -0.362962
5.03 -0.363983
5.04 -0.364573
5.05 -0.364726
5.06 -0.364512
5.07 -0.363972
5.08 -0.363135
5.09 -0.362024
5.1 -0.360654
5.11 -0.359017
5.12 -0.357088
5.13 -0.35486
5.14 -0.352289
5.15 -0.349319
5.16 -0.345881
5.17 -0.341895
5.18 -0.337205
5.19 -0.331743
5.2 -0.325426
5.21 -0.318157
5.22 -0.309843
5.23 -0.300396
5.24 -0.289712
5.25 -0.277637
5.26 -0.264243
5.27 -0.249508
5.28 -0.23343
5.29 -0.216027
5.3 -0.197337
5.31 -0.177327
5.32 -0.156131
5.33 -0.133893
5.34 -0.110721
5.35 -0.086732
5.36 -0.0620515
5.37 -0.0368037
5.38 -0.0110974
5.39 0.0148827
5.4 0.0410114
5.41 0.0671696
5.42 0.0932457
5.43 0.119137
5.44 0.144723
5.45 0.169912
5.46 0.194643
5.47 0.218846
5.48 0.242454
5.49 0.265407
5.5 0.28764
5.51 0.308995
5.52 0.329488
5.53 0.349047
5.54 0.367592
5.55 0.385036
5.56 0.401286
5.57 0.41616
5.58 0.429524
5.59 0.441344
5.6 0.451504
5.61 0.459887
5.62 0.466381
5.63 0.47088
5.64 0.473055
5.65 0.473027
5.66 0.470758
5.67 0.466213
5.68 0.459381
5.69 0.45028
5.7 0.438859
5.71 0.425146
5.72 0.409412
5.73 0.391798
5.74 0.372467
5.75 0.351607
5.76 0.329425
5.77 0.306058
5.78 0.281853
5.79 0.257071
5.8 0.231949
5.81 0.206721
5.82 0.181608
5.83 0.156834
5.84 0.132635
5.85 0.109137
5.86 0.0864739
5.87 0.0647488
5.88 0.0440387
5.89 0.0243929
5.9 0.00592829
5.91 -0.0114199
5.92 -0.0277125
5.93 -0.0429927
5.94 -0.0573161
5.95 -0.070746
5.96 -0.0833324
5.97 -0.0950931
5.98 -0.106163
5.99 -0.116589
6 -0.126406
6.01 -0.135631
6.02 -0.144265
6.03 -0.152242
6.04 -0.159539
6.05 -0.166124
6.06 -0.171926
6.07 -0.176862
6.08 -0.180842
6.09 -0.183759
6.1 -0.185397
6.11 -0.185783
6.12 -0.184839
6.13 -0.182505
6.14 -0.178736
6.15 -0.17351
6.16 -0.166738
6.17 -0.158474
6.18 -0.148858
6.19 -0.137979
6.2 -0.125953
6.21 -0.112918
6.22 -0.099033
6.23 -0.0844168
6.24 -0.0693555
6.25 -0.0540459
6.26 -0.038686
6.27 -0.0234695
6.28 -0.008581
6.29 0.00577393
6.3 0.0194158
6.31 0.0322552
6.32 0.0441953
6.33 0.0551673
6.34 0.0651318
6.35 0.074079
6.36 0.0819279
6.37 0.0888298
6.38 0.0948747
6.39 0.100163
6.4 0.104812
6.41 0.108954
6.42 0.112719
6.43 0.116266
6.44 0.119765
6.45 0.123353
6.46 0.127159
6.47 0.131299
6.48 0.135874
6.49 0.141019
6.5 0.146766
6.51 0.15314
6.52 0.160158
6.53 0.167819
6.54 0.176106
6.55 0.185
6.56 0.194476
6.57 0.204425
6.58 0.21478
6.59 0.22547
6.6 0.236424
6.61 0.247573
6.62 0.258855
6.63 0.270198
6.64 0.281546
6.65 0.292857
6.66 0.304096
6.67 0.315235
6.68 0.326253
6.69 0.337123
6.7 0.347851
6.71 0.358428
6.72 0.368848
6.73 0.379102
6.74 0.389176
6.75 0.399033
6.76 0.408645
6.77 0.417982
6.78 0.426992
6.79 0.435613
6.8 0.443773
6.81 0.451382
6.82 0.458273
6.83 0.464402
6.84 0.469663
6.85 0.473944
6.86 0.477134
6.87 0.479121
6.88 0.479714
6.89 0.478809
6.9 0.476393
6.91 0.472393
6.92 0.46675
6.93 0.459421
6.94 0.45038
6.95 0.439424
6.96 0.426757
6.97 0.412416
6.98 0.396451
6.99 0.378923
7 0.359912
7.01 0.339442
7.02 0.317609
7.03 0.294615
7.04 0.270576
7.05 0.24561
7.06 0.219838
7.07 0.193382
7.08 0.166311
7.09 0.138806
7.1 0.110982
7.11 0.0829456
7.12 0.054796
7.13 0.026628
7.14 -0.00146272
7.15 -0.0293739
7.16 -0.0570328
7.17 -0.0843631
7.18 -0.111291
7.19 -0.137746
7.2 -0.163656
7.21 -0.18889
7.22 -0.213411
7.23 -0.237167
7.24 -0.260091
7.25 -0.282114
7.26 -0.303172
7.27 -0.323172
7.28 -0.341979
7.29 -0.359632
7.3 -0.376084
7.31 -0.391292
7.32 -0.405224
7.33 -0.417858
7.34 -0.429073
7.35 -0.438929
7.36 -0.447485
7.37 -0.454769
7.38 -0.460817
7.39 -0.465677
7.4 -0.469393
7.41 -0.471957
7.42 -0.473561
7.43 -0.474293
7.44 -0.474245
7.45 -0.473513
7.46 -0.472191
7.47 -0.470349
7.48 -0.4681
7.49 -0.465552
7.5 -0.462781
7.51 -0.459853
7.52 -0.456826
7.53 -0.453743
7.54 -0.450635
7.55 -0.447523
7.56 -0.444407
7.57 -0.441278
7.58 -0.438111
7.59 -0.434871
7.6 -0.431507
7.61 -0.427955
7.62 -0.424163
7.63 -0.420068
7.64 -0.415604
7.65 -0.410708
7.66 -0.405318
7.67 -0.399307
7.68 -0.392683
7.69 -0.385408
7.7 -0.377453
7.71 -0.368801
7.72 -0.359448
7.73 -0.349369
7.74 -0.338578
7.75 -0.327163
7.76 -0.315177
7.77 -0.302684
7.78 -0.289761
7.79 -0.276496
7.8 -0.262968
7.81 -0.249315
7.82 -0.235647
7.83 -0.222077
7.84 -0.208716
7.85 -0.195672
7.86 -0.183073
7.87 -0.171053
7.88 -0.159667
7.89 -0.148996
7.9 -0.13911
7.91 -0.130063
7.92 -0.121902
7.93 -0.114739
7.94 -0.108533
7.95 -0.103257
7.96 -0.0988966
7.97 -0.0954245
7.98 -0.092802
7.99 -0.0909996
8 -0.0900009
8.01 -0.0896682
8.02 -0.0899325
8.03 -0.0907224
8.04 -0.0919663
8.05 -0.0935946
8.06 -0.0955613
8.07 -0.097786
8.08 -0.100205
8.09 -0.102775
8.1 -0.105461
8.11 -0.108238
8.12 -0.111092
8.13 -0.114022
8.14 -0.117026
8.15 -0.120114
8.16 -0.123304
8.17 -0.126615
8.18 -0.130071
8.19 -0.133707
8.2 -0.137541
8.21 -0.14158
8.22 -0.145829
8.23 -0.150286
8.24 -0.154937
8.25 -0.159757
8.26 -0.164715
8.27 -0.169736
8.28 -0.17475
8.29 -0.179674
8.3 -0.184413
8.31 -0.188861
8.32 -0.192874
8.33 -0.196309
8.34 -0.199068
8.35 -0.201025
8.36 -0.20206
8.37 -0.202056
8.38 -0.200907
8.39 -0.198375
8.4 -0.194502
8.41 -0.189239
8.42 -0.182548
8.43 -0.174409
8.44 -0.164824
8.45 -0.153753
8.46 -0.141211
8.47 -0.127364
8.48 -0.112293
8.49 -0.0960944
8.5 -0.0788736
8.51 -0.0607445
8.52 -0.0417599
8.53 -0.0221152
8.54 -0.001941
8.55 0.0186526
8.56 0.0395645
8.57 0.0607051
8.58 0.0820005
8.59 0.103386
8.6 0.124809
8.61 0.146239
8.62 0.167664
8.63 0.189083
8.64 0.210506
8.65 0.231954
8.66 0.253453
8.67 0.275028
8.68 0.296701
8.69 0.318489
8.7 0.3404
8.71 0.362433
8.72 0.384569
8.73 0.406756
8.74 0.428934
8.75 0.451022
8.76 0.472919
8.77 0.494508
8.78 0.515603
8.79 0.536046
8.8 0.555687
8.81 0.574349
8.82 0.591852
8.83 0.608013
8.84 0.622637
8.85 0.635376
8.86 0.646242
8.87 0.6551
8.88 0.661836
8.89 0.66636
8.9 0.668607
8.91 0.668387
8.92 0.665722
8.93 0.660757
8.94 0.653542
8.95 0.644148
8.96 0.632671
8.97 0.61922
8.98 0.603726
8.99 0.586554
9 0.567847
9.01 0.547752
9.02 0.526411
9.03 0.503962
9.04 0.480487
9.05 0.456111
9.06 0.430996
9.07 0.405228
9.08 0.378879
9.09 0.352008
9.1 0.324661
9.11 0.296833
9.12 0.268596
9.13 0.239978
9.14 0.211004
9.15 0.181701
9.16 0.152101
9.17 0.122241
9.18 0.0921801
9.19 0.0620121
9.2 0.03183
9.21 0.0017447
9.22 -0.0281146
9.23 -0.057601
9.24 -0.0864829
9.25 -0.114601
9.26 -0.141776
9.27 -0.167812
9.28 -0.192509
9.29 -0.215671
9.3 -0.237047
9.31 -0.256333
9.32 -0.273522
9.33 -0.288479
9.34 -0.30109
9.35 -0.311272
9.36 -0.318971
9.37 -0.323951
9.38 -0.326358
9.39 -0.326321
9.4 -0.323915
9.41 -0.319245
9.42 -0.312436
9.43 -0.303598
9.44 -0.292779
9.45 -0.280343
9.46 -0.266471
9.47 -0.251346
9.48 -0.235145
9.49 -0.218038
9.5 -0.200141
9.51 -0.181638
9.52 -0.162682
9.53 -0.143378
9.54 -0.123813
9.55 -0.104052
9.56 -0.0841473
9.57 -0.0641254
9.58 -0.0440213
9.59 -0.023847
9.6 -0.00360973
9.61 0.0166846
9.62 0.0370276
9.63 0.0574054
9.64 0.0777887
9.65 0.0981364
9.66 0.118395
9.67 0.138494
9.68 0.158347
9.69 0.177853
9.7 0.196826
9.71 0.215173
9.72 0.232753
9.73 0.249416
9.74 0.265011
9.75 0.279388
9.76 0.292326
9.77 0.303652
9.78 0.313345
9.79 0.321311
9.8 0.327477
9.81 0.3318
9.82 0.334262
9.83 0.334683
9.84 0.333282
9.85 0.330158
9.86 0.325412
9.87 0.319167
9.88 0.311567
9.89 0.302731
9.9 0.292819
9.91 0.282099
9.92 0.270752
9.93 0.258951
9.94 0.246865
9.95 0.234647
9.96 0.222444
9.97 0.210383
9.98 0.198552
9.99 0.187016
10 0.175814
10.01 0.164964
10.02 0.154469
10.03 0.144316
10.04 0.134426
10.05 0.124738
10.06 0.115182
10.07 0.105683
10.08 0.096163
10.09 0.0865349
10.1 0.0767293
10.11 0.0666961
10.12 0.0563962
10.13 0.0458062
10.14 0.0349203
10.15 0.0237467
10.16 0.0123022
10.17 0.000667339
10.18 -0.0110895
10.19 -0.022887
10.2 -0.0346337
10.21 -0.0462311
10.22 -0.057552
10.23 -0.0684873
10.24 -0.0789536
10.25 -0.0888633
10.26 -0.0981409
10.27 -0.106725
10.28 -0.114565
10.29 -0.121553
10.3 -0.12777
10.31 -0.133232
10.32 -0.137972
10.33 -0.142042
10.34 -0.145509
10.35 -0.148426
10.36 -0.150899
10.37 -0.153054
10.38 -0.154991
10.39 -0.156809
10.4 -0.158601
10.41 -0.160456
10.42 -0.162475
10.43 -0.164711
10.44 -0.167212
10.45 -0.170011
10.46 -0.173125
10.47 -0.176557
10.48 -0.180307
10.49 -0.184349
10.5 -0.188623
10.51 -0.193079
10.52 -0.197663
10.53 -0.202315
10.54 -0.206974
10.55 -0.211572
10.56 -0.216054
10.57 -0.220372
10.58 -0.22449
10.59 -0.228377
10.6 -0.232016
10.61 -0.235388
10.62 -0.238488
10.63 -0.24135
10.64 -0.243997
10.65 -0.24646
10.66 -0.248774
10.67 -0.250977
10.68 -0.253105
10.69 -0.255208
10.7 -0.25732
10.71 -0.259471
10.72 -0.261685
10.73 -0.263978
10.74 -0.266359
10.75 -0.26883
10.76 -0.271374
10.77 -0.27397
10.78 -0.276592
10.79 -0.27921
10.8 -0.28179
10.81 -0.284285
10.82 -0.28666
10.83 -0.288882
10.84 -0.290924
10.85 -0.292762
10.86 -0.29438
10.87 -0.295768
10.88 -0.296908
10.89 -0.297836
10.9 -0.298573
10.91 -0.299147
10.92 -0.299593
10.93 -0.299953
10.94 -0.300268
10.95 -0.30059
10.96 -0.300963
10.97 -0.301423
10.98 -0.302001
10.99 -0.302721
11 -0.303593
11.01 -0.304633
11.02 -0.305807
11.03 -0.307086
11.04 -0.308424
11.05 -0.309767
11.06 -0.311046
11.07 -0.312171
11.08 -0.31304
11.09 -0.313571
11.1 -0.313669
11.11 -0.313242
11.12 -0.312201
11.13 -0.310464
11.14 -0.307868
11.15 -0.30443
11.16 -0.300118
11.17 -0.294907
11.18 -0.288794
11.19 -0.281793
11.2 -0.273901
11.21 -0.26516
11.22 -0.255704
11.23 -0.245619
11.24 -0.235007
11.25 -0.223975
11.26 -0.21264
11.27 -0.201114
11.28 -0.189541
11.29 -0.178038
11.3 -0.166709
11.31 -0.155647
11.32 -0.144931
11.33 -0.134641
11.34 -0.12485
11.35 -0.115546
11.36 -0.106732
11.37 -0.0983938
11.38 -0.0904994
11.39 -0.0830003
11.4 -0.0758561
11.41 -0.0689613
11.42 -0.0622206
11.43 -0.0555426
11.44 -0.0488334
11.45 -0.0419998
11.46 -0.0349449
11.47 -0.0275553
11.48 -0.0197809
11.49 -0.0115617
11.5 -0.0028508
11.51 0.00638492
11.52 0.0161639
11.53 0.0265314
11.54 0.037453
11.55 0.0488801
11.56 0.0607745
11.57 0.0730885
11.58 0.0857669
11.59 0.098752
11.6 0.111994
11.61 0.125398
11.62 0.138902
11.63 0.152448
11.64 0.165982
11.65 0.179458
11.66 0.19283
11.67 0.206067
11.68 0.219153
11.69 0.232079
11.7 0.244839
11.71 0.257436
11.72 0.269876
11.73 0.282153
11.74 0.294295
11.75 0.306311
11.76 0.318208
11.77 0.329986
11.78 0.341638
11.79 0.353142
11.8 0.364467
11.81 0.375586
11.82 0.386451
11.83 0.397006
11.84 0.407183
11.85 0.416905
11.86 0.426021
11.87 0.434484
11.88 0.442204
11.89 0.449084
11.9 0.455029
11.91 0.459947
11.92 0.463697
11.93 0.466156
11.94 0.467338
11.95 0.467192
11.96 0.465674
11.97 0.46276
11.98 0.45844
11.99 0.452585
12 0.445331
12.01 0.436748
12.02 0.426892
12.03 0.415835
12.04 0.403659
12.05 0.390427
12.06 0.376209
12.07 0.361202
12.08 0.345519
12.09 0.329279
12.1 0.312599
12.11 0.295595
12.12 0.278372
12.13 0.261062
12.14 0.243772
12.15 0.226596
12.16 0.20962
12.17 0.192921
12.18 0.176579
12.19 0.16069
12.2 0.145273
12.21 0.13037
12.22 0.11602
12.23 0.102253
12.24 0.0890946
12.25 0.0766152
