# xPDFsuite Configuration #
[PDF]
wavelength = 0.1
dataformat = QA
inputfile = BiMsol6_insitu_700 C-00310.xy
backgroundfile = Quartz2mm-dist500-00000.xy
mode = xray
bgscale = 0.0042
composition = Bi2Fe4O9
outputtype = gr
qmaxinst = 24.998449118
qmin = 0.1
qmax = 21.4986662415
rmax = 80.0
rmin = 0.0
rstep = 0.01
rpoly = 0.9

[Misc]
inputdir = C:/Data/Seafile/CPH/Beamtime/Desy Oct 20/In situ data/Processed/BiMsol6/PDF
savedir = C:/Data/Seafile/CPH/Beamtime/Desy Oct 20/In situ data/PDF/BiMsol6
backgroundfilefull = C:/Data/Seafile/CPH/Beamtime/Desy Oct 20/In situ data/Processed/Standard_Empty_Cap/Quartz2mm-dist500-00000.xy

#### start data
#S 1
#L r($\AA$)  G($\AA^{-2}$)
0 0
0.01 0.00663126
0.02 0.0128909
0.03 0.0184609
0.04 0.0230557
0.05 0.0264353
0.06 0.0284165
0.07 0.0287985
0.08 0.0275218
0.09 0.0247321
0.1 0.0205491
0.11 0.0151589
0.12 0.00880617
0.13 0.00178326
0.14 -0.00558207
0.15 -0.0128737
0.16 -0.0197408
0.17 -0.025854
0.18 -0.0309172
0.19 -0.0346823
0.2 -0.036894
0.21 -0.0373763
0.22 -0.0362259
0.23 -0.0335072
0.24 -0.0293646
0.25 -0.0240182
0.26 -0.017755
0.27 -0.0109005
0.28 -0.00392978
0.29 0.00273449
0.3 0.00868129
0.31 0.013519
0.32 0.0168943
0.33 0.018449
0.34 0.0178314
0.35 0.0150882
0.36 0.0102109
0.37 0.00329713
0.38 -0.00544727
0.39 -0.0157112
0.4 -0.0271356
0.41 -0.0390913
0.42 -0.0509599
0.43 -0.0621122
0.44 -0.0718955
0.45 -0.0796585
0.46 -0.0847111
0.47 -0.0861654
0.48 -0.0838186
0.49 -0.0773044
0.5 -0.0663804
0.51 -0.0509428
0.52 -0.0310372
0.53 -0.00658061
0.54 0.0218742
0.55 0.0535935
0.56 0.087896
0.57 0.123983
0.58 0.160958
0.59 0.197846
0.6 0.233401
0.61 0.266636
0.62 0.296561
0.63 0.322246
0.64 0.342855
0.65 0.357665
0.66 0.365679
0.67 0.366485
0.68 0.360251
0.69 0.346978
0.7 0.326853
0.71 0.300249
0.72 0.267714
0.73 0.229451
0.74 0.186994
0.75 0.141338
0.76 0.0935362
0.77 0.0446878
0.78 -0.0041002
0.79 -0.0516308
0.8 -0.0966982
0.81 -0.138477
0.82 -0.176172
0.83 -0.209131
0.84 -0.236859
0.85 -0.259028
0.86 -0.274896
0.87 -0.285034
0.88 -0.289754
0.89 -0.289443
0.9 -0.284624
0.91 -0.275933
0.92 -0.264003
0.93 -0.24965
0.94 -0.233931
0.95 -0.21767
0.96 -0.201654
0.97 -0.18662
0.98 -0.173222
0.99 -0.162262
1 -0.154066
1.01 -0.148863
1.02 -0.146807
1.03 -0.147924
1.04 -0.152116
1.05 -0.15924
1.06 -0.169082
1.07 -0.180974
1.08 -0.194438
1.09 -0.208959
1.1 -0.224005
1.11 -0.239053
1.12 -0.253523
1.13 -0.266934
1.14 -0.278933
1.15 -0.289223
1.16 -0.297593
1.17 -0.303922
1.18 -0.308145
1.19 -0.310174
1.2 -0.310375
1.21 -0.308979
1.22 -0.306268
1.23 -0.302568
1.24 -0.298226
1.25 -0.293604
1.26 -0.2891
1.27 -0.285036
1.28 -0.28168
1.29 -0.279246
1.3 -0.277885
1.31 -0.277688
1.32 -0.278781
1.33 -0.28096
1.34 -0.284085
1.35 -0.287959
1.36 -0.292341
1.37 -0.296958
1.38 -0.301493
1.39 -0.305601
1.4 -0.309005
1.41 -0.311449
1.42 -0.312717
1.43 -0.312647
1.44 -0.311134
1.45 -0.307978
1.46 -0.303387
1.47 -0.297486
1.48 -0.290459
1.49 -0.282546
1.5 -0.274035
1.51 -0.265257
1.52 -0.256612
1.53 -0.248471
1.54 -0.241178
1.55 -0.235047
1.56 -0.230356
1.57 -0.227328
1.58 -0.226315
1.59 -0.227243
1.6 -0.230072
1.61 -0.234708
1.62 -0.240982
1.63 -0.248651
1.64 -0.257432
1.65 -0.266936
1.66 -0.276665
1.67 -0.286184
1.68 -0.29505
1.69 -0.302828
1.7 -0.309111
1.71 -0.313338
1.72 -0.315288
1.73 -0.314792
1.74 -0.311708
1.75 -0.305978
1.76 -0.297634
1.77 -0.286734
1.78 -0.273369
1.79 -0.258063
1.8 -0.24118
1.81 -0.223133
1.82 -0.204373
1.83 -0.185372
1.84 -0.16666
1.85 -0.148748
1.86 -0.132048
1.87 -0.116934
1.88 -0.10372
1.89 -0.092649
1.9 -0.0839221
1.91 -0.07783
1.92 -0.0741075
1.93 -0.0726469
1.94 -0.0732645
1.95 -0.0757092
1.96 -0.0796729
1.97 -0.0848555
1.98 -0.0907954
1.99 -0.0970412
2 -0.103202
2.01 -0.10891
2.02 -0.113831
2.03 -0.117675
2.04 -0.120054
2.05 -0.120957
2.06 -0.12032
2.07 -0.118154
2.08 -0.114544
2.09 -0.109648
2.1 -0.103644
2.11 -0.0968547
2.12 -0.089674
2.13 -0.0824597
2.14 -0.0755831
2.15 -0.0694146
2.16 -0.0643091
2.17 -0.0607763
2.18 -0.0589775
2.19 -0.0591176
2.2 -0.0613495
2.21 -0.065757
2.22 -0.0723525
2.23 -0.081167
2.24 -0.092094
2.25 -0.104771
2.26 -0.118932
2.27 -0.134265
2.28 -0.150426
2.29 -0.167047
2.3 -0.183725
2.31 -0.200042
2.32 -0.215651
2.33 -0.23024
2.34 -0.243536
2.35 -0.255319
2.36 -0.265364
2.37 -0.273481
2.38 -0.279787
2.39 -0.284327
2.4 -0.2872
2.41 -0.28856
2.42 -0.288606
2.43 -0.287506
2.44 -0.285622
2.45 -0.283269
2.46 -0.280731
2.47 -0.278286
2.48 -0.276194
2.49 -0.274704
2.5 -0.274091
2.51 -0.274438
2.52 -0.275843
2.53 -0.278355
2.54 -0.281976
2.55 -0.28666
2.56 -0.292384
2.57 -0.298966
2.58 -0.306201
2.59 -0.313905
2.6 -0.321878
2.61 -0.329916
2.62 -0.337811
2.63 -0.345319
2.64 -0.35229
2.65 -0.358576
2.66 -0.364062
2.67 -0.368659
2.68 -0.372314
2.69 -0.374941
2.7 -0.376564
2.71 -0.377275
2.72 -0.377134
2.73 -0.376221
2.74 -0.374623
2.75 -0.372433
2.76 -0.369695
2.77 -0.366555
2.78 -0.363082
2.79 -0.359324
2.8 -0.355309
2.81 -0.351043
2.82 -0.346491
2.83 -0.341599
2.84 -0.336318
2.85 -0.330562
2.86 -0.324234
2.87 -0.317229
2.88 -0.309441
2.89 -0.300659
2.9 -0.29087
2.91 -0.280006
2.92 -0.268014
2.93 -0.254867
2.94 -0.240564
2.95 -0.225089
2.96 -0.208485
2.97 -0.190932
2.98 -0.172558
2.99 -0.153515
3 -0.133972
3.01 -0.114116
3.02 -0.0941488
3.03 -0.074298
3.04 -0.0547554
3.05 -0.0356984
3.06 -0.017286
3.07 0.000346785
3.08 0.0170619
3.09 0.0327269
3.1 0.0473868
3.11 0.0610441
3.12 0.0737353
3.13 0.0855287
3.14 0.0965211
3.15 0.106789
3.16 0.116528
3.17 0.125918
3.18 0.135119
3.19 0.144291
3.2 0.153586
3.21 0.163152
3.22 0.173148
3.23 0.183635
3.24 0.194672
3.25 0.206288
3.26 0.218479
3.27 0.231211
3.28 0.24445
3.29 0.258071
3.3 0.271934
3.31 0.285901
3.32 0.299822
3.33 0.31354
3.34 0.326893
3.35 0.339664
3.36 0.351756
3.37 0.363053
3.38 0.373459
3.39 0.382901
3.4 0.391336
3.41 0.398685
3.42 0.404978
3.43 0.410319
3.44 0.41478
3.45 0.418456
3.46 0.421459
3.47 0.423915
3.48 0.425921
3.49 0.427674
3.5 0.429304
3.51 0.430931
3.52 0.432663
3.53 0.434589
3.54 0.436795
3.55 0.439335
3.56 0.442206
3.57 0.445402
3.58 0.44889
3.59 0.452618
3.6 0.456517
3.61 0.460499
3.62 0.464447
3.63 0.468256
3.64 0.471819
3.65 0.475032
3.66 0.4778
3.67 0.480012
3.68 0.481566
3.69 0.482454
3.7 0.482644
3.71 0.482124
3.72 0.480899
3.73 0.478994
3.74 0.476396
3.75 0.473214
3.76 0.469531
3.77 0.465423
3.78 0.460971
3.79 0.456254
3.8 0.451342
3.81 0.446307
3.82 0.441216
3.83 0.436111
3.84 0.431018
3.85 0.425945
3.86 0.420886
3.87 0.41581
3.88 0.410671
3.89 0.405411
3.9 0.399962
3.91 0.394246
3.92 0.38818
3.93 0.381668
3.94 0.374575
3.95 0.366865
3.96 0.358469
3.97 0.349325
3.98 0.339388
3.99 0.328624
4 0.316955
4.01 0.304405
4.02 0.291032
4.03 0.276871
4.04 0.261972
4.05 0.246398
4.06 0.230217
4.07 0.213471
4.08 0.196313
4.09 0.178837
4.1 0.161138
4.11 0.143309
4.12 0.125443
4.13 0.107633
4.14 0.0899722
4.15 0.0725294
4.16 0.0553693
4.17 0.0385496
4.18 0.0221202
4.19 0.00612428
4.2 -0.0093446
4.21 -0.0243047
4.22 -0.0387325
4.23 -0.0526066
4.24 -0.0659081
4.25 -0.0786207
4.26 -0.0906996
4.27 -0.102119
4.28 -0.112908
4.29 -0.123058
4.3 -0.132562
4.31 -0.141416
4.32 -0.149619
4.33 -0.15711
4.34 -0.163956
4.35 -0.170184
4.36 -0.175816
4.37 -0.180882
4.38 -0.185421
4.39 -0.18946
4.4 -0.19304
4.41 -0.196257
4.42 -0.199174
4.43 -0.201857
4.44 -0.20437
4.45 -0.206781
4.46 -0.209154
4.47 -0.211554
4.48 -0.214033
4.49 -0.216628
4.5 -0.21937
4.51 -0.222274
4.52 -0.225348
4.53 -0.228589
4.54 -0.231956
4.55 -0.23541
4.56 -0.2389
4.57 -0.242368
4.58 -0.245745
4.59 -0.248942
4.6 -0.251882
4.61 -0.254499
4.62 -0.256725
4.63 -0.258501
4.64 -0.259776
4.65 -0.260506
4.66 -0.26062
4.67 -0.26017
4.68 -0.259173
4.69 -0.257662
4.7 -0.255686
4.71 -0.253312
4.72 -0.250602
4.73 -0.247669
4.74 -0.244631
4.75 -0.241593
4.76 -0.238663
4.77 -0.235947
4.78 -0.233548
4.79 -0.231609
4.8 -0.230169
4.81 -0.229287
4.82 -0.229007
4.83 -0.229353
4.84 -0.230331
4.85 -0.231959
4.86 -0.234199
4.87 -0.236959
4.88 -0.240172
4.89 -0.243756
4.9 -0.247621
4.91 -0.251673
4.92 -0.255813
4.93 -0.259926
4.94 -0.263922
4.95 -0.267718
4.96 -0.271244
4.97 -0.274442
4.98 -0.27725
4.99 -0.279629
5 -0.281596
5.01 -0.283159
5.02 -0.284336
5.03 -0.28516
5.04 -0.28567
5.05 -0.285894
5.06 -0.285908
5.07 -0.285768
5.08 -0.285521
5.09 -0.285205
5.1 -0.284851
5.11 -0.284476
5.12 -0.284085
5.13 -0.283663
5.14 -0.283181
5.15 -0.282594
5.16 -0.281843
5.17 -0.280856
5.18 -0.279515
5.19 -0.277735
5.2 -0.275429
5.21 -0.2725
5.22 -0.268854
5.23 -0.264401
5.24 -0.259038
5.25 -0.252625
5.26 -0.245197
5.27 -0.236722
5.28 -0.227186
5.29 -0.216596
5.3 -0.204976
5.31 -0.192297
5.32 -0.17867
5.33 -0.164213
5.34 -0.149019
5.35 -0.133191
5.36 -0.11684
5.37 -0.100076
5.38 -0.0830033
5.39 -0.0657744
5.4 -0.0484975
5.41 -0.0312736
5.42 -0.0141945
5.43 0.0026576
5.44 0.0191876
5.45 0.0353328
5.46 0.0510618
5.47 0.066337
5.48 0.0811285
5.49 0.0954128
5.5 0.109169
5.51 0.122318
5.52 0.134902
5.53 0.146902
5.54 0.158294
5.55 0.169049
5.56 0.179131
5.57 0.188458
5.58 0.196967
5.59 0.204647
5.6 0.211437
5.61 0.217275
5.62 0.222098
5.63 0.225843
5.64 0.228326
5.65 0.229606
5.66 0.229655
5.67 0.22845
5.68 0.225979
5.69 0.222252
5.7 0.217239
5.71 0.210961
5.72 0.203571
5.73 0.195156
5.74 0.185815
5.75 0.175663
5.76 0.164824
5.77 0.153394
5.78 0.141568
5.79 0.129499
5.8 0.117322
5.81 0.105166
5.82 0.093153
5.83 0.0813995
5.84 0.0700246
5.85 0.0590748
5.86 0.0486006
5.87 0.0386337
5.88 0.0291874
5.89 0.0202582
5.9 0.0118675
5.91 0.00395091
5.92 -0.00354972
5.93 -0.0106822
5.94 -0.0174959
5.95 -0.0240376
5.96 -0.0303442
5.97 -0.0364357
5.98 -0.0423491
5.99 -0.0480854
6 -0.0536287
6.01 -0.058946
6.02 -0.0639873
6.03 -0.0686538
6.04 -0.0728625
6.05 -0.0765319
6.06 -0.0795581
6.07 -0.0818328
6.08 -0.0832481
6.09 -0.0836886
6.1 -0.0829489
6.11 -0.0810565
6.12 -0.0779533
6.13 -0.073603
6.14 -0.0679942
6.15 -0.061142
6.16 -0.0530175
6.17 -0.0437199
6.18 -0.033418
6.19 -0.0222422
6.2 -0.0103444
6.21 0.00210523
6.22 0.0149231
6.23 0.0279143
6.24 0.0408448
6.25 0.0535229
6.26 0.0657663
6.27 0.0774074
6.28 0.0882979
6.29 0.0982615
6.3 0.107179
6.31 0.115049
6.32 0.121843
6.33 0.127566
6.34 0.132252
6.35 0.135965
6.36 0.138714
6.37 0.140712
6.38 0.142105
6.39 0.14304
6.4 0.143674
6.41 0.144163
6.42 0.144666
6.43 0.145352
6.44 0.146343
6.45 0.147746
6.46 0.149648
6.47 0.152107
6.48 0.155162
6.49 0.158876
6.5 0.163185
6.51 0.168033
6.52 0.173352
6.53 0.179064
6.54 0.185073
6.55 0.191279
6.56 0.197565
6.57 0.203812
6.58 0.209919
6.59 0.215798
6.6 0.221373
6.61 0.226585
6.62 0.231358
6.63 0.235691
6.64 0.239601
6.65 0.243113
6.66 0.246267
6.67 0.249118
6.68 0.251731
6.69 0.254179
6.7 0.256565
6.71 0.258968
6.72 0.261464
6.73 0.264117
6.74 0.266979
6.75 0.270106
6.76 0.273507
6.77 0.277161
6.78 0.281037
6.79 0.285081
6.8 0.28922
6.81 0.293359
6.82 0.297361
6.83 0.301101
6.84 0.304442
6.85 0.307245
6.86 0.309368
6.87 0.310675
6.88 0.310972
6.89 0.310135
6.9 0.308124
6.91 0.304866
6.92 0.30031
6.93 0.294432
6.94 0.287228
6.95 0.278581
6.96 0.268691
6.97 0.257638
6.98 0.245514
6.99 0.232429
7 0.218504
7.01 0.203841
7.02 0.188584
7.03 0.17291
7.04 0.156948
7.05 0.140816
7.06 0.124623
7.07 0.108462
7.08 0.0924274
7.09 0.076575
7.1 0.0609418
7.11 0.04555
7.12 0.0304068
7.13 0.0155056
7.14 0.000836035
7.15 -0.0136251
7.16 -0.0279277
7.17 -0.0421058
7.18 -0.0561916
7.19 -0.0702121
7.2 -0.084187
7.21 -0.0981225
7.22 -0.112016
7.23 -0.125849
7.24 -0.13959
7.25 -0.15319
7.26 -0.166592
7.27 -0.179715
7.28 -0.192445
7.29 -0.204719
7.3 -0.216446
7.31 -0.227535
7.32 -0.237898
7.33 -0.247452
7.34 -0.256048
7.35 -0.263662
7.36 -0.270283
7.37 -0.275888
7.38 -0.280471
7.39 -0.284044
7.4 -0.286623
7.41 -0.288188
7.42 -0.288906
7.43 -0.28886
7.44 -0.288146
7.45 -0.286868
7.46 -0.285133
7.47 -0.283037
7.48 -0.280711
7.49 -0.278274
7.5 -0.27582
7.51 -0.27343
7.52 -0.271175
7.53 -0.269108
7.54 -0.267294
7.55 -0.265724
7.56 -0.264398
7.57 -0.263298
7.58 -0.26239
7.59 -0.261628
7.6 -0.260957
7.61 -0.2603
7.62 -0.259581
7.63 -0.258726
7.64 -0.257662
7.65 -0.256321
7.66 -0.254641
7.67 -0.252519
7.68 -0.249952
7.69 -0.246916
7.7 -0.243396
7.71 -0.239393
7.72 -0.23492
7.73 -0.229983
7.74 -0.224621
7.75 -0.218915
7.76 -0.212925
7.77 -0.206717
7.78 -0.200362
7.79 -0.193931
7.8 -0.187503
7.81 -0.181154
7.82 -0.174949
7.83 -0.168942
7.84 -0.163185
7.85 -0.157716
7.86 -0.152579
7.87 -0.147814
7.88 -0.143402
7.89 -0.139344
7.9 -0.135633
7.91 -0.132254
7.92 -0.129189
7.93 -0.126435
7.94 -0.123944
7.95 -0.121679
7.96 -0.119614
7.97 -0.117721
7.98 -0.115976
7.99 -0.114364
8 -0.112874
8.01 -0.111485
8.02 -0.110195
8.03 -0.109002
8.04 -0.107913
8.05 -0.106937
8.06 -0.106097
8.07 -0.105406
8.08 -0.104875
8.09 -0.104521
8.1 -0.104362
8.11 -0.104411
8.12 -0.104684
8.13 -0.105212
8.14 -0.105975
8.15 -0.106973
8.16 -0.108201
8.17 -0.10965
8.18 -0.111304
8.19 -0.113156
8.2 -0.115172
8.21 -0.117317
8.22 -0.119556
8.23 -0.121855
8.24 -0.124174
8.25 -0.126474
8.26 -0.128701
8.27 -0.130814
8.28 -0.132768
8.29 -0.13452
8.3 -0.136025
8.31 -0.137238
8.32 -0.138095
8.33 -0.138542
8.34 -0.13856
8.35 -0.138106
8.36 -0.137141
8.37 -0.135627
8.38 -0.133528
8.39 -0.130738
8.4 -0.127288
8.41 -0.123156
8.42 -0.118318
8.43 -0.112757
8.44 -0.10646
8.45 -0.0993859
8.46 -0.0915145
8.47 -0.0829071
8.48 -0.0735783
8.49 -0.0635499
8.5 -0.0528514
8.51 -0.0415192
8.52 -0.0295438
8.53 -0.0170288
8.54 -0.00404227
8.55 0.00935375
8.56 0.0230937
8.57 0.0371094
8.58 0.051336
8.59 0.0657011
8.6 0.0801213
8.61 0.094532
8.62 0.108873
8.63 0.123089
8.64 0.137131
8.65 0.150935
8.66 0.164475
8.67 0.177733
8.68 0.19069
8.69 0.203335
8.7 0.215662
8.71 0.227664
8.72 0.239324
8.73 0.250677
8.74 0.261733
8.75 0.272498
8.76 0.282976
8.77 0.293168
8.78 0.303046
8.79 0.312608
8.8 0.321843
8.81 0.330724
8.82 0.339213
8.83 0.347264
8.84 0.354815
8.85 0.361745
8.86 0.368036
8.87 0.373615
8.88 0.378403
8.89 0.382321
8.9 0.385291
8.91 0.387167
8.92 0.387883
8.93 0.387431
8.94 0.38576
8.95 0.38283
8.96 0.378614
8.97 0.373095
8.98 0.366128
8.99 0.357882
9 0.348392
9.01 0.337706
9.02 0.325887
9.03 0.313009
9.04 0.299109
9.05 0.28429
9.06 0.268716
9.07 0.252494
9.08 0.235734
9.09 0.218548
9.1 0.201044
9.11 0.183318
9.12 0.165501
9.13 0.147687
9.14 0.129963
9.15 0.112407
9.16 0.0950887
9.17 0.0780844
9.18 0.0614651
9.19 0.0452517
9.2 0.0294817
9.21 0.0141872
9.22 -0.000603693
9.23 -0.0148661
9.24 -0.0285218
9.25 -0.0415864
9.26 -0.0540482
9.27 -0.065882
9.28 -0.0770602
9.29 -0.0875526
9.3 -0.0973018
9.31 -0.106226
9.32 -0.114348
9.33 -0.121627
9.34 -0.128021
9.35 -0.133488
9.36 -0.13799
9.37 -0.1414
9.38 -0.143735
9.39 -0.145001
9.4 -0.14518
9.41 -0.144259
9.42 -0.142237
9.43 -0.139098
9.44 -0.134783
9.45 -0.129428
9.46 -0.123072
9.47 -0.115766
9.48 -0.107571
9.49 -0.0985535
9.5 -0.0887396
9.51 -0.0782447
9.52 -0.067187
9.53 -0.0556551
9.54 -0.043739
9.55 -0.0315284
9.56 -0.0191102
9.57 -0.0065679
9.58 0.00599805
9.59 0.0185125
9.6 0.0309056
9.61 0.0431138
9.62 0.0550793
9.63 0.0667291
9.64 0.0780137
9.65 0.0889107
9.66 0.0993857
9.67 0.109409
9.68 0.118953
9.69 0.127994
9.7 0.136447
9.71 0.144349
9.72 0.15168
9.73 0.158423
9.74 0.164557
9.75 0.170062
9.76 0.174887
9.77 0.179001
9.78 0.182428
9.79 0.185154
9.8 0.187165
9.81 0.188452
9.82 0.189008
9.83 0.188756
9.84 0.187766
9.85 0.186061
9.86 0.183655
9.87 0.180575
9.88 0.176848
9.89 0.172491
9.9 0.167531
9.91 0.162065
9.92 0.156148
9.93 0.149837
9.94 0.143194
9.95 0.136281
9.96 0.129148
9.97 0.121876
9.98 0.11453
9.99 0.107164
10 0.0998269
10.01 0.0925639
10.02 0.0854165
10.03 0.0784266
10.04 0.0716052
10.05 0.064966
10.06 0.0585156
10.07 0.0522541
10.08 0.0461752
10.09 0.0402799
10.1 0.0345418
10.11 0.0289347
10.12 0.0234371
10.13 0.0180262
10.14 0.01268
10.15 0.00737828
10.16 0.00210283
10.17 -0.00316426
10.18 -0.00843292
10.19 -0.0137086
10.2 -0.018992
10.21 -0.0242792
10.22 -0.0295603
10.23 -0.0348202
10.24 -0.0400419
10.25 -0.0452051
10.26 -0.0502878
10.27 -0.0552665
10.28 -0.0601167
10.29 -0.0647971
10.3 -0.0693016
10.31 -0.0736116
10.32 -0.0777119
10.33 -0.0815908
10.34 -0.0852407
10.35 -0.0886442
10.36 -0.0918039
10.37 -0.0947391
10.38 -0.09746
10.39 -0.0999799
10.4 -0.102315
10.41 -0.104485
10.42 -0.106495
10.43 -0.108384
10.44 -0.110176
10.45 -0.11189
10.46 -0.113547
10.47 -0.115166
10.48 -0.116763
10.49 -0.118354
10.5 -0.119951
10.51 -0.121565
10.52 -0.123202
10.53 -0.124869
10.54 -0.126567
10.55 -0.128304
10.56 -0.130078
10.57 -0.131889
10.58 -0.133738
10.59 -0.135626
10.6 -0.137555
10.61 -0.139527
10.62 -0.141549
10.63 -0.14362
10.64 -0.145744
10.65 -0.147925
10.66 -0.150167
10.67 -0.152472
10.68 -0.154848
10.69 -0.157292
10.7 -0.159797
10.71 -0.162359
10.72 -0.16497
10.73 -0.167616
10.74 -0.170284
10.75 -0.17295
10.76 -0.175592
10.77 -0.178182
10.78 -0.180693
10.79 -0.183096
10.8 -0.185359
10.81 -0.187438
10.82 -0.189306
10.83 -0.190945
10.84 -0.192332
10.85 -0.193449
10.86 -0.194285
10.87 -0.194828
10.88 -0.195056
10.89 -0.195007
10.9 -0.194699
10.91 -0.194155
10.92 -0.193407
10.93 -0.192489
10.94 -0.191437
10.95 -0.190305
10.96 -0.189146
10.97 -0.188007
10.98 -0.186932
10.99 -0.185963
11 -0.185138
11.01 -0.184507
11.02 -0.184075
11.03 -0.183849
11.04 -0.183829
11.05 -0.184004
11.06 -0.184349
11.07 -0.184835
11.08 -0.185408
11.09 -0.186003
11.1 -0.186555
11.11 -0.18699
11.12 -0.187234
11.13 -0.187207
11.14 -0.186784
11.15 -0.185919
11.16 -0.184545
11.17 -0.182602
11.18 -0.18004
11.19 -0.176818
11.2 -0.172882
11.21 -0.168204
11.22 -0.162843
11.23 -0.156825
11.24 -0.150191
11.25 -0.142997
11.26 -0.135314
11.27 -0.127191
11.28 -0.118764
11.29 -0.110141
11.3 -0.101425
11.31 -0.0927215
11.32 -0.0841335
11.33 -0.0757701
11.34 -0.0677473
11.35 -0.0601233
11.36 -0.0529623
11.37 -0.0463136
11.38 -0.0402101
11.39 -0.0346679
11.4 -0.0297333
11.41 -0.0253488
11.42 -0.0214585
11.43 -0.0180077
11.44 -0.0149281
11.45 -0.0121404
11.46 -0.00955903
11.47 -0.00708429
11.48 -0.00460097
11.49 -0.00201168
11.5 0.000777681
11.51 0.00385527
11.52 0.00730087
11.53 0.011222
11.54 0.0156646
11.55 0.02065
11.56 0.0262023
11.57 0.0323307
11.58 0.0390293
11.59 0.0462844
11.6 0.0541032
11.61 0.0623802
11.62 0.0710565
11.63 0.0800656
11.64 0.0893354
11.65 0.0987901
11.66 0.108355
11.67 0.117941
11.68 0.127473
11.69 0.136882
11.7 0.146111
11.71 0.155105
11.72 0.163821
11.73 0.172186
11.74 0.180208
11.75 0.187871
11.76 0.195169
11.77 0.202099
11.78 0.208665
11.79 0.214857
11.8 0.220684
11.81 0.226179
11.82 0.231355
11.83 0.236218
11.84 0.240774
11.85 0.245024
11.86 0.24893
11.87 0.252512
11.88 0.255757
11.89 0.258644
11.9 0.261147
11.91 0.263238
11.92 0.264863
11.93 0.265972
11.94 0.266563
11.95 0.266605
11.96 0.266068
11.97 0.264929
11.98 0.263166
11.99 0.260705
12 0.257589
12.01 0.253832
12.02 0.249446
12.03 0.244449
12.04 0.238867
12.05 0.232715
12.06 0.22601
12.07 0.218844
12.08 0.211263
12.09 0.203318
12.1 0.19506
12.11 0.186541
12.12 0.177795
12.13 0.168887
12.14 0.159868
12.15 0.150777
12.16 0.14165
12.17 0.132519
12.18 0.123412
