# xPDFsuite Configuration #
[PDF]
wavelength = 0.1
dataformat = QA
inputfile = BiMsol6_insitu_700 C-00719.xy
backgroundfile = Quartz2mm-dist500-00000.xy
mode = xray
bgscale = 0.0042
composition = Bi2Fe4O9
outputtype = gr
qmaxinst = 24.998449118
qmin = 0.1
qmax = 21.4986662415
rmax = 80.0
rmin = 0.0
rstep = 0.01
rpoly = 0.9

[Misc]
inputdir = C:/Data/Seafile/CPH/Beamtime/Desy Oct 20/In situ data/Processed/BiMsol6/PDF
savedir = C:/Data/Seafile/CPH/Beamtime/Desy Oct 20/In situ data/PDF/BiMsol6
backgroundfilefull = C:/Data/Seafile/CPH/Beamtime/Desy Oct 20/In situ data/Processed/Standard_Empty_Cap/Quartz2mm-dist500-00000.xy

#### start data
#S 1
#L r($\AA$)  G($\AA^{-2}$)
0 0
0.01 0.00644003
0.02 0.0125149
0.03 0.0179123
0.04 0.0223519
0.05 0.0255985
0.06 0.0274729
0.07 0.0277794
0.08 0.0264615
0.09 0.023664
0.1 0.0195064
0.11 0.0141738
0.12 0.00790849
0.13 0.000999475
0.14 -0.00622818
0.15 -0.0133665
0.16 -0.0200712
0.17 -0.0260197
0.18 -0.0309231
0.19 -0.0345405
0.2 -0.0366246
0.21 -0.0370078
0.22 -0.0357907
0.23 -0.0330421
0.24 -0.0289097
0.25 -0.023615
0.26 -0.017445
0.27 -0.0107266
0.28 -0.00392746
0.29 0.0025367
0.3 0.00826262
0.31 0.0128679
0.32 0.0160096
0.33 0.0173416
0.34 0.0165265
0.35 0.0136218
0.36 0.00862963
0.37 0.00165743
0.38 -0.00708106
0.39 -0.017269
0.4 -0.0285379
0.41 -0.040263
0.42 -0.0518323
0.43 -0.0626243
0.44 -0.0719977
0.45 -0.0793155
0.46 -0.0839057
0.47 -0.084904
0.48 -0.0821323
0.49 -0.075249
0.5 -0.0640369
0.51 -0.0484173
0.52 -0.0284595
0.53 -0.004115
0.54 0.0240471
0.55 0.0552863
0.56 0.0889125
0.57 0.124123
0.58 0.160026
0.59 0.195651
0.6 0.229756
0.61 0.261394
0.62 0.289606
0.63 0.313496
0.64 0.332265
0.65 0.345234
0.66 0.351453
0.67 0.350562
0.68 0.342771
0.69 0.328122
0.7 0.306839
0.71 0.27933
0.72 0.246168
0.73 0.207612
0.74 0.165174
0.75 0.119847
0.76 0.0726798
0.77 0.0247525
0.78 -0.0228522
0.79 -0.0689604
0.8 -0.112409
0.81 -0.152434
0.82 -0.18829
0.83 -0.219377
0.84 -0.24525
0.85 -0.265634
0.86 -0.279852
0.87 -0.28851
0.88 -0.291954
0.89 -0.290599
0.9 -0.284986
0.91 -0.27576
0.92 -0.263566
0.93 -0.249216
0.94 -0.233727
0.95 -0.217891
0.96 -0.202462
0.97 -0.188131
0.98 -0.175507
0.99 -0.165342
1 -0.157903
1.01 -0.153371
1.02 -0.151858
1.03 -0.153348
1.04 -0.157713
1.05 -0.164778
1.06 -0.174299
1.07 -0.185624
1.08 -0.198283
1.09 -0.211776
1.1 -0.225598
1.11 -0.239256
1.12 -0.252205
1.13 -0.264022
1.14 -0.274406
1.15 -0.283111
1.16 -0.289973
1.17 -0.29492
1.18 -0.297931
1.19 -0.298972
1.2 -0.298418
1.21 -0.296514
1.22 -0.293551
1.23 -0.289848
1.24 -0.28574
1.25 -0.281577
1.26 -0.277713
1.27 -0.274419
1.28 -0.271916
1.29 -0.270367
1.3 -0.269871
1.31 -0.270464
1.32 -0.272207
1.33 -0.274858
1.34 -0.27824
1.35 -0.28213
1.36 -0.286265
1.37 -0.290361
1.38 -0.294088
1.39 -0.297117
1.4 -0.299208
1.41 -0.30014
1.42 -0.299738
1.43 -0.297886
1.44 -0.294531
1.45 -0.289531
1.46 -0.283153
1.47 -0.275573
1.48 -0.267019
1.49 -0.257772
1.5 -0.24815
1.51 -0.238517
1.52 -0.229291
1.53 -0.220821
1.54 -0.213439
1.55 -0.207436
1.56 -0.203057
1.57 -0.200482
1.58 -0.200023
1.59 -0.201542
1.6 -0.204941
1.61 -0.210078
1.62 -0.216734
1.63 -0.224623
1.64 -0.233417
1.65 -0.242689
1.66 -0.251946
1.67 -0.260749
1.68 -0.268665
1.69 -0.275283
1.7 -0.280226
1.71 -0.282968
1.72 -0.283353
1.73 -0.281272
1.74 -0.276643
1.75 -0.269466
1.76 -0.259831
1.77 -0.247854
1.78 -0.23369
1.79 -0.217874
1.8 -0.200787
1.81 -0.182845
1.82 -0.164489
1.83 -0.146163
1.84 -0.12837
1.85 -0.111547
1.86 -0.096024
1.87 -0.0820959
1.88 -0.0699891
1.89 -0.0598553
1.9 -0.051798
1.91 -0.0459782
1.92 -0.04208
1.93 -0.0399277
1.94 -0.0392841
1.95 -0.0398616
1.96 -0.0413354
1.97 -0.0433699
1.98 -0.0455493
1.99 -0.047508
2 -0.0489328
2.01 -0.0495525
2.02 -0.0491489
2.03 -0.047563
2.04 -0.0445712
2.05 -0.0403228
2.06 -0.0349062
2.07 -0.0284832
2.08 -0.0212832
2.09 -0.0135946
2.1 -0.00576775
2.11 0.0017627
2.12 0.00859491
2.13 0.0143322
2.14 0.0185925
2.15 0.0210238
2.16 0.0213181
2.17 0.0189421
2.18 0.0139522
2.19 0.00628063
2.2 -0.00407653
2.21 -0.0170399
2.22 -0.0324484
2.23 -0.0501489
2.24 -0.0698275
2.25 -0.0909465
2.26 -0.113079
2.27 -0.135768
2.28 -0.158542
2.29 -0.180931
2.3 -0.202355
2.31 -0.222419
2.32 -0.240777
2.33 -0.257126
2.34 -0.271232
2.35 -0.282936
2.36 -0.292075
2.37 -0.29854
2.38 -0.302638
2.39 -0.30454
2.4 -0.304484
2.41 -0.302758
2.42 -0.299695
2.43 -0.295604
2.44 -0.290968
2.45 -0.286192
2.46 -0.281635
2.47 -0.277633
2.48 -0.27448
2.49 -0.272451
2.5 -0.271845
2.51 -0.272667
2.52 -0.274966
2.53 -0.278726
2.54 -0.283873
2.55 -0.290277
2.56 -0.297823
2.57 -0.30622
2.58 -0.315172
2.59 -0.324406
2.6 -0.333649
2.61 -0.342629
2.62 -0.351084
2.63 -0.358691
2.64 -0.365323
2.65 -0.370836
2.66 -0.375129
2.67 -0.378149
2.68 -0.379889
2.69 -0.380313
2.7 -0.379534
2.71 -0.377744
2.72 -0.375095
2.73 -0.37176
2.74 -0.367928
2.75 -0.363787
2.76 -0.359532
2.77 -0.355364
2.78 -0.351434
2.79 -0.347864
2.8 -0.344752
2.81 -0.342159
2.82 -0.340144
2.83 -0.338703
2.84 -0.337759
2.85 -0.33724
2.86 -0.337056
2.87 -0.337098
2.88 -0.337244
2.89 -0.337355
2.9 -0.337295
2.91 -0.336952
2.92 -0.336223
2.93 -0.335023
2.94 -0.33329
2.95 -0.330953
2.96 -0.327974
2.97 -0.324403
2.98 -0.320264
2.99 -0.315597
3 -0.310452
3.01 -0.304886
3.02 -0.298925
3.03 -0.292651
3.04 -0.28611
3.05 -0.27932
3.06 -0.27228
3.07 -0.264966
3.08 -0.257314
3.09 -0.24921
3.1 -0.240573
3.11 -0.23127
3.12 -0.221147
3.13 -0.210039
3.14 -0.197771
3.15 -0.184039
3.16 -0.168722
3.17 -0.151712
3.18 -0.132882
3.19 -0.112133
3.2 -0.0894025
3.21 -0.0646293
3.22 -0.0376999
3.23 -0.00889528
3.24 0.0216464
3.25 0.0537382
3.26 0.0871465
3.27 0.121596
3.28 0.1568
3.29 0.192344
3.3 0.227828
3.31 0.262871
3.32 0.297092
3.33 0.330117
3.34 0.361569
3.35 0.390894
3.36 0.417978
3.37 0.442573
3.38 0.464478
3.39 0.48354
3.4 0.499659
3.41 0.512601
3.42 0.522401
3.43 0.529287
3.44 0.533366
3.45 0.534781
3.46 0.533708
3.47 0.530345
3.48 0.524697
3.49 0.517246
3.5 0.508224
3.51 0.49785
3.52 0.486334
3.53 0.473869
3.54 0.460596
3.55 0.446674
3.56 0.432272
3.57 0.417486
3.58 0.402389
3.59 0.387035
3.6 0.371461
3.61 0.355675
3.62 0.339712
3.63 0.323589
3.64 0.307323
3.65 0.290937
3.66 0.274468
3.67 0.257966
3.68 0.241511
3.69 0.225192
3.7 0.209119
3.71 0.193416
3.72 0.178224
3.73 0.163698
3.74 0.150094
3.75 0.137546
3.76 0.126201
3.77 0.116226
3.78 0.107774
3.79 0.100984
3.8 0.0960342
3.81 0.0931407
3.82 0.0922101
3.83 0.0932787
3.84 0.096353
3.85 0.10141
3.86 0.108398
3.87 0.117382
3.88 0.128154
3.89 0.140518
3.9 0.15433
3.91 0.16943
3.92 0.185652
3.93 0.20284
3.94 0.220867
3.95 0.239478
3.96 0.258521
3.97 0.277851
3.98 0.297339
3.99 0.316869
4 0.336329
4.01 0.355623
4.02 0.374682
4.03 0.393447
4.04 0.411863
4.05 0.429884
4.06 0.447461
4.07 0.464495
4.08 0.480986
4.09 0.49688
4.1 0.512114
4.11 0.526619
4.12 0.540313
4.13 0.553048
4.14 0.564711
4.15 0.575248
4.16 0.584547
4.17 0.592496
4.18 0.598981
4.19 0.603895
4.2 0.606939
4.21 0.608202
4.22 0.607621
4.23 0.605143
4.24 0.600739
4.25 0.594398
4.26 0.586042
4.27 0.575679
4.28 0.563505
4.29 0.549605
4.3 0.534082
4.31 0.517055
4.32 0.498656
4.33 0.478912
4.34 0.458091
4.35 0.436356
4.36 0.413846
4.37 0.390695
4.38 0.367023
4.39 0.342928
4.4 0.318502
4.41 0.293847
4.42 0.269021
4.43 0.244065
4.44 0.219003
4.45 0.193851
4.46 0.168605
4.47 0.143266
4.48 0.117829
4.49 0.0922907
4.5 0.0666493
4.51 0.0409121
4.52 0.0150956
4.53 -0.0107662
4.54 -0.0366168
4.55 -0.0623901
4.56 -0.088004
4.57 -0.113361
4.58 -0.138351
4.59 -0.1628
4.6 -0.18658
4.61 -0.209573
4.62 -0.231641
4.63 -0.252652
4.64 -0.272481
4.65 -0.290995
4.66 -0.307969
4.67 -0.323468
4.68 -0.337445
4.69 -0.349882
4.7 -0.360783
4.71 -0.370183
4.72 -0.378048
4.73 -0.384508
4.74 -0.389747
4.75 -0.393894
4.76 -0.397097
4.77 -0.399512
4.78 -0.401299
4.79 -0.402591
4.8 -0.403613
4.81 -0.404512
4.82 -0.405422
4.83 -0.406461
4.84 -0.407725
4.85 -0.409309
4.86 -0.411268
4.87 -0.413602
4.88 -0.416307
4.89 -0.419355
4.9 -0.422699
4.91 -0.426273
4.92 -0.430001
4.93 -0.433767
4.94 -0.437468
4.95 -0.441001
4.96 -0.444264
4.97 -0.447158
4.98 -0.44957
4.99 -0.451396
5 -0.452607
5.01 -0.453154
5.02 -0.453003
5.03 -0.452137
5.04 -0.450551
5.05 -0.448186
5.06 -0.445127
5.07 -0.441419
5.08 -0.437105
5.09 -0.43223
5.1 -0.426844
5.11 -0.42098
5.12 -0.414673
5.13 -0.408004
5.14 -0.401011
5.15 -0.393725
5.16 -0.386173
5.17 -0.378377
5.18 -0.370331
5.19 -0.362063
5.2 -0.353585
5.21 -0.344905
5.22 -0.33603
5.23 -0.326971
5.24 -0.317738
5.25 -0.308346
5.26 -0.298837
5.27 -0.28925
5.28 -0.279629
5.29 -0.270028
5.3 -0.260509
5.31 -0.251154
5.32 -0.242044
5.33 -0.233246
5.34 -0.22484
5.35 -0.216899
5.36 -0.209495
5.37 -0.202701
5.38 -0.196638
5.39 -0.191283
5.4 -0.186663
5.41 -0.182793
5.42 -0.179671
5.43 -0.17728
5.44 -0.175632
5.45 -0.17466
5.46 -0.174268
5.47 -0.174385
5.48 -0.174929
5.49 -0.175815
5.5 -0.176955
5.51 -0.178268
5.52 -0.179642
5.53 -0.180998
5.54 -0.182264
5.55 -0.183377
5.56 -0.184283
5.57 -0.184928
5.58 -0.185275
5.59 -0.185325
5.6 -0.185069
5.61 -0.184508
5.62 -0.18365
5.63 -0.182504
5.64 -0.181054
5.65 -0.179339
5.66 -0.177366
5.67 -0.175136
5.68 -0.17264
5.69 -0.169862
5.7 -0.166759
5.71 -0.163275
5.72 -0.159385
5.73 -0.15503
5.74 -0.150143
5.75 -0.144656
5.76 -0.138498
5.77 -0.131518
5.78 -0.123703
5.79 -0.115012
5.8 -0.105403
5.81 -0.0948476
5.82 -0.0833361
5.83 -0.0708481
5.84 -0.0573757
5.85 -0.0430577
5.86 -0.027976
5.87 -0.0122332
5.88 0.0040487
5.89 0.0207311
5.9 0.0376689
5.91 0.0546654
5.92 0.0715458
5.93 0.0881434
5.94 0.104297
5.95 0.119854
5.96 0.13466
5.97 0.148521
5.98 0.16142
5.99 0.173293
6 0.184101
6.01 0.193836
6.02 0.202516
6.03 0.210114
6.04 0.216746
6.05 0.222549
6.06 0.227633
6.07 0.232122
6.08 0.236145
6.09 0.239829
6.1 0.243297
6.11 0.246696
6.12 0.250123
6.13 0.253658
6.14 0.257357
6.15 0.26125
6.16 0.265351
6.17 0.269626
6.18 0.274002
6.19 0.278395
6.2 0.282696
6.21 0.286777
6.22 0.290494
6.23 0.293617
6.24 0.29603
6.25 0.29758
6.26 0.298116
6.27 0.297504
6.28 0.295625
6.29 0.29231
6.3 0.287466
6.31 0.281149
6.32 0.273357
6.33 0.26412
6.34 0.253497
6.35 0.241576
6.36 0.228361
6.37 0.214118
6.38 0.19902
6.39 0.183239
6.4 0.166954
6.41 0.150344
6.42 0.133589
6.43 0.116879
6.44 0.100372
6.45 0.0841999
6.46 0.0684717
6.47 0.053272
6.48 0.0386599
6.49 0.0247272
6.5 0.0114316
6.51 -0.00126534
6.52 -0.0134102
6.53 -0.025068
6.54 -0.0363189
6.55 -0.0472476
6.56 -0.0579531
6.57 -0.0685607
6.58 -0.0791662
6.59 -0.0898572
6.6 -0.10071
6.61 -0.111786
6.62 -0.123153
6.63 -0.134823
6.64 -0.146783
6.65 -0.159011
6.66 -0.171464
6.67 -0.18408
6.68 -0.196779
6.69 -0.20945
6.7 -0.22198
6.71 -0.234251
6.72 -0.246141
6.73 -0.257529
6.74 -0.268294
6.75 -0.27826
6.76 -0.287326
6.77 -0.295432
6.78 -0.302496
6.79 -0.30845
6.8 -0.313239
6.81 -0.316812
6.82 -0.319016
6.83 -0.319971
6.84 -0.319675
6.85 -0.318135
6.86 -0.315367
6.87 -0.311388
6.88 -0.306151
6.89 -0.299688
6.9 -0.292089
6.91 -0.283374
6.92 -0.27356
6.93 -0.262663
6.94 -0.250691
6.95 -0.237531
6.96 -0.223305
6.97 -0.208017
6.98 -0.191669
6.99 -0.174263
7 -0.155804
7.01 -0.136248
7.02 -0.115598
7.03 -0.0939474
7.04 -0.0713289
7.05 -0.0477855
7.06 -0.0233704
7.07 0.00185276
7.08 0.0278767
7.09 0.054541
7.1 0.0817398
7.11 0.10937
7.12 0.137321
7.13 0.16548
7.14 0.193727
7.15 0.221926
7.16 0.249954
7.17 0.277697
7.18 0.305044
7.19 0.331891
7.2 0.358137
7.21 0.38362
7.22 0.408293
7.23 0.432099
7.24 0.454968
7.25 0.476839
7.26 0.497654
7.27 0.517328
7.28 0.535735
7.29 0.552928
7.3 0.56886
7.31 0.583484
7.32 0.596752
7.33 0.608615
7.34 0.618899
7.35 0.627608
7.36 0.634739
7.37 0.640237
7.38 0.644044
7.39 0.646108
7.4 0.646344
7.41 0.64455
7.42 0.640867
7.43 0.635267
7.44 0.627734
7.45 0.618261
7.46 0.606857
7.47 0.593416
7.48 0.57803
7.49 0.560849
7.5 0.541952
7.51 0.521431
7.52 0.499398
7.53 0.475969
7.54 0.451167
7.55 0.425296
7.56 0.398515
7.57 0.370991
7.58 0.342895
7.59 0.3144
7.6 0.285674
7.61 0.256915
7.62 0.228295
7.63 0.199972
7.64 0.172092
7.65 0.144794
7.66 0.118204
7.67 0.0925413
7.68 0.0678282
7.69 0.0441485
7.7 0.0215779
7.71 0.000180717
7.72 -0.0199899
7.73 -0.0388292
7.74 -0.0562731
7.75 -0.0723889
7.76 -0.0871639
7.77 -0.100593
7.78 -0.11268
7.79 -0.123432
7.8 -0.132736
7.81 -0.140728
7.82 -0.14746
7.83 -0.152967
7.84 -0.157291
7.85 -0.160478
7.86 -0.162545
7.87 -0.163513
7.88 -0.163533
7.89 -0.162673
7.9 -0.161006
7.91 -0.158607
7.92 -0.155553
7.93 -0.151879
7.94 -0.147709
7.95 -0.143133
7.96 -0.138227
7.97 -0.133059
7.98 -0.127694
7.99 -0.122188
8 -0.116592
8.01 -0.110959
8.02 -0.105322
8.03 -0.0997035
8.04 -0.0941213
8.05 -0.0885838
8.06 -0.083096
8.07 -0.0776508
8.08 -0.0722374
8.09 -0.0668441
8.1 -0.0614585
8.11 -0.0560692
8.12 -0.0506667
8.13 -0.0452448
8.14 -0.0398072
8.15 -0.0343632
8.16 -0.0289294
8.17 -0.0235309
8.18 -0.0182003
8.19 -0.0129886
8.2 -0.00794898
8.21 -0.00312952
8.22 0.00141245
8.23 0.00561822
8.24 0.00942973
8.25 0.0127902
8.26 0.0155898
8.27 0.0178412
8.28 0.0195152
8.29 0.0205944
8.3 0.0210753
8.31 0.0209683
8.32 0.0202699
8.33 0.019027
8.34 0.0173316
8.35 0.0152548
8.36 0.012878
8.37 0.0102911
8.38 0.00758901
8.39 0.00487808
8.4 0.0022653
8.41 -0.000159376
8.42 -0.00231502
8.43 -0.00413281
8.44 -0.0055589
8.45 -0.00653665
8.46 -0.00703783
8.47 -0.00710312
8.48 -0.00676335
8.49 -0.00607032
8.5 -0.00509566
8.51 -0.00392908
8.52 -0.00267918
8.53 -0.00148566
8.54 -0.000478329
8.55 0.000210791
8.56 0.000450281
8.57 0.000113672
8.58 -0.000943847
8.59 -0.00287716
8.6 -0.00570884
8.61 -0.0094997
8.62 -0.0142873
8.63 -0.0200847
8.64 -0.0268792
8.65 -0.034711
8.66 -0.0434507
8.67 -0.0529789
8.68 -0.0631854
8.69 -0.0739441
8.7 -0.0851167
8.71 -0.0965598
8.72 -0.108113
8.73 -0.119607
8.74 -0.130902
8.75 -0.141871
8.76 -0.152399
8.77 -0.162392
8.78 -0.171724
8.79 -0.180361
8.8 -0.188307
8.81 -0.19556
8.82 -0.202144
8.83 -0.2081
8.84 -0.213484
8.85 -0.218333
8.86 -0.222794
8.87 -0.226959
8.88 -0.230924
8.89 -0.234779
8.9 -0.23861
8.91 -0.242499
8.92 -0.246513
8.93 -0.250689
8.94 -0.255048
8.95 -0.259592
8.96 -0.264305
8.97 -0.26915
8.98 -0.274075
8.99 -0.278992
9 -0.283817
9.01 -0.288458
9.02 -0.292818
9.03 -0.296798
9.04 -0.300274
9.05 -0.303139
9.06 -0.305352
9.07 -0.306853
9.08 -0.307599
9.09 -0.307566
9.1 -0.306751
9.11 -0.30509
9.12 -0.302699
9.13 -0.299646
9.14 -0.296004
9.15 -0.291859
9.16 -0.28731
9.17 -0.282452
9.18 -0.277401
9.19 -0.272284
9.2 -0.267201
9.21 -0.262243
9.22 -0.257491
9.23 -0.253009
9.24 -0.248883
9.25 -0.245122
9.26 -0.241729
9.27 -0.238699
9.28 -0.236009
9.29 -0.233622
9.3 -0.231496
9.31 -0.229575
9.32 -0.227771
9.33 -0.226016
9.34 -0.224242
9.35 -0.222387
9.36 -0.220392
9.37 -0.218191
9.38 -0.215756
9.39 -0.213071
9.4 -0.210132
9.41 -0.206943
9.42 -0.203526
9.43 -0.199909
9.44 -0.196127
9.45 -0.19225
9.46 -0.188333
9.47 -0.184431
9.48 -0.180597
9.49 -0.17688
9.5 -0.173334
9.51 -0.169986
9.52 -0.166841
9.53 -0.163898
9.54 -0.161138
9.55 -0.158525
9.56 -0.156011
9.57 -0.153521
9.58 -0.150965
9.59 -0.148248
9.6 -0.145272
9.61 -0.141929
9.62 -0.138114
9.63 -0.13368
9.64 -0.12852
9.65 -0.122579
9.66 -0.115784
9.67 -0.108076
9.68 -0.0994158
9.69 -0.0897798
9.7 -0.0790541
9.71 -0.0673717
9.72 -0.054774
9.73 -0.0413179
9.74 -0.0270751
9.75 -0.0121297
9.76 0.00345022
9.77 0.0195556
9.78 0.0360436
9.79 0.0528108
9.8 0.0697578
9.81 0.0867918
9.82 0.103829
9.83 0.120781
9.84 0.137591
9.85 0.154213
9.86 0.170616
9.87 0.18678
9.88 0.202696
9.89 0.218354
9.9 0.233754
9.91 0.248927
9.92 0.263888
9.93 0.278648
9.94 0.293215
9.95 0.307591
9.96 0.321749
9.97 0.33568
9.98 0.349358
9.99 0.362738
10 0.375766
10.01 0.388375
10.02 0.400473
10.03 0.411931
10.04 0.422706
10.05 0.43271
10.06 0.441854
10.07 0.45006
10.08 0.457254
10.09 0.463285
10.1 0.468158
10.11 0.471888
10.12 0.474473
10.13 0.475934
10.14 0.476311
10.15 0.47565
10.16 0.473971
10.17 0.471481
10.18 0.468301
10.19 0.464565
10.2 0.460415
10.21 0.455999
10.22 0.451466
10.23 0.446982
10.24 0.442685
10.25 0.438693
10.26 0.435109
10.27 0.432017
10.28 0.429483
10.29 0.427606
10.3 0.42633
10.31 0.425637
10.32 0.425484
10.33 0.425807
10.34 0.426522
10.35 0.427536
10.36 0.428713
10.37 0.429911
10.38 0.430995
10.39 0.431834
10.4 0.432294
10.41 0.432253
10.42 0.431514
10.43 0.430037
10.44 0.427742
10.45 0.424566
10.46 0.420463
10.47 0.415406
10.48 0.40934
10.49 0.402261
10.5 0.394262
10.51 0.385387
10.52 0.375689
10.53 0.365229
10.54 0.354075
10.55 0.342241
10.56 0.329856
10.57 0.316998
10.58 0.303728
10.59 0.290099
10.6 0.276159
10.61 0.261937
10.62 0.247454
10.63 0.232749
10.64 0.217834
10.65 0.202712
10.66 0.187383
10.67 0.171845
10.68 0.156071
10.69 0.140072
10.7 0.123852
10.71 0.107416
10.72 0.0907746
10.73 0.0739436
10.74 0.0569444
10.75 0.0398065
10.76 0.0225862
10.77 0.00533216
10.78 -0.0119016
10.79 -0.0290571
10.8 -0.0460738
10.81 -0.0628707
10.82 -0.0793903
10.83 -0.0955871
10.84 -0.111414
10.85 -0.126834
10.86 -0.141817
10.87 -0.156338
10.88 -0.170354
10.89 -0.183919
10.9 -0.197055
10.91 -0.209793
10.92 -0.222173
10.93 -0.234245
10.94 -0.24605
10.95 -0.257658
10.96 -0.269139
10.97 -0.280548
10.98 -0.291934
10.99 -0.30334
11 -0.314797
11.01 -0.326331
11.02 -0.337939
11.03 -0.349607
11.04 -0.361306
11.05 -0.372993
11.06 -0.384609
11.07 -0.39607
11.08 -0.407279
11.09 -0.418152
11.1 -0.428589
11.11 -0.438488
11.12 -0.447747
11.13 -0.456269
11.14 -0.463859
11.15 -0.470515
11.16 -0.476174
11.17 -0.480782
11.18 -0.484301
11.19 -0.486708
11.2 -0.487948
11.21 -0.488009
11.22 -0.487004
11.23 -0.484977
11.24 -0.481987
11.25 -0.478104
11.26 -0.473403
11.27 -0.467901
11.28 -0.461749
11.29 -0.455041
11.3 -0.447853
11.31 -0.440254
11.32 -0.432303
11.33 -0.424041
11.34 -0.415494
11.35 -0.406707
11.36 -0.397687
11.37 -0.388428
11.38 -0.378913
11.39 -0.369116
11.4 -0.35897
11.41 -0.348449
11.42 -0.337516
11.43 -0.32613
11.44 -0.314248
11.45 -0.301837
11.46 -0.288856
11.47 -0.275248
11.48 -0.261066
11.49 -0.246322
11.5 -0.231045
11.51 -0.215278
11.52 -0.199079
11.53 -0.182498
11.54 -0.165648
11.55 -0.148639
11.56 -0.131579
11.57 -0.11458
11.58 -0.0977563
11.59 -0.0812289
11.6 -0.0651606
11.61 -0.0496242
11.62 -0.0347164
11.63 -0.0205232
11.64 -0.00711752
11.65 0.00544179
11.66 0.0170506
11.67 0.0276937
11.68 0.0374099
11.69 0.046208
11.7 0.0541118
11.71 0.0611584
11.72 0.0673953
11.73 0.0728052
11.74 0.0775486
11.75 0.0816998
11.76 0.0853356
11.77 0.0885335
11.78 0.0913696
11.79 0.0939042
11.8 0.0962125
11.81 0.0983701
11.82 0.100427
11.83 0.102425
11.84 0.104394
11.85 0.106358
11.86 0.108329
11.87 0.110309
11.88 0.112288
11.89 0.114253
11.9 0.11618
11.91 0.118041
11.92 0.119798
11.93 0.121405
11.94 0.122829
11.95 0.12403
11.96 0.124965
11.97 0.125593
11.98 0.125871
11.99 0.125718
12 0.125119
12.01 0.124043
12.02 0.122454
12.03 0.120316
12.04 0.117595
12.05 0.114236
12.06 0.11017
12.07 0.10542
12.08 0.0999598
12.09 0.0937623
12.1 0.0868053
12.11 0.0790691
12.12 0.0704687
12.13 0.0610361
12.14 0.0507918
12.15 0.0397383
12.16 0.0278853
12.17 0.0152509
