# xPDFsuite Configuration #
[PDF]
wavelength = 0.1
dataformat = QA
inputfile = BiMsol6_insitu_700 C-00640.xy
backgroundfile = Quartz2mm-dist500-00000.xy
mode = xray
bgscale = 0.0042
composition = Bi2Fe4O9
outputtype = gr
qmaxinst = 24.998449118
qmin = 0.1
qmax = 21.4986662415
rmax = 80.0
rmin = 0.0
rstep = 0.01
rpoly = 0.9

[Misc]
inputdir = C:/Data/Seafile/CPH/Beamtime/Desy Oct 20/In situ data/Processed/BiMsol6/PDF
savedir = C:/Data/Seafile/CPH/Beamtime/Desy Oct 20/In situ data/PDF/BiMsol6
backgroundfilefull = C:/Data/Seafile/CPH/Beamtime/Desy Oct 20/In situ data/Processed/Standard_Empty_Cap/Quartz2mm-dist500-00000.xy

#### start data
#S 1
#L r($\AA$)  G($\AA^{-2}$)
0 0
0.01 0.00606978
0.02 0.0117932
0.03 0.0168739
0.04 0.0210461
0.05 0.024087
0.06 0.0258269
0.07 0.0260808
0.08 0.0247956
0.09 0.0221097
0.1 0.0181373
0.11 0.0130549
0.12 0.00709328
0.13 0.000527685
0.14 -0.00633184
0.15 -0.0130982
0.16 -0.0194447
0.17 -0.025065
0.18 -0.0296854
0.19 -0.0330782
0.2 -0.0350098
0.21 -0.035323
0.22 -0.0341161
0.23 -0.0314572
0.24 -0.0274894
0.25 -0.0224264
0.26 -0.0165441
0.27 -0.0101584
0.28 -0.00371597
0.29 0.0023856
0.3 0.00776067
0.31 0.0120439
0.32 0.0149084
0.33 0.0160239
0.34 0.0150693
0.35 0.0121036
0.36 0.00713209
0.37 0.000261492
0.38 -0.00829931
0.39 -0.0182422
0.4 -0.0292076
0.41 -0.0405913
0.42 -0.0518016
0.43 -0.0622366
0.44 -0.0712755
0.45 -0.0783015
0.46 -0.0826631
0.47 -0.0835205
0.48 -0.0807024
0.49 -0.073876
0.5 -0.062829
0.51 -0.0474826
0.52 -0.0279013
0.53 -0.0040322
0.54 0.0235754
0.55 0.0542046
0.56 0.0871886
0.57 0.121751
0.58 0.157025
0.59 0.192072
0.6 0.225684
0.61 0.256937
0.62 0.284892
0.63 0.308671
0.64 0.327489
0.65 0.340673
0.66 0.347287
0.67 0.346963
0.68 0.339891
0.69 0.326092
0.7 0.30577
0.71 0.279302
0.72 0.247232
0.73 0.209783
0.74 0.168424
0.75 0.124113
0.76 0.0778657
0.77 0.0307302
0.78 -0.0162382
0.79 -0.0618979
0.8 -0.105108
0.81 -0.145099
0.82 -0.18113
0.83 -0.212593
0.84 -0.239034
0.85 -0.260156
0.86 -0.27527
0.87 -0.284937
0.88 -0.289466
0.89 -0.289235
0.9 -0.284747
0.91 -0.27661
0.92 -0.265427
0.93 -0.251969
0.94 -0.237231
0.95 -0.221982
0.96 -0.206958
0.97 -0.192841
0.98 -0.180235
0.99 -0.169877
1 -0.16206
1.01 -0.156986
1.02 -0.154789
1.03 -0.155482
1.04 -0.158963
1.05 -0.165091
1.06 -0.173656
1.07 -0.184044
1.08 -0.195814
1.09 -0.208493
1.1 -0.221599
1.11 -0.234658
1.12 -0.247149
1.13 -0.258649
1.14 -0.268854
1.15 -0.277512
1.16 -0.284449
1.17 -0.289577
1.18 -0.292857
1.19 -0.294237
1.2 -0.294058
1.21 -0.292544
1.22 -0.289959
1.23 -0.286602
1.24 -0.282789
1.25 -0.278848
1.26 -0.275123
1.27 -0.271884
1.28 -0.269349
1.29 -0.267688
1.3 -0.267007
1.31 -0.267358
1.32 -0.268815
1.33 -0.271165
1.34 -0.274253
1.35 -0.277879
1.36 -0.281803
1.37 -0.285765
1.38 -0.289458
1.39 -0.292571
1.4 -0.294873
1.41 -0.296146
1.42 -0.296217
1.43 -0.294966
1.44 -0.292331
1.45 -0.288166
1.46 -0.282706
1.47 -0.276102
1.48 -0.268559
1.49 -0.260329
1.5 -0.251702
1.51 -0.243009
1.52 -0.234639
1.53 -0.226921
1.54 -0.220166
1.55 -0.21465
1.56 -0.210608
1.57 -0.208214
1.58 -0.207765
1.59 -0.209142
1.6 -0.212262
1.61 -0.216997
1.62 -0.223149
1.63 -0.230454
1.64 -0.238608
1.65 -0.247211
1.66 -0.2558
1.67 -0.263961
1.68 -0.271282
1.69 -0.277372
1.7 -0.28187
1.71 -0.28427
1.72 -0.284418
1.73 -0.282204
1.74 -0.277541
1.75 -0.270424
1.76 -0.26093
1.77 -0.249162
1.78 -0.235259
1.79 -0.21973
1.8 -0.202938
1.81 -0.185279
1.82 -0.167176
1.83 -0.149055
1.84 -0.131403
1.85 -0.114644
1.86 -0.0991084
1.87 -0.0850862
1.88 -0.0728059
1.89 -0.0624246
1.9 -0.0540532
1.91 -0.0478609
1.92 -0.0435524
1.93 -0.0409672
1.94 -0.0398838
1.95 -0.0400305
1.96 -0.0410969
1.97 -0.0427636
1.98 -0.044626
1.99 -0.0463236
2 -0.0475472
2.01 -0.0480257
2.02 -0.0475384
2.03 -0.0459203
2.04 -0.0429421
2.05 -0.0387358
2.06 -0.0333767
2.07 -0.0270124
2.08 -0.0198583
2.09 -0.0121895
2.1 -0.00434177
2.11 0.00326085
2.12 0.0102199
2.13 0.0161409
2.14 0.0206404
2.15 0.0233609
2.16 0.0239851
2.17 0.0219682
2.18 0.0173458
2.19 0.0100307
2.2 -1.72614e-06
2.21 -0.0126933
2.22 -0.0279041
2.23 -0.0455061
2.24 -0.065208
2.25 -0.0864787
2.26 -0.108901
2.27 -0.132021
2.28 -0.155369
2.29 -0.178468
2.3 -0.200736
2.31 -0.22175
2.32 -0.241138
2.33 -0.25857
2.34 -0.273781
2.35 -0.286581
2.36 -0.296768
2.37 -0.304195
2.38 -0.30914
2.39 -0.311746
2.4 -0.312226
2.41 -0.31085
2.42 -0.307937
2.43 -0.303772
2.44 -0.29885
2.45 -0.293591
2.46 -0.288371
2.47 -0.283546
2.48 -0.279437
2.49 -0.276351
2.5 -0.274622
2.51 -0.2743
2.52 -0.275472
2.53 -0.27816
2.54 -0.282323
2.55 -0.28786
2.56 -0.294697
2.57 -0.302557
2.58 -0.311148
2.59 -0.320202
2.6 -0.329442
2.61 -0.338585
2.62 -0.347353
2.63 -0.355407
2.64 -0.362575
2.65 -0.368681
2.66 -0.373587
2.67 -0.377205
2.68 -0.379493
2.69 -0.380375
2.7 -0.379933
2.71 -0.378341
2.72 -0.375735
2.73 -0.372281
2.74 -0.368164
2.75 -0.363581
2.76 -0.358726
2.77 -0.353841
2.78 -0.349104
2.79 -0.344674
2.8 -0.340684
2.81 -0.337234
2.82 -0.334429
2.83 -0.332308
2.84 -0.330824
2.85 -0.329937
2.86 -0.329576
2.87 -0.329649
2.88 -0.330043
2.89 -0.330638
2.9 -0.331267
2.91 -0.331791
2.92 -0.33208
2.93 -0.332016
2.94 -0.33149
2.95 -0.330389
2.96 -0.328617
2.97 -0.326173
2.98 -0.323036
2.99 -0.319201
3 -0.31468
3.01 -0.309499
3.02 -0.303635
3.03 -0.297176
3.04 -0.290172
3.05 -0.282652
3.06 -0.274634
3.07 -0.266124
3.08 -0.257092
3.09 -0.247469
3.1 -0.237243
3.11 -0.226336
3.12 -0.214654
3.13 -0.202088
3.14 -0.188519
3.15 -0.173714
3.16 -0.15759
3.17 -0.140066
3.18 -0.121036
3.19 -0.100415
3.2 -0.078142
3.21 -0.0541523
3.22 -0.0283299
3.23 -0.000891506
3.24 0.0280671
3.25 0.0584085
3.26 0.0899543
3.27 0.122487
3.28 0.155786
3.29 0.189501
3.3 0.223286
3.31 0.256811
3.32 0.289735
3.33 0.321715
3.34 0.352401
3.35 0.38128
3.36 0.408203
3.37 0.432911
3.38 0.455179
3.39 0.474822
3.4 0.491701
3.41 0.50554
3.42 0.516317
3.43 0.524198
3.44 0.529241
3.45 0.53154
3.46 0.531229
3.47 0.528469
3.48 0.523211
3.49 0.515943
3.5 0.50689
3.51 0.496277
3.52 0.484331
3.53 0.471271
3.54 0.457267
3.55 0.442529
3.56 0.427283
3.57 0.41168
3.58 0.395847
3.59 0.379892
3.6 0.363903
3.61 0.347959
3.62 0.332115
3.63 0.316411
3.64 0.300877
3.65 0.285542
3.66 0.270432
3.67 0.255586
3.68 0.241055
3.69 0.226862
3.7 0.213059
3.71 0.19971
3.72 0.186891
3.73 0.174686
3.74 0.163266
3.75 0.152698
3.76 0.143074
3.77 0.134506
3.78 0.127106
3.79 0.120982
3.8 0.116279
3.81 0.113185
3.82 0.111653
3.83 0.111743
3.84 0.113499
3.85 0.116944
3.86 0.122084
3.87 0.129037
3.88 0.137682
3.89 0.147902
3.9 0.15962
3.91 0.172745
3.92 0.187171
3.93 0.202801
3.94 0.219576
3.95 0.237247
3.96 0.255674
3.97 0.274718
3.98 0.294236
3.99 0.314087
4 0.334139
4.01 0.354234
4.02 0.374234
4.03 0.394016
4.04 0.413458
4.05 0.432447
4.06 0.450867
4.07 0.468529
4.08 0.485397
4.09 0.501373
4.1 0.516361
4.11 0.530273
4.12 0.54302
4.13 0.554441
4.14 0.564451
4.15 0.573052
4.16 0.580182
4.17 0.585785
4.18 0.589816
4.19 0.592239
4.2 0.592843
4.21 0.591795
4.22 0.589105
4.23 0.584786
4.24 0.578868
4.25 0.571391
4.26 0.562333
4.27 0.55174
4.28 0.539784
4.29 0.526544
4.3 0.512102
4.31 0.496542
4.32 0.479949
4.33 0.462316
4.34 0.443814
4.35 0.424527
4.36 0.40452
4.37 0.383849
4.38 0.36256
4.39 0.340671
4.4 0.318194
4.41 0.295193
4.42 0.271686
4.43 0.247682
4.44 0.223193
4.45 0.198229
4.46 0.172764
4.47 0.146852
4.48 0.120534
4.49 0.0938521
4.5 0.0668592
4.51 0.0396224
4.52 0.012221
4.53 -0.0152392
4.54 -0.0426322
4.55 -0.0698331
4.56 -0.0967071
4.57 -0.123111
4.58 -0.148899
4.59 -0.173848
4.6 -0.197826
4.61 -0.220725
4.62 -0.242418
4.63 -0.262794
4.64 -0.281759
4.65 -0.299215
4.66 -0.314978
4.67 -0.329182
4.68 -0.341835
4.69 -0.352972
4.7 -0.362649
4.71 -0.370952
4.72 -0.377902
4.73 -0.38367
4.74 -0.388453
4.75 -0.392401
4.76 -0.395667
4.77 -0.398403
4.78 -0.400759
4.79 -0.402864
4.8 -0.404882
4.81 -0.406921
4.82 -0.409068
4.83 -0.411392
4.84 -0.413936
4.85 -0.416737
4.86 -0.419791
4.87 -0.423055
4.88 -0.426485
4.89 -0.430017
4.9 -0.433578
4.91 -0.437085
4.92 -0.440422
4.93 -0.443504
4.94 -0.446246
4.95 -0.448568
4.96 -0.450398
4.97 -0.451678
4.98 -0.452333
4.99 -0.452318
5 -0.451664
5.01 -0.450379
5.02 -0.448482
5.03 -0.446008
5.04 -0.442999
5.05 -0.439466
5.06 -0.435514
5.07 -0.43121
5.08 -0.426612
5.09 -0.421776
5.1 -0.416746
5.11 -0.411558
5.12 -0.406235
5.13 -0.4008
5.14 -0.395253
5.15 -0.38958
5.16 -0.38376
5.17 -0.377758
5.18 -0.371511
5.19 -0.36498
5.2 -0.358125
5.21 -0.350901
5.22 -0.343269
5.23 -0.335198
5.24 -0.326655
5.25 -0.317603
5.26 -0.308098
5.27 -0.298171
5.28 -0.287869
5.29 -0.277258
5.3 -0.266418
5.31 -0.255446
5.32 -0.244471
5.33 -0.23362
5.34 -0.223019
5.35 -0.212798
5.36 -0.203081
5.37 -0.194001
5.38 -0.185747
5.39 -0.178345
5.4 -0.171871
5.41 -0.166381
5.42 -0.161911
5.43 -0.158473
5.44 -0.156119
5.45 -0.154792
5.46 -0.154378
5.47 -0.154794
5.48 -0.155944
5.49 -0.157714
5.5 -0.159982
5.51 -0.162643
5.52 -0.165511
5.53 -0.168454
5.54 -0.171345
5.55 -0.174067
5.56 -0.176514
5.57 -0.178567
5.58 -0.180137
5.59 -0.181189
5.6 -0.181684
5.61 -0.181596
5.62 -0.180914
5.63 -0.179644
5.64 -0.177737
5.65 -0.17528
5.66 -0.172306
5.67 -0.168849
5.68 -0.16494
5.69 -0.160609
5.7 -0.155866
5.71 -0.150719
5.72 -0.145205
5.73 -0.139323
5.74 -0.133065
5.75 -0.126412
5.76 -0.119341
5.77 -0.111774
5.78 -0.103708
5.79 -0.0951171
5.8 -0.0859691
5.81 -0.0762356
5.82 -0.0658958
5.83 -0.0549181
5.84 -0.0432734
5.85 -0.0310316
5.86 -0.0182252
5.87 -0.00490213
5.88 0.00887458
5.89 0.0230276
5.9 0.0374824
5.91 0.0521075
5.92 0.0667827
5.93 0.0813916
5.94 0.095816
5.95 0.10994
5.96 0.12364
5.97 0.136765
5.98 0.149268
5.99 0.161077
6 0.172136
6.01 0.182408
6.02 0.191875
6.03 0.20048
6.04 0.208272
6.05 0.215329
6.06 0.221705
6.07 0.227469
6.08 0.232695
6.09 0.237463
6.1 0.241828
6.11 0.245918
6.12 0.249804
6.13 0.253548
6.14 0.257197
6.15 0.260786
6.16 0.264324
6.17 0.267805
6.18 0.271201
6.19 0.274466
6.2 0.277533
6.21 0.280321
6.22 0.282737
6.23 0.284609
6.24 0.285871
6.25 0.286412
6.26 0.286121
6.27 0.284898
6.28 0.28265
6.29 0.279238
6.3 0.274582
6.31 0.268721
6.32 0.26164
6.33 0.25335
6.34 0.243884
6.35 0.233298
6.36 0.221568
6.37 0.2089
6.38 0.195422
6.39 0.181261
6.4 0.166551
6.41 0.151433
6.42 0.136042
6.43 0.120527
6.44 0.105035
6.45 0.0896781
6.46 0.0745578
6.47 0.0597567
6.48 0.0453392
6.49 0.0313937
6.5 0.017914
6.51 0.00489133
6.52 -0.00769082
6.53 -0.0198647
6.54 -0.0316757
6.55 -0.0431726
6.56 -0.0544142
6.57 -0.0654938
6.58 -0.0764785
6.59 -0.0874316
6.6 -0.0984095
6.61 -0.109459
6.62 -0.120627
6.63 -0.131927
6.64 -0.143359
6.65 -0.154909
6.66 -0.166545
6.67 -0.178223
6.68 -0.189881
6.69 -0.20143
6.7 -0.212788
6.71 -0.223861
6.72 -0.234553
6.73 -0.244763
6.74 -0.254392
6.75 -0.263288
6.76 -0.271366
6.77 -0.278576
6.78 -0.284846
6.79 -0.290113
6.8 -0.294327
6.81 -0.297439
6.82 -0.299308
6.83 -0.300039
6.84 -0.299628
6.85 -0.298079
6.86 -0.295402
6.87 -0.291614
6.88 -0.286668
6.89 -0.280595
6.9 -0.273476
6.91 -0.265332
6.92 -0.25618
6.93 -0.246032
6.94 -0.234899
6.95 -0.222674
6.96 -0.209468
6.97 -0.195282
6.98 -0.18011
6.99 -0.163949
7 -0.146793
7.01 -0.12859
7.02 -0.109327
7.03 -0.0890783
7.04 -0.0678601
7.05 -0.0456971
7.06 -0.0226241
7.07 0.00131343
7.08 0.026135
7.09 0.0516905
7.1 0.0778856
7.11 0.104627
7.12 0.131809
7.13 0.159321
7.14 0.187045
7.15 0.214839
7.16 0.242558
7.17 0.27007
7.18 0.297243
7.19 0.323948
7.2 0.350059
7.21 0.37538
7.22 0.399834
7.23 0.423337
7.24 0.445796
7.25 0.467126
7.26 0.487255
7.27 0.50608
7.28 0.523461
7.29 0.539467
7.3 0.554063
7.31 0.567218
7.32 0.578909
7.33 0.589115
7.34 0.597699
7.35 0.604712
7.36 0.610197
7.37 0.614141
7.38 0.616533
7.39 0.617362
7.4 0.616589
7.41 0.614068
7.42 0.609947
7.43 0.604216
7.44 0.596867
7.45 0.587898
7.46 0.577308
7.47 0.564993
7.48 0.551008
7.49 0.535453
7.5 0.518364
7.51 0.499786
7.52 0.479777
7.53 0.458401
7.54 0.435616
7.55 0.411672
7.56 0.386681
7.57 0.360765
7.58 0.334059
7.59 0.306709
7.6 0.278847
7.61 0.25066
7.62 0.222342
7.63 0.194061
7.64 0.165985
7.65 0.138283
7.66 0.111118
7.67 0.0847411
7.68 0.0592414
7.69 0.0347513
7.7 0.011395
7.71 -0.0107171
7.72 -0.0314895
7.73 -0.0507714
7.74 -0.0684614
7.75 -0.0846176
7.76 -0.0992162
7.77 -0.11225
7.78 -0.123729
7.79 -0.133679
7.8 -0.141993
7.81 -0.14886
7.82 -0.154371
7.83 -0.158604
7.84 -0.161644
7.85 -0.163581
7.86 -0.164478
7.87 -0.164406
7.88 -0.163542
7.89 -0.16198
7.9 -0.159812
7.91 -0.157123
7.92 -0.153993
7.93 -0.150466
7.94 -0.146634
7.95 -0.142561
7.96 -0.138289
7.97 -0.133851
7.98 -0.129275
7.99 -0.124573
8 -0.119751
8.01 -0.114823
8.02 -0.109785
8.03 -0.104636
8.04 -0.0993673
8.05 -0.0939745
8.06 -0.0884422
8.07 -0.0827739
8.08 -0.0769782
8.09 -0.0710634
8.1 -0.0650444
8.11 -0.0589424
8.12 -0.0527853
8.13 -0.0466113
8.14 -0.0404685
8.15 -0.0344056
8.16 -0.0284756
8.17 -0.0227349
8.18 -0.0172419
8.19 -0.0120797
8.2 -0.00730795
8.21 -0.00296347
8.22 0.000906698
8.23 0.00426274
8.24 0.00707355
8.25 0.00931604
8.26 0.0109168
8.27 0.0119456
8.28 0.0124198
8.29 0.0123687
8.3 0.0118332
8.31 0.0108648
8.32 0.00950798
8.33 0.00784205
8.34 0.00596533
8.35 0.0039574
8.36 0.00189878
8.37 -0.00013149
8.38 -0.00205822
8.39 -0.0037869
8.4 -0.00527054
8.41 -0.00646375
8.42 -0.00733235
8.43 -0.00785594
8.44 -0.00802876
8.45 -0.00784575
8.46 -0.00732846
8.47 -0.00654374
8.48 -0.00554709
8.49 -0.00440555
8.5 -0.00319575
8.51 -0.00200181
8.52 -0.000932329
8.53 -8.08262e-05
8.54 0.000464187
8.55 0.000615718
8.56 0.000292961
8.57 -0.000576395
8.58 -0.00207676
8.59 -0.00429461
8.6 -0.00721067
8.61 -0.0108422
8.62 -0.0151917
8.63 -0.0202469
8.64 -0.0259811
8.65 -0.0324059
8.66 -0.0394252
8.67 -0.0469561
8.68 -0.0549275
8.69 -0.0632631
8.7 -0.0718836
8.71 -0.0807118
8.72 -0.0896685
8.73 -0.0986623
8.74 -0.107626
8.75 -0.116498
8.76 -0.125229
8.77 -0.133774
8.78 -0.142082
8.79 -0.150136
8.8 -0.157933
8.81 -0.165468
8.82 -0.172745
8.83 -0.179773
8.84 -0.186561
8.85 -0.193108
8.86 -0.199454
8.87 -0.205616
8.88 -0.211606
8.89 -0.217437
8.9 -0.223113
8.91 -0.228625
8.92 -0.23397
8.93 -0.239143
8.94 -0.244129
8.95 -0.248905
8.96 -0.253448
8.97 -0.25773
8.98 -0.261686
8.99 -0.265317
9 -0.268598
9.01 -0.271504
9.02 -0.274016
9.03 -0.276121
9.04 -0.277787
9.05 -0.27901
9.06 -0.279824
9.07 -0.280244
9.08 -0.280291
9.09 -0.279993
9.1 -0.27938
9.11 -0.278464
9.12 -0.277315
9.13 -0.275974
9.14 -0.274481
9.15 -0.272872
9.16 -0.271181
9.17 -0.269434
9.18 -0.267656
9.19 -0.265863
9.2 -0.264064
9.21 -0.262257
9.22 -0.260437
9.23 -0.25859
9.24 -0.25669
9.25 -0.254716
9.26 -0.252642
9.27 -0.250441
9.28 -0.248087
9.29 -0.245556
9.3 -0.24282
9.31 -0.239852
9.32 -0.236662
9.33 -0.233251
9.34 -0.229628
9.35 -0.22581
9.36 -0.221822
9.37 -0.217689
9.38 -0.213464
9.39 -0.209195
9.4 -0.204933
9.41 -0.200729
9.42 -0.19663
9.43 -0.192691
9.44 -0.188972
9.45 -0.185491
9.46 -0.182274
9.47 -0.179334
9.48 -0.176674
9.49 -0.174282
9.5 -0.172152
9.51 -0.170231
9.52 -0.168457
9.53 -0.166765
9.54 -0.165082
9.55 -0.163326
9.56 -0.161405
9.57 -0.159191
9.58 -0.156608
9.59 -0.153565
9.6 -0.149974
9.61 -0.145753
9.62 -0.140829
9.63 -0.135089
9.64 -0.128483
9.65 -0.121022
9.66 -0.112686
9.67 -0.10347
9.68 -0.0933858
9.69 -0.0824552
9.7 -0.0706262
9.71 -0.0580442
9.72 -0.0447689
9.73 -0.0308654
9.74 -0.0164041
9.75 -0.001458
9.76 0.0139161
9.77 0.0296395
9.78 0.0456169
9.79 0.0617837
9.8 0.0780811
9.81 0.0944563
9.82 0.110864
9.83 0.127259
9.84 0.143609
9.85 0.159887
9.86 0.176072
9.87 0.192146
9.88 0.208092
9.89 0.22389
9.9 0.239513
9.91 0.254954
9.92 0.270188
9.93 0.285189
9.94 0.299923
9.95 0.314351
9.96 0.328392
9.97 0.342012
9.98 0.355164
9.99 0.367789
10 0.379826
10.01 0.391213
10.02 0.401865
10.03 0.411673
10.04 0.420649
10.05 0.428747
10.06 0.435932
10.07 0.442178
10.08 0.447471
10.09 0.451731
10.1 0.455016
10.11 0.457389
10.12 0.458888
10.13 0.459564
10.14 0.459481
10.15 0.458699
10.16 0.457259
10.17 0.455316
10.18 0.452959
10.19 0.45028
10.2 0.447369
10.21 0.444313
10.22 0.441195
10.23 0.438101
10.24 0.435097
10.25 0.432237
10.26 0.429564
10.27 0.427111
10.28 0.424898
10.29 0.422958
10.3 0.421261
10.31 0.419789
10.32 0.418517
10.33 0.417412
10.34 0.416435
10.35 0.41554
10.36 0.414671
10.37 0.413768
10.38 0.412779
10.39 0.411648
10.4 0.410321
10.41 0.408745
10.42 0.406832
10.43 0.40456
10.44 0.401887
10.45 0.398771
10.46 0.395173
10.47 0.391057
10.48 0.386359
10.49 0.381033
10.5 0.375089
10.51 0.368499
10.52 0.36124
10.53 0.35329
10.54 0.34463
10.55 0.335169
10.56 0.324956
10.57 0.313997
10.58 0.302289
10.59 0.289838
10.6 0.276655
10.61 0.262731
10.62 0.248069
10.63 0.232762
10.64 0.216855
10.65 0.200402
10.66 0.183463
10.67 0.166108
10.68 0.148387
10.69 0.130415
10.7 0.112284
10.71 0.0940833
10.72 0.0758988
10.73 0.0578162
10.74 0.0399238
10.75 0.022323
10.76 0.0050612
10.77 -0.0118061
10.78 -0.0282348
10.79 -0.0441929
10.8 -0.0596619
10.81 -0.074598
10.82 -0.0890338
10.83 -0.103013
10.84 -0.116572
10.85 -0.129757
10.86 -0.142624
10.87 -0.155233
10.88 -0.167641
10.89 -0.179941
10.9 -0.192199
10.91 -0.204475
10.92 -0.216826
10.93 -0.229295
10.94 -0.241931
10.95 -0.254751
10.96 -0.267753
10.97 -0.280926
10.98 -0.294243
10.99 -0.307663
11 -0.321133
11.01 -0.334574
11.02 -0.347902
11.03 -0.361029
11.04 -0.373862
11.05 -0.386303
11.06 -0.398258
11.07 -0.409593
11.08 -0.420207
11.09 -0.430056
11.1 -0.439073
11.11 -0.447203
11.12 -0.454403
11.13 -0.460646
11.14 -0.46581
11.15 -0.470001
11.16 -0.473243
11.17 -0.475567
11.18 -0.477012
11.19 -0.477628
11.2 -0.477437
11.21 -0.476489
11.22 -0.4749
11.23 -0.472727
11.24 -0.470025
11.25 -0.466842
11.26 -0.463219
11.27 -0.459148
11.28 -0.454683
11.29 -0.449841
11.3 -0.444616
11.31 -0.438994
11.32 -0.432954
11.33 -0.426447
11.34 -0.419408
11.35 -0.411831
11.36 -0.403676
11.37 -0.394898
11.38 -0.385462
11.39 -0.375333
11.4 -0.364422
11.41 -0.352757
11.42 -0.340359
11.43 -0.327239
11.44 -0.313421
11.45 -0.298946
11.46 -0.28385
11.47 -0.26817
11.48 -0.25204
11.49 -0.235545
11.5 -0.218781
11.51 -0.201846
11.52 -0.184842
11.53 -0.167882
11.54 -0.151079
11.55 -0.134524
11.56 -0.118307
11.57 -0.102507
11.58 -0.0871937
11.59 -0.0724327
11.6 -0.0583286
11.61 -0.0448546
11.62 -0.0320293
11.63 -0.0198597
11.64 -0.00834201
11.65 0.00253711
11.66 0.0127606
11.67 0.0223715
11.68 0.0314357
11.69 0.0399904
11.7 0.0480743
11.71 0.0557255
11.72 0.0629795
11.73 0.0698317
11.74 0.0763545
11.75 0.0825703
11.76 0.0884962
11.77 0.0941436
11.78 0.0995184
11.79 0.104606
11.8 0.109401
11.81 0.113911
11.82 0.118125
11.83 0.122031
11.84 0.125616
11.85 0.128868
11.86 0.131736
11.87 0.134245
11.88 0.136391
11.89 0.13817
11.9 0.139581
11.91 0.140627
11.92 0.141295
11.93 0.141582
11.94 0.141523
11.95 0.141124
11.96 0.140393
11.97 0.139335
11.98 0.137951
11.99 0.13621
12 0.134129
12.01 0.131704
12.02 0.128919
12.03 0.125752
12.04 0.122176
12.05 0.118143
12.06 0.11359
12.07 0.108514
12.08 0.102873
12.09 0.0966263
12.1 0.0897332
12.11 0.0821554
12.12 0.0737945
12.13 0.064659
12.14 0.054752
12.15 0.044063
12.16 0.0325913
