# xPDFsuite Configuration #
[PDF]
wavelength = 0.1
dataformat = QA
inputfile = BiMsol6_insitu_700 C-00088.xy
backgroundfile = Quartz2mm-dist500-00000.xy
mode = xray
bgscale = 0.0042
composition = Bi2Fe4O9
outputtype = gr
qmaxinst = 24.998449118
qmin = 0.1
qmax = 21.4986662415
rmax = 80.0
rmin = 0.0
rstep = 0.01
rpoly = 0.9

[Misc]
inputdir = C:/Data/Seafile/CPH/Beamtime/Desy Oct 20/In situ data/Processed/BiMsol6/PDF
savedir = C:/Data/Seafile/CPH/Beamtime/Desy Oct 20/In situ data/PDF/BiMsol6
backgroundfilefull = C:/Data/Seafile/CPH/Beamtime/Desy Oct 20/In situ data/Processed/Standard_Empty_Cap/Quartz2mm-dist500-00000.xy

#### start data
#S 1
#L r($\AA$)  G($\AA^{-2}$)
0 0
0.01 0.00720128
0.02 0.0140033
0.03 0.0200642
0.04 0.0250772
0.05 0.0287842
0.06 0.0309882
0.07 0.0314733
0.08 0.0301749
0.09 0.0272494
0.1 0.0228245
0.11 0.0170996
0.12 0.0103369
0.13 0.00284949
0.14 -0.00501199
0.15 -0.0128009
0.16 -0.0201411
0.17 -0.0266791
0.18 -0.0320973
0.19 -0.0361289
0.2 -0.0384996
0.21 -0.039019
0.22 -0.0377885
0.23 -0.0348746
0.24 -0.0304288
0.25 -0.0246832
0.26 -0.017941
0.27 -0.0105437
0.28 -0.00299547
0.29 0.00425592
0.3 0.010776
0.31 0.0161508
0.32 0.0200069
0.33 0.0219666
0.34 0.0216593
0.35 0.0191313
0.36 0.0143721
0.37 0.00748253
0.38 -0.00132376
0.39 -0.0117235
0.4 -0.0233448
0.41 -0.0355346
0.42 -0.0476521
0.43 -0.0590476
0.44 -0.0690493
0.45 -0.0769888
0.46 -0.0821618
0.47 -0.0836659
0.48 -0.0813024
0.49 -0.0747093
0.5 -0.0636546
0.51 -0.0480514
0.52 -0.0279675
0.53 -0.00335086
0.54 0.0252101
0.55 0.056948
0.56 0.0911467
0.57 0.126973
0.58 0.1635
0.59 0.199721
0.6 0.234348
0.61 0.266403
0.62 0.294896
0.63 0.318903
0.64 0.337606
0.65 0.350312
0.66 0.356052
0.67 0.354472
0.68 0.345805
0.69 0.330114
0.7 0.307652
0.71 0.278862
0.72 0.244355
0.73 0.20444
0.74 0.16068
0.75 0.114114
0.76 0.0658358
0.77 0.0169663
0.78 -0.0313764
0.79 -0.0779765
0.8 -0.121644
0.81 -0.161622
0.82 -0.197165
0.83 -0.227681
0.84 -0.252748
0.85 -0.272116
0.86 -0.285131
0.87 -0.292463
0.88 -0.294508
0.89 -0.291732
0.9 -0.284727
0.91 -0.274188
0.92 -0.260813
0.93 -0.245465
0.94 -0.229184
0.95 -0.212783
0.96 -0.197029
0.97 -0.182615
0.98 -0.170142
0.99 -0.160357
1 -0.153479
1.01 -0.149642
1.02 -0.148909
1.03 -0.151211
1.04 -0.15636
1.05 -0.164122
1.06 -0.174177
1.07 -0.18583
1.08 -0.198565
1.09 -0.211843
1.1 -0.225133
1.11 -0.237925
1.12 -0.249644
1.13 -0.259895
1.14 -0.268416
1.15 -0.274999
1.16 -0.279533
1.17 -0.282002
1.18 -0.282456
1.19 -0.280944
1.2 -0.277927
1.21 -0.273726
1.22 -0.268707
1.23 -0.26326
1.24 -0.257781
1.25 -0.252702
1.26 -0.248412
1.27 -0.245182
1.28 -0.243236
1.29 -0.242729
1.3 -0.243731
1.31 -0.246242
1.32 -0.250295
1.33 -0.255535
1.34 -0.261703
1.35 -0.268489
1.36 -0.27554
1.37 -0.282481
1.38 -0.288877
1.39 -0.294301
1.4 -0.298452
1.41 -0.301045
1.42 -0.301858
1.43 -0.300739
1.44 -0.297621
1.45 -0.292309
1.46 -0.285145
1.47 -0.276347
1.48 -0.2662
1.49 -0.25505
1.5 -0.243298
1.51 -0.231392
1.52 -0.219859
1.53 -0.209154
1.54 -0.1997
1.55 -0.191882
1.56 -0.186021
1.57 -0.182372
1.58 -0.181352
1.59 -0.182824
1.6 -0.186703
1.61 -0.192845
1.62 -0.201011
1.63 -0.210878
1.64 -0.222077
1.65 -0.234113
1.66 -0.246372
1.67 -0.258319
1.68 -0.269417
1.69 -0.279147
1.7 -0.287025
1.71 -0.292387
1.72 -0.294989
1.73 -0.294647
1.74 -0.291208
1.75 -0.284623
1.76 -0.274945
1.77 -0.26226
1.78 -0.246691
1.79 -0.228864
1.8 -0.209209
1.81 -0.188214
1.82 -0.166401
1.83 -0.144314
1.84 -0.122558
1.85 -0.101706
1.86 -0.0822156
1.87 -0.0644965
1.88 -0.0488859
1.89 -0.0356373
1.9 -0.0249511
1.91 -0.0171176
1.92 -0.0118207
1.93 -0.00891454
1.94 -0.00817038
1.95 -0.00928713
1.96 -0.0119047
1.97 -0.0156628
1.98 -0.0200459
1.99 -0.0245644
2 -0.0287944
2.01 -0.0323431
2.02 -0.0348648
2.03 -0.0360683
2.04 -0.0355566
2.05 -0.033375
2.06 -0.0295002
2.07 -0.0239955
2.08 -0.0170088
2.09 -0.00876641
2.1 0.000468378
2.11 0.0102804
2.12 0.0202057
2.13 0.0298106
2.14 0.0386536
2.15 0.0463017
2.16 0.0523467
2.17 0.0561704
2.18 0.0576422
2.19 0.0565503
2.2 0.0527461
2.21 0.0461638
2.22 0.0368237
2.23 0.0247198
2.24 0.0100149
2.25 -0.00682026
2.26 -0.0254397
2.27 -0.0454463
2.28 -0.066405
2.29 -0.0878572
2.3 -0.109293
2.31 -0.130203
2.32 -0.150159
2.33 -0.168773
2.34 -0.185707
2.35 -0.200685
2.36 -0.213417
2.37 -0.223648
2.38 -0.231521
2.39 -0.23707
2.4 -0.240398
2.41 -0.241673
2.42 -0.241119
2.43 -0.238895
2.44 -0.23544
2.45 -0.231128
2.46 -0.226299
2.47 -0.221285
2.48 -0.216402
2.49 -0.211957
2.5 -0.208278
2.51 -0.205521
2.52 -0.203833
2.53 -0.203312
2.54 -0.203999
2.55 -0.205889
2.56 -0.209004
2.57 -0.213182
2.58 -0.218232
2.59 -0.223978
2.6 -0.230228
2.61 -0.236776
2.62 -0.243414
2.63 -0.249906
2.64 -0.256062
2.65 -0.261718
2.66 -0.266738
2.67 -0.271014
2.68 -0.27447
2.69 -0.277005
2.7 -0.278622
2.71 -0.27939
2.72 -0.279362
2.73 -0.278608
2.74 -0.277217
2.75 -0.275287
2.76 -0.272885
2.77 -0.270176
2.78 -0.267255
2.79 -0.26421
2.8 -0.261113
2.81 -0.25802
2.82 -0.254973
2.83 -0.251993
2.84 -0.249072
2.85 -0.246192
2.86 -0.243319
2.87 -0.24041
2.88 -0.237413
2.89 -0.234254
2.9 -0.230887
2.91 -0.227264
2.92 -0.223347
2.93 -0.219106
2.94 -0.214524
2.95 -0.209586
2.96 -0.204297
2.97 -0.198713
2.98 -0.192875
2.99 -0.186836
3 -0.180657
3.01 -0.174402
3.02 -0.168141
3.03 -0.161943
3.04 -0.155862
3.05 -0.149941
3.06 -0.144208
3.07 -0.13868
3.08 -0.133358
3.09 -0.128226
3.1 -0.123225
3.11 -0.118296
3.12 -0.113364
3.13 -0.108346
3.14 -0.103149
3.15 -0.0976425
3.16 -0.0917304
3.17 -0.0853289
3.18 -0.0783529
3.19 -0.0707295
3.2 -0.062401
3.21 -0.0533115
3.22 -0.0433829
3.23 -0.0326935
3.24 -0.02127
3.25 -0.00915854
3.26 0.00357688
3.27 0.016857
3.28 0.0306165
3.29 0.0447271
3.3 0.0590657
3.31 0.0735297
3.32 0.0880219
3.33 0.102454
3.34 0.11675
3.35 0.130827
3.36 0.144665
3.37 0.158249
3.38 0.171583
3.39 0.184691
3.4 0.197613
3.41 0.210403
3.42 0.223143
3.43 0.235917
3.44 0.248805
3.45 0.261887
3.46 0.275234
3.47 0.288907
3.48 0.302996
3.49 0.317484
3.5 0.332365
3.51 0.347612
3.52 0.36317
3.53 0.378959
3.54 0.394872
3.55 0.41076
3.56 0.426459
3.57 0.441802
3.58 0.456607
3.59 0.470689
3.6 0.483862
3.61 0.495811
3.62 0.50645
3.63 0.515642
3.64 0.523255
3.65 0.529185
3.66 0.533353
3.67 0.535637
3.68 0.535954
3.69 0.534464
3.7 0.531219
3.71 0.526296
3.72 0.519798
3.73 0.511848
3.74 0.502478
3.75 0.491954
3.76 0.480469
3.77 0.468186
3.78 0.455269
3.79 0.441873
3.8 0.428139
3.81 0.414204
3.82 0.400209
3.83 0.38625
3.84 0.372405
3.85 0.358736
3.86 0.345286
3.87 0.332106
3.88 0.319199
3.89 0.306557
3.9 0.294174
3.91 0.282037
3.92 0.270131
3.93 0.258444
3.94 0.246977
3.95 0.235701
3.96 0.224609
3.97 0.213705
3.98 0.202995
3.99 0.192491
4 0.182228
4.01 0.172222
4.02 0.162486
4.03 0.15304
4.04 0.143902
4.05 0.135088
4.06 0.126607
4.07 0.118495
4.08 0.110705
4.09 0.103217
4.1 0.0960049
4.11 0.0890319
4.12 0.0822543
4.13 0.0756281
4.14 0.0690905
4.15 0.0625783
4.16 0.0560375
4.17 0.0494184
4.18 0.0426775
4.19 0.0357805
4.2 0.0286826
4.21 0.0213945
4.22 0.0139247
4.23 0.00629534
4.24 -0.00145654
4.25 -0.00928023
4.26 -0.0171092
4.27 -0.0248562
4.28 -0.0324385
4.29 -0.0397689
4.3 -0.04676
4.31 -0.053327
4.32 -0.0593916
4.33 -0.0648215
4.34 -0.0696077
4.35 -0.073724
4.36 -0.0771536
4.37 -0.0798992
4.38 -0.0819836
4.39 -0.0834287
4.4 -0.0842846
4.41 -0.0846825
4.42 -0.0847194
4.43 -0.0845025
4.44 -0.0841459
4.45 -0.0837666
4.46 -0.0834986
4.47 -0.0834566
4.48 -0.0837341
4.49 -0.0844123
4.5 -0.0855545
4.51 -0.0872037
4.52 -0.089395
4.53 -0.0921555
4.54 -0.0954056
4.55 -0.099091
4.56 -0.103138
4.57 -0.107454
4.58 -0.111934
4.59 -0.116456
4.6 -0.120879
4.61 -0.125079
4.62 -0.128937
4.63 -0.132345
4.64 -0.135206
4.65 -0.137431
4.66 -0.138895
4.67 -0.139633
4.68 -0.139638
4.69 -0.138925
4.7 -0.137536
4.71 -0.135531
4.72 -0.132962
4.73 -0.129957
4.74 -0.126654
4.75 -0.123175
4.76 -0.119647
4.77 -0.116194
4.78 -0.112937
4.79 -0.110031
4.8 -0.107544
4.81 -0.105552
4.82 -0.104113
4.83 -0.103261
4.84 -0.103013
4.85 -0.103395
4.86 -0.104374
4.87 -0.105865
4.88 -0.107805
4.89 -0.110116
4.9 -0.112712
4.91 -0.115504
4.92 -0.118402
4.93 -0.121297
4.94 -0.124108
4.95 -0.126764
4.96 -0.129206
4.97 -0.131389
4.98 -0.133269
4.99 -0.134825
5 -0.136083
5.01 -0.137063
5.02 -0.137796
5.03 -0.138323
5.04 -0.138693
5.05 -0.138956
5.06 -0.139178
5.07 -0.139415
5.08 -0.139713
5.09 -0.140111
5.1 -0.140636
5.11 -0.141313
5.12 -0.142153
5.13 -0.143131
5.14 -0.144226
5.15 -0.145402
5.16 -0.146618
5.17 -0.147821
5.18 -0.148948
5.19 -0.149937
5.2 -0.150736
5.21 -0.151296
5.22 -0.151574
5.23 -0.151538
5.24 -0.151158
5.25 -0.150406
5.26 -0.149321
5.27 -0.14793
5.28 -0.146268
5.29 -0.144386
5.3 -0.142343
5.31 -0.140203
5.32 -0.138051
5.33 -0.135962
5.34 -0.134006
5.35 -0.132245
5.36 -0.130732
5.37 -0.129513
5.38 -0.128645
5.39 -0.128101
5.4 -0.127872
5.41 -0.127926
5.42 -0.128219
5.43 -0.128688
5.44 -0.129259
5.45 -0.12983
5.46 -0.130301
5.47 -0.130575
5.48 -0.130557
5.49 -0.130154
5.5 -0.129285
5.51 -0.127814
5.52 -0.125749
5.53 -0.123063
5.54 -0.119749
5.55 -0.115822
5.56 -0.11132
5.57 -0.106279
5.58 -0.100789
5.59 -0.0949828
5.6 -0.0889731
5.61 -0.0828826
5.62 -0.0768381
5.63 -0.0709666
5.64 -0.0654346
5.65 -0.0603342
5.66 -0.0557568
5.67 -0.0517778
5.68 -0.0484508
5.69 -0.0458052
5.7 -0.0438745
5.71 -0.0426488
5.72 -0.0420242
5.73 -0.0419234
5.74 -0.0422488
5.75 -0.0428856
5.76 -0.0437063
5.77 -0.0445658
5.78 -0.0453059
5.79 -0.0457906
5.8 -0.0458932
5.81 -0.0455004
5.82 -0.0445166
5.83 -0.0428437
5.84 -0.0403921
5.85 -0.0372025
5.86 -0.0332861
5.87 -0.0286808
5.88 -0.0234503
5.89 -0.0176815
5.9 -0.011455
5.91 -0.00493535
5.92 0.00172771
5.93 0.00839254
5.94 0.0149179
5.95 0.0211681
5.96 0.0270068
5.97 0.0322755
5.98 0.0369307
5.99 0.0409121
6 0.0441856
6.01 0.0467442
6.02 0.0486082
6.03 0.0497814
6.04 0.0503705
6.05 0.0505017
6.06 0.0502911
6.07 0.0498677
6.08 0.0493685
6.09 0.0489352
6.1 0.0487402
6.11 0.0488998
6.12 0.0495261
6.13 0.0507128
6.14 0.0525318
6.15 0.0550308
6.16 0.0582753
6.17 0.0622465
6.18 0.0668667
6.19 0.0720701
6.2 0.0777682
6.21 0.0838526
6.22 0.090199
6.23 0.0966693
6.24 0.103093
6.25 0.109325
6.26 0.115227
6.27 0.12067
6.28 0.125537
6.29 0.129691
6.3 0.133037
6.31 0.135572
6.32 0.137273
6.33 0.138144
6.34 0.138212
6.35 0.137526
6.36 0.136095
6.37 0.134086
6.38 0.131613
6.39 0.128792
6.4 0.125743
6.41 0.122589
6.42 0.119453
6.43 0.116462
6.44 0.113709
6.45 0.111273
6.46 0.109216
6.47 0.10758
6.48 0.106388
6.49 0.10568
6.5 0.105403
6.51 0.105505
6.52 0.105931
6.53 0.106611
6.54 0.107467
6.55 0.108414
6.56 0.109351
6.57 0.110186
6.58 0.110836
6.59 0.111228
6.6 0.111296
6.61 0.11099
6.62 0.110236
6.63 0.10903
6.64 0.107385
6.65 0.105312
6.66 0.102837
6.67 0.0999982
6.68 0.0968409
6.69 0.0934116
6.7 0.0898058
6.71 0.0860924
6.72 0.0823409
6.73 0.0786188
6.74 0.0749896
6.75 0.0715255
6.76 0.0682773
6.77 0.0652759
6.78 0.0625492
6.79 0.060115
6.8 0.0579804
6.81 0.0561454
6.82 0.0546249
6.83 0.0533654
6.84 0.0523394
6.85 0.0515149
6.86 0.0508566
6.87 0.0503277
6.88 0.0498946
6.89 0.0495159
6.9 0.0491541
6.91 0.0487799
6.92 0.0483682
6.93 0.047898
6.94 0.0473526
6.95 0.0467089
6.96 0.0459678
6.97 0.045125
6.98 0.0441785
6.99 0.0431277
7 0.0419729
7.01 0.0407095
7.02 0.0393356
7.03 0.037857
7.04 0.0362711
7.05 0.0345737
7.06 0.0327594
7.07 0.0308219
7.08 0.0287398
7.09 0.026517
7.1 0.0241491
7.11 0.0216318
7.12 0.0189633
7.13 0.016145
7.14 0.0131771
7.15 0.0100663
7.16 0.00684032
7.17 0.0035206
7.18 0.0001338
7.19 -0.00328867
7.2 -0.00671111
7.21 -0.0100868
7.22 -0.0133714
7.23 -0.0165226
7.24 -0.0194973
7.25 -0.0222538
7.26 -0.0247534
7.27 -0.0269521
7.28 -0.0287979
7.29 -0.030296
7.3 -0.0314325
7.31 -0.0322015
7.32 -0.0326052
7.33 -0.0326539
7.34 -0.0323408
7.35 -0.0317112
7.36 -0.0308111
7.37 -0.0296797
7.38 -0.0283603
7.39 -0.0268989
7.4 -0.0253422
7.41 -0.0237397
7.42 -0.0221452
7.43 -0.0206013
7.44 -0.0191466
7.45 -0.0178145
7.46 -0.0166333
7.47 -0.0156384
7.48 -0.0148431
7.49 -0.0142477
7.5 -0.0138549
7.51 -0.0136624
7.52 -0.0136636
7.53 -0.0138491
7.54 -0.0142224
7.55 -0.0147483
7.56 -0.0154111
7.57 -0.0161956
7.58 -0.0170872
7.59 -0.0180729
7.6 -0.0191458
7.61 -0.0202954
7.62 -0.0215105
7.63 -0.0227863
7.64 -0.0241194
7.65 -0.0255074
7.66 -0.0269485
7.67 -0.0284458
7.68 -0.0299904
7.69 -0.0315771
7.7 -0.033199
7.71 -0.0348468
7.72 -0.0365082
7.73 -0.0381678
7.74 -0.0398048
7.75 -0.0413996
7.76 -0.0429306
7.77 -0.0443755
7.78 -0.0457123
7.79 -0.0469195
7.8 -0.0479614
7.81 -0.048833
7.82 -0.0495257
7.83 -0.050033
7.84 -0.050354
7.85 -0.0504934
7.86 -0.0504563
7.87 -0.0502555
7.88 -0.0499278
7.89 -0.0495006
7.9 -0.049005
7.91 -0.0484742
7.92 -0.0479422
7.93 -0.0474481
7.94 -0.0470242
7.95 -0.0466957
7.96 -0.046483
7.97 -0.0464
7.98 -0.0464527
7.99 -0.0466421
8 -0.0469624
8.01 -0.0473796
8.02 -0.0478634
8.03 -0.0483768
8.04 -0.0488767
8.05 -0.049316
8.06 -0.0496325
8.07 -0.0497747
8.08 -0.0497006
8.09 -0.0493686
8.1 -0.0487443
8.11 -0.0478025
8.12 -0.0465239
8.13 -0.0448783
8.14 -0.0429145
8.15 -0.0406609
8.16 -0.0381591
8.17 -0.0354634
8.18 -0.0326391
8.19 -0.0297634
8.2 -0.0269319
8.21 -0.024234
8.22 -0.0217572
8.23 -0.0195866
8.24 -0.0178012
8.25 -0.016473
8.26 -0.0157219
8.27 -0.0155335
8.28 -0.0159295
8.29 -0.0169126
8.3 -0.0184661
8.31 -0.0205532
8.32 -0.0231403
8.33 -0.0261409
8.34 -0.0294322
8.35 -0.0329071
8.36 -0.036449
8.37 -0.0399354
8.38 -0.043242
8.39 -0.0462007
8.4 -0.0487166
8.41 -0.05069
8.42 -0.0520339
8.43 -0.0526793
8.44 -0.0525776
8.45 -0.0516676
8.46 -0.0499293
8.47 -0.0474461
8.48 -0.0442685
8.49 -0.0404684
8.5 -0.0361363
8.51 -0.0313788
8.52 -0.0262977
8.53 -0.0210596
8.54 -0.0158014
8.55 -0.0106526
8.56 -0.00573668
8.57 -0.00116646
8.58 0.00294102
8.59 0.00647037
8.6 0.00940458
8.61 0.0117108
8.62 0.0133792
8.63 0.0144234
8.64 0.0148788
8.65 0.0147621
8.66 0.0141903
8.67 0.0132718
8.68 0.0121098
8.69 0.0108135
8.7 0.00949364
8.71 0.00826333
8.72 0.00724938
8.73 0.00652921
8.74 0.00617501
8.75 0.00624119
8.76 0.00676246
8.77 0.00775259
8.78 0.00923692
8.79 0.0111635
8.8 0.0134605
8.81 0.0160582
8.82 0.0188731
8.83 0.0218113
8.84 0.0247712
8.85 0.0276299
8.86 0.0302871
8.87 0.0326501
8.88 0.0346366
8.89 0.0361786
8.9 0.0372246
8.91 0.0377069
8.92 0.0376214
8.93 0.0370098
8.94 0.0359061
8.95 0.034363
8.96 0.0324497
8.97 0.0302492
8.98 0.0278448
8.99 0.0253695
9 0.0229266
9.01 0.020617
9.02 0.0185353
9.03 0.0167658
9.04 0.0154033
9.05 0.0145122
9.06 0.0140987
9.07 0.0141738
9.08 0.0147283
9.09 0.0157329
9.1 0.01714
9.11 0.0189127
9.12 0.0209295
9.13 0.0230954
9.14 0.0253126
9.15 0.0274815
9.16 0.0295041
9.17 0.0312743
9.18 0.0326895
9.19 0.033703
9.2 0.0342661
9.21 0.034348
9.22 0.0339379
9.23 0.0330448
9.24 0.0316588
9.25 0.0298698
9.26 0.0277559
9.27 0.0253985
9.28 0.0228894
9.29 0.0203264
9.3 0.0178148
9.31 0.0154742
9.32 0.0133901
9.33 0.011643
9.34 0.0103001
9.35 0.00941208
9.36 0.00901134
9.37 0.00915229
9.38 0.00979653
9.39 0.0108947
9.4 0.0123951
9.41 0.0142295
9.42 0.0163155
9.43 0.018561
9.44 0.0208567
9.45 0.023085
9.46 0.0251443
9.47 0.0269385
9.48 0.0283811
9.49 0.0293989
9.5 0.0298957
9.51 0.0298443
9.52 0.0292519
9.53 0.0281249
9.54 0.0264898
9.55 0.0243928
9.56 0.0218942
9.57 0.0190527
9.58 0.0160033
9.59 0.0128473
9.6 0.00968996
9.61 0.00663621
9.62 0.00378711
9.63 0.00125997
9.64 -0.000855266
9.65 -0.00251225
9.66 -0.00366486
9.67 -0.00428577
9.68 -0.00436728
9.69 -0.00392143
9.7 -0.00292776
9.71 -0.00149956
9.72 0.000293954
9.73 0.00237219
9.74 0.00464558
9.75 0.00701909
9.76 0.00939082
9.77 0.0116509
9.78 0.013713
9.79 0.0154997
9.8 0.0169462
9.81 0.0180027
9.82 0.0186358
9.83 0.0187845
9.84 0.0184951
9.85 0.0177981
9.86 0.0167346
9.87 0.0153599
9.88 0.0137415
9.89 0.0119528
9.9 0.0100858
9.91 0.00823807
9.92 0.00649357
9.93 0.00493149
9.94 0.00362317
9.95 0.00262944
9.96 0.00203541
9.97 0.00185046
9.98 0.00207932
9.99 0.00271934
10 0.00375209
10.01 0.00514428
10.02 0.00685648
10.03 0.00883624
10.04 0.0109876
10.05 0.0132359
10.06 0.0155035
10.07 0.0177136
10.08 0.0197922
10.09 0.0216499
10.1 0.0232305
10.11 0.0244954
10.12 0.0254107
10.13 0.025956
10.14 0.0261245
10.15 0.0259164
10.16 0.0253269
10.17 0.0244264
10.18 0.0232584
10.19 0.021874
10.2 0.0203292
10.21 0.0186831
10.22 0.0169963
10.23 0.0153347
10.24 0.0137513
10.25 0.0122907
10.26 0.0109896
10.27 0.00987484
10.28 0.00896497
10.29 0.0082877
10.3 0.00781397
10.31 0.00752813
10.32 0.00740644
10.33 0.00741844
10.34 0.00752872
10.35 0.00769978
10.36 0.00788563
10.37 0.00804485
10.38 0.00814227
10.39 0.00814749
10.4 0.00803621
10.41 0.00779126
10.42 0.00738697
10.43 0.00683915
10.44 0.00615724
10.45 0.00535733
10.46 0.00446182
10.47 0.00349816
10.48 0.0024973
10.49 0.0014972
10.5 0.000532955
10.51 -0.000364523
10.52 -0.00116797
10.53 -0.00185521
10.54 -0.00241031
10.55 -0.00281009
10.56 -0.00306722
10.57 -0.00319302
10.58 -0.00320429
10.59 -0.00312472
10.6 -0.00298396
10.61 -0.00281677
10.62 -0.00266641
10.63 -0.00257315
10.64 -0.00257454
10.65 -0.00270515
10.66 -0.00299486
10.67 -0.00346726
10.68 -0.00415698
10.69 -0.00505754
10.7 -0.00615869
10.71 -0.00744572
10.72 -0.00889437
10.73 -0.0104715
10.74 -0.012137
10.75 -0.0138389
10.76 -0.0155167
10.77 -0.0171147
10.78 -0.0185773
10.79 -0.019851
10.8 -0.0208865
10.81 -0.0216153
10.82 -0.0220116
10.83 -0.022064
10.84 -0.0217617
10.85 -0.0211058
10.86 -0.0201097
10.87 -0.0187947
10.88 -0.0171798
10.89 -0.0153463
10.9 -0.0133525
10.91 -0.0112631
10.92 -0.0091468
10.93 -0.00707456
10.94 -0.00512922
10.95 -0.00338453
10.96 -0.00189423
10.97 -0.00070985
10.98 0.000127137
10.99 0.000586816
11 0.000650085
11.01 0.000271067
11.02 -0.000492321
11.03 -0.00161389
11.04 -0.00305539
11.05 -0.00476781
11.06 -0.00669309
11.07 -0.00877028
11.08 -0.0109181
11.09 -0.0130557
11.1 -0.015111
11.11 -0.0170152
11.12 -0.0187046
11.13 -0.020123
11.14 -0.021184
11.15 -0.0218826
11.16 -0.0221994
11.17 -0.0221247
11.18 -0.0216613
11.19 -0.0208237
11.2 -0.019623
11.21 -0.0180938
11.22 -0.0163062
11.23 -0.0143123
11.24 -0.0121682
11.25 -0.00993237
11.26 -0.00766337
11.27 -0.0054257
11.28 -0.00327548
11.29 -0.00125838
11.3 0.000586362
11.31 0.00222731
11.32 0.00364151
11.33 0.00480597
11.34 0.00570411
11.35 0.00636063
11.36 0.00678763
11.37 0.00700346
11.38 0.00703153
11.39 0.00689891
11.4 0.00662616
11.41 0.00625498
11.42 0.00581839
11.43 0.00534362
11.44 0.00485476
11.45 0.00437196
11.46 0.00391167
11.47 0.00348763
11.48 0.00310209
11.49 0.00275495
11.5 0.00244201
11.51 0.00215567
11.52 0.00188574
11.53 0.00161984
11.54 0.0013438
11.55 0.00104594
11.56 0.00071641
11.57 0.000347919
11.58 -6.35758e-05
11.59 -0.000518872
11.6 -0.00101677
11.61 -0.00154374
11.62 -0.00208683
11.63 -0.00262972
11.64 -0.0031533
11.65 -0.00363656
11.66 -0.00405188
11.67 -0.00437528
11.68 -0.00459
11.69 -0.00467862
11.7 -0.00462733
11.71 -0.00442684
11.72 -0.0040728
11.73 -0.00355069
11.74 -0.00288764
11.75 -0.00209905
11.76 -0.00120602
11.77 -0.000234753
11.78 0.000784287
11.79 0.00181603
11.8 0.00281881
11.81 0.0037556
