# xPDFsuite Configuration #
[PDF]
wavelength = 0.1
dataformat = QA
inputfile = BiMsol6_insitu_700 C-00449.xy
backgroundfile = Quartz2mm-dist500-00000.xy
mode = xray
bgscale = 0.0042
composition = Bi2Fe4O9
outputtype = gr
qmaxinst = 24.998449118
qmin = 0.1
qmax = 21.4986662415
rmax = 80.0
rmin = 0.0
rstep = 0.01
rpoly = 0.9

[Misc]
inputdir = C:/Data/Seafile/CPH/Beamtime/Desy Oct 20/In situ data/Processed/BiMsol6/PDF
savedir = C:/Data/Seafile/CPH/Beamtime/Desy Oct 20/In situ data/PDF/BiMsol6
backgroundfilefull = C:/Data/Seafile/CPH/Beamtime/Desy Oct 20/In situ data/Processed/Standard_Empty_Cap/Quartz2mm-dist500-00000.xy

#### start data
#S 1
#L r($\AA$)  G($\AA^{-2}$)
0 0
0.01 0.00635513
0.02 0.01235
0.03 0.0176762
0.04 0.0220572
0.05 0.0252609
0.06 0.0271106
0.07 0.0274131
0.08 0.0261125
0.09 0.0233521
0.1 0.0192497
0.11 0.0139881
0.12 0.00780659
0.13 0.000990628
0.14 -0.00613864
0.15 -0.0131784
0.16 -0.0197885
0.17 -0.0256504
0.18 -0.0304787
0.19 -0.0340353
0.2 -0.0360762
0.21 -0.0364356
0.22 -0.0352136
0.23 -0.0324784
0.24 -0.0283764
0.25 -0.0231273
0.26 -0.0170156
0.27 -0.0103662
0.28 -0.0036424
0.29 0.00274319
0.3 0.00839019
0.31 0.0129186
0.32 0.0159875
0.33 0.0172522
0.34 0.0163762
0.35 0.0134159
0.36 0.00837258
0.37 0.00135185
0.38 -0.00743469
0.39 -0.0176727
0.4 -0.0289967
0.41 -0.0407843
0.42 -0.0524251
0.43 -0.0632985
0.44 -0.072763
0.45 -0.0801801
0.46 -0.0848751
0.47 -0.0859785
0.48 -0.0833053
0.49 -0.0765059
0.5 -0.0653535
0.51 -0.0497587
0.52 -0.0297793
0.53 -0.00534936
0.54 0.0229745
0.55 0.0544608
0.56 0.0884305
0.57 0.12409
0.58 0.160555
0.59 0.19686
0.6 0.231777
0.61 0.264345
0.62 0.293597
0.63 0.318628
0.64 0.338626
0.65 0.352893
0.66 0.360461
0.67 0.360942
0.68 0.354517
0.69 0.341198
0.7 0.321182
0.71 0.294845
0.72 0.262733
0.73 0.225057
0.74 0.183318
0.75 0.138491
0.76 0.0916053
0.77 0.0437302
0.78 -0.00405917
0.79 -0.0506024
0.8 -0.094735
0.81 -0.135666
0.82 -0.172634
0.83 -0.205018
0.84 -0.232348
0.85 -0.25432
0.86 -0.27023
0.87 -0.28064
0.88 -0.285859
0.89 -0.286268
0.9 -0.282373
0.91 -0.274789
0.92 -0.264128
0.93 -0.251168
0.94 -0.236919
0.95 -0.222156
0.96 -0.207627
0.97 -0.194019
0.98 -0.181944
0.99 -0.172146
1 -0.164917
1.01 -0.16046
1.02 -0.158906
1.03 -0.160262
1.04 -0.164423
1.05 -0.17124
1.06 -0.180493
1.07 -0.191557
1.08 -0.203983
1.09 -0.217289
1.1 -0.230985
1.11 -0.24459
1.12 -0.257572
1.13 -0.269509
1.14 -0.280095
1.15 -0.28908
1.16 -0.296294
1.17 -0.301651
1.18 -0.305122
1.19 -0.306658
1.2 -0.306617
1.21 -0.305228
1.22 -0.302769
1.23 -0.299548
1.24 -0.295889
1.25 -0.29213
1.26 -0.288623
1.27 -0.285637
1.28 -0.283395
1.29 -0.282063
1.3 -0.281747
1.31 -0.282492
1.32 -0.284366
1.33 -0.287145
1.34 -0.290662
1.35 -0.294705
1.36 -0.299024
1.37 -0.303345
1.38 -0.307349
1.39 -0.310715
1.4 -0.313206
1.41 -0.314599
1.42 -0.314721
1.43 -0.313451
1.44 -0.310731
1.45 -0.306417
1.46 -0.30076
1.47 -0.293926
1.48 -0.286133
1.49 -0.277651
1.5 -0.268787
1.51 -0.259896
1.52 -0.251385
1.53 -0.2436
1.54 -0.236866
1.55 -0.231474
1.56 -0.227667
1.57 -0.225628
1.58 -0.225666
1.59 -0.227652
1.6 -0.231495
1.61 -0.237056
1.62 -0.244122
1.63 -0.252411
1.64 -0.2616
1.65 -0.271264
1.66 -0.28091
1.67 -0.290097
1.68 -0.298389
1.69 -0.305368
1.7 -0.310653
1.71 -0.313703
1.72 -0.314357
1.73 -0.312495
1.74 -0.308024
1.75 -0.300941
1.76 -0.291325
1.77 -0.279289
1.78 -0.264981
1.79 -0.248947
1.8 -0.231576
1.81 -0.213296
1.82 -0.194563
1.83 -0.175841
1.84 -0.157659
1.85 -0.140485
1.86 -0.124678
1.87 -0.110563
1.88 -0.0983962
1.89 -0.0883592
1.9 -0.0805849
1.91 -0.0752776
1.92 -0.0721188
1.93 -0.0709425
1.94 -0.0715142
1.95 -0.0735406
1.96 -0.0766827
1.97 -0.0805925
1.98 -0.0848121
1.99 -0.0889229
2 -0.0925607
2.01 -0.095396
2.02 -0.0971472
2.03 -0.0975868
2.04 -0.0963912
2.05 -0.0936557
2.06 -0.0894012
2.07 -0.0837259
2.08 -0.0768023
2.09 -0.0688696
2.1 -0.0602061
2.11 -0.0512141
2.12 -0.0423186
2.13 -0.0339184
2.14 -0.0264121
2.15 -0.020182
2.16 -0.0155799
2.17 -0.0131536
2.18 -0.0129698
2.19 -0.0151798
2.2 -0.019875
2.21 -0.0270687
2.22 -0.0366954
2.23 -0.048706
2.24 -0.062898
2.25 -0.0788137
2.26 -0.0961057
2.27 -0.114387
2.28 -0.133245
2.29 -0.152256
2.3 -0.170929
2.31 -0.188842
2.32 -0.205637
2.33 -0.220997
2.34 -0.23466
2.35 -0.246428
2.36 -0.256099
2.37 -0.263518
2.38 -0.268887
2.39 -0.272307
2.4 -0.273942
2.41 -0.274011
2.42 -0.272779
2.43 -0.270483
2.44 -0.267546
2.45 -0.264328
2.46 -0.261154
2.47 -0.258331
2.48 -0.256139
2.49 -0.254846
2.5 -0.254741
2.51 -0.255868
2.52 -0.258301
2.53 -0.262055
2.54 -0.267093
2.55 -0.273323
2.56 -0.280675
2.57 -0.288901
2.58 -0.297742
2.59 -0.306961
2.6 -0.316308
2.61 -0.325534
2.62 -0.33439
2.63 -0.342572
2.64 -0.349933
2.65 -0.356313
2.66 -0.361592
2.67 -0.365688
2.68 -0.368562
2.69 -0.370139
2.7 -0.370485
2.71 -0.369747
2.72 -0.368036
2.73 -0.365484
2.74 -0.36224
2.75 -0.358458
2.76 -0.35427
2.77 -0.349881
2.78 -0.345423
2.79 -0.34101
2.8 -0.33673
2.81 -0.332648
2.82 -0.328808
2.83 -0.325217
2.84 -0.32183
2.85 -0.318595
2.86 -0.315436
2.87 -0.312265
2.88 -0.308979
2.89 -0.305437
2.9 -0.301542
2.91 -0.297198
2.92 -0.292315
2.93 -0.286823
2.94 -0.280667
2.95 -0.273784
2.96 -0.266142
2.97 -0.257813
2.98 -0.248833
2.99 -0.239259
3 -0.229161
3.01 -0.21862
3.02 -0.207697
3.03 -0.196516
3.04 -0.185166
3.05 -0.173718
3.06 -0.162228
3.07 -0.150736
3.08 -0.139259
3.09 -0.12779
3.1 -0.116292
3.11 -0.10471
3.12 -0.0929672
3.13 -0.0809692
3.14 -0.0686095
3.15 -0.0557221
3.16 -0.0421995
3.17 -0.0279444
3.18 -0.0128545
3.19 0.00315625
3.2 0.020152
3.21 0.0381918
3.22 0.0573573
3.23 0.0775137
3.24 0.0985901
3.25 0.12048
3.26 0.143044
3.27 0.16611
3.28 0.189482
3.29 0.212896
3.3 0.236094
3.31 0.258825
3.32 0.280832
3.33 0.301866
3.34 0.321674
3.35 0.339873
3.36 0.356411
3.37 0.371135
3.38 0.383925
3.39 0.3947
3.4 0.403421
3.41 0.409964
3.42 0.414398
3.43 0.416925
3.44 0.417668
3.45 0.416778
3.46 0.414432
3.47 0.410823
3.48 0.406061
3.49 0.400498
3.5 0.394346
3.51 0.387807
3.52 0.381072
3.53 0.374314
3.54 0.367696
3.55 0.361369
3.56 0.355417
3.57 0.349914
3.58 0.344906
3.59 0.340418
3.6 0.336454
3.61 0.333052
3.62 0.330134
3.63 0.327654
3.64 0.325571
3.65 0.323839
3.66 0.32242
3.67 0.321288
3.68 0.320424
3.69 0.319795
3.7 0.3194
3.71 0.319251
3.72 0.31937
3.73 0.31979
3.74 0.320591
3.75 0.3218
3.76 0.323462
3.77 0.325626
3.78 0.328337
3.79 0.331634
3.8 0.335565
3.81 0.340182
3.82 0.345429
3.83 0.351284
3.84 0.357714
3.85 0.364664
3.86 0.372064
3.87 0.379854
3.88 0.387904
3.89 0.396093
3.9 0.404304
3.91 0.412418
3.92 0.420317
3.93 0.427875
3.94 0.434935
3.95 0.441434
3.96 0.447286
3.97 0.452421
3.98 0.456782
3.99 0.460327
4 0.462972
4.01 0.464728
4.02 0.465641
4.03 0.465728
4.04 0.465017
4.05 0.46354
4.06 0.461331
4.07 0.458362
4.08 0.454748
4.09 0.450522
4.1 0.445709
4.11 0.440328
4.12 0.434388
4.13 0.427855
4.14 0.420719
4.15 0.412993
4.16 0.404651
4.17 0.395662
4.18 0.385991
4.19 0.375604
4.2 0.36438
4.21 0.352369
4.22 0.339555
4.23 0.325926
4.24 0.311483
4.25 0.296238
4.26 0.280179
4.27 0.26334
4.28 0.245827
4.29 0.227707
4.3 0.209057
4.31 0.189963
4.32 0.170515
4.33 0.150791
4.34 0.130921
4.35 0.111
4.36 0.0911145
4.37 0.0713442
4.38 0.0517582
4.39 0.032425
4.4 0.0134055
4.41 -0.00529252
4.42 -0.0236549
4.43 -0.0416801
4.44 -0.059378
4.45 -0.0767682
4.46 -0.0938555
4.47 -0.110695
4.48 -0.127329
4.49 -0.14379
4.5 -0.16011
4.51 -0.17631
4.52 -0.192403
4.53 -0.208386
4.54 -0.224255
4.55 -0.239986
4.56 -0.255542
4.57 -0.27087
4.58 -0.28591
4.59 -0.300554
4.6 -0.314727
4.61 -0.328356
4.62 -0.341355
4.63 -0.35364
4.64 -0.36513
4.65 -0.37574
4.66 -0.385325
4.67 -0.393931
4.68 -0.401531
4.69 -0.40812
4.7 -0.413706
4.71 -0.418319
4.72 -0.421949
4.73 -0.424692
4.74 -0.426677
4.75 -0.428001
4.76 -0.428772
4.77 -0.429103
4.78 -0.429112
4.79 -0.428905
4.8 -0.428629
4.81 -0.428387
4.82 -0.428273
4.83 -0.428367
4.84 -0.428733
4.85 -0.42944
4.86 -0.430521
4.87 -0.431964
4.88 -0.433761
4.89 -0.435886
4.9 -0.438299
4.91 -0.440948
4.92 -0.443781
4.93 -0.446701
4.94 -0.449633
4.95 -0.452496
4.96 -0.455217
4.97 -0.457719
4.98 -0.459921
4.99 -0.461743
5 -0.463158
5.01 -0.464124
5.02 -0.464609
5.03 -0.46459
5.04 -0.464053
5.05 -0.462937
5.06 -0.461285
5.07 -0.45911
5.08 -0.456417
5.09 -0.453211
5.1 -0.449499
5.11 -0.445262
5.12 -0.440476
5.13 -0.435173
5.14 -0.429339
5.15 -0.422956
5.16 -0.415998
5.17 -0.408438
5.18 -0.400184
5.19 -0.391236
5.2 -0.381579
5.21 -0.371182
5.22 -0.360015
5.23 -0.348058
5.24 -0.335276
5.25 -0.321608
5.26 -0.307138
5.27 -0.291882
5.28 -0.275873
5.29 -0.259152
5.3 -0.241772
5.31 -0.223757
5.32 -0.205212
5.33 -0.186243
5.34 -0.166937
5.35 -0.147384
5.36 -0.127675
5.37 -0.107902
5.38 -0.0881637
5.39 -0.068546
5.4 -0.0491229
5.41 -0.0299608
5.42 -0.0111172
5.43 0.00735915
5.44 0.0253989
5.45 0.0429733
5.46 0.0600807
5.47 0.076704
5.48 0.0928303
5.49 0.108449
5.5 0.123549
5.51 0.138057
5.52 0.152017
5.53 0.16541
5.54 0.178207
5.55 0.190375
5.56 0.201874
5.57 0.212613
5.58 0.222524
5.59 0.23159
5.6 0.239747
5.61 0.246929
5.62 0.253073
5.63 0.258116
5.64 0.261873
5.65 0.26441
5.66 0.265705
5.67 0.265741
5.68 0.264515
5.69 0.262043
5.7 0.258306
5.71 0.253332
5.72 0.247285
5.73 0.240255
5.74 0.232348
5.75 0.223683
5.76 0.214388
5.77 0.204565
5.78 0.194406
5.79 0.18406
5.8 0.173658
5.81 0.163327
5.82 0.153179
5.83 0.143327
5.84 0.13388
5.85 0.124873
5.86 0.116346
5.87 0.108318
5.88 0.100792
5.89 0.0937503
5.9 0.0871966
5.91 0.0810526
5.92 0.0752467
5.93 0.0697153
5.94 0.0643928
5.95 0.0592153
5.96 0.0541249
5.97 0.0490694
5.98 0.0440075
5.99 0.0389203
6 0.0338055
6.01 0.0286792
6.02 0.0235754
6.03 0.0185573
6.04 0.0137032
6.05 0.00909669
6.06 0.00483577
6.07 0.00102626
6.08 -0.00222218
6.09 -0.00479156
6.1 -0.00649112
6.11 -0.00730146
6.12 -0.00714382
6.13 -0.00595719
6.14 -0.00370144
6.15 -0.000359867
6.16 0.0041255
6.17 0.00969882
6.18 0.0162345
6.19 0.0236389
6.2 0.031795
6.21 0.040565
6.22 0.0497936
6.23 0.059325
6.24 0.06893
6.25 0.0784262
6.26 0.0876332
6.27 0.0963779
6.28 0.104499
6.29 0.111803
6.3 0.118138
6.31 0.123461
6.32 0.127703
6.33 0.130823
6.34 0.132808
6.35 0.133674
6.36 0.133358
6.37 0.132041
6.38 0.129832
6.39 0.126845
6.4 0.123211
6.41 0.119068
6.42 0.114554
6.43 0.109828
6.44 0.105059
6.45 0.10038
6.46 0.0959126
6.47 0.0917649
6.48 0.0880262
6.49 0.0848177
6.5 0.0821573
6.51 0.0800582
6.52 0.0785251
6.53 0.0775438
6.54 0.0770833
6.55 0.0771106
6.56 0.0775829
6.57 0.0783916
6.58 0.0794643
6.59 0.080727
6.6 0.0821071
6.61 0.0835369
6.62 0.0849498
6.63 0.0862901
6.64 0.0875208
6.65 0.0886165
6.66 0.0895644
6.67 0.0903642
6.68 0.0910253
6.69 0.0915654
6.7 0.0920315
6.71 0.0924641
6.72 0.0929085
6.73 0.0934119
6.74 0.0940216
6.75 0.0947962
6.76 0.0957761
6.77 0.0969853
6.78 0.0984461
6.79 0.100171
6.8 0.102162
6.81 0.104411
6.82 0.106918
6.83 0.109622
6.84 0.112481
6.85 0.115443
6.86 0.118453
6.87 0.12145
6.88 0.124362
6.89 0.127117
6.9 0.129661
6.91 0.131936
6.92 0.133895
6.93 0.135495
6.94 0.136704
6.95 0.13745
6.96 0.137767
6.97 0.137659
6.98 0.137135
6.99 0.136218
7 0.134936
7.01 0.133311
7.02 0.13139
7.03 0.129241
7.04 0.126914
7.05 0.124459
7.06 0.121927
7.07 0.119362
7.08 0.116811
7.09 0.114312
7.1 0.111893
7.11 0.109574
7.12 0.107367
7.13 0.105276
7.14 0.103302
7.15 0.101435
7.16 0.0996488
7.17 0.0979176
7.18 0.096213
7.19 0.0945033
7.2 0.0927546
7.21 0.0909226
7.22 0.0889746
7.23 0.0868811
7.24 0.0846136
7.25 0.0821474
7.26 0.0794622
7.27 0.0765355
7.28 0.0733412
7.29 0.0698961
7.3 0.0662008
7.31 0.0622598
7.32 0.0580812
7.33 0.053676
7.34 0.0490408
7.35 0.0442011
7.36 0.0391781
7.37 0.0339843
7.38 0.0286304
7.39 0.0231241
7.4 0.0174673
7.41 0.0116479
7.42 0.00567592
7.43 -0.000457676
7.44 -0.00676581
7.45 -0.0132651
7.46 -0.0199751
7.47 -0.0269358
7.48 -0.0341685
7.49 -0.0416855
7.5 -0.0495088
7.51 -0.057658
7.52 -0.0661486
7.53 -0.0749934
7.54 -0.0842336
7.55 -0.0938244
7.56 -0.103752
7.57 -0.113991
7.58 -0.124511
7.59 -0.135265
7.6 -0.146208
7.61 -0.157264
7.62 -0.168348
7.63 -0.179376
7.64 -0.190257
7.65 -0.200896
7.66 -0.211193
7.67 -0.220985
7.68 -0.230209
7.69 -0.238769
7.7 -0.246572
7.71 -0.253533
7.72 -0.259575
7.73 -0.264583
7.74 -0.268476
7.75 -0.271291
7.76 -0.273008
7.77 -0.273627
7.78 -0.273163
7.79 -0.271649
7.8 -0.269038
7.81 -0.26549
7.82 -0.261103
7.83 -0.255973
7.84 -0.250203
7.85 -0.243907
7.86 -0.237194
7.87 -0.230187
7.88 -0.223041
7.89 -0.215873
7.9 -0.208793
7.91 -0.201906
7.92 -0.195306
7.93 -0.189112
7.94 -0.183373
7.95 -0.178129
7.96 -0.173411
7.97 -0.169237
7.98 -0.165609
7.99 -0.162526
8 -0.159993
8.01 -0.15792
8.02 -0.156259
8.03 -0.154954
8.04 -0.153945
8.05 -0.153171
8.06 -0.152578
8.07 -0.152095
8.08 -0.151662
8.09 -0.151235
8.1 -0.150779
8.11 -0.150265
8.12 -0.149678
8.13 -0.149004
8.14 -0.148258
8.15 -0.147455
8.16 -0.146618
8.17 -0.145777
8.18 -0.144962
8.19 -0.144216
8.2 -0.143575
8.21 -0.143066
8.22 -0.142711
8.23 -0.142526
8.24 -0.142515
8.25 -0.142673
8.26 -0.142994
8.27 -0.143423
8.28 -0.143911
8.29 -0.144397
8.3 -0.144805
8.31 -0.145055
8.32 -0.145032
8.33 -0.144624
8.34 -0.143744
8.35 -0.142294
8.36 -0.140175
8.37 -0.137299
8.38 -0.133585
8.39 -0.12886
8.4 -0.12316
8.41 -0.116459
8.42 -0.108744
8.43 -0.100019
8.44 -0.0903081
8.45 -0.0796129
8.46 -0.0679811
8.47 -0.0555593
8.48 -0.04244
8.49 -0.0287262
8.5 -0.0145283
8.51 3.87123e-05
8.52 0.0148724
8.53 0.0298267
8.54 0.0447904
8.55 0.0596655
8.56 0.074365
8.57 0.088815
8.58 0.102944
8.59 0.116686
8.6 0.130042
8.61 0.143004
8.62 0.155575
8.63 0.16777
8.64 0.179616
8.65 0.191122
8.66 0.202349
8.67 0.213346
8.68 0.224152
8.69 0.234799
8.7 0.245314
8.71 0.25571
8.72 0.265983
8.73 0.276131
8.74 0.286129
8.75 0.295937
8.76 0.3055
8.77 0.314753
8.78 0.323581
8.79 0.331898
8.8 0.339627
8.81 0.346669
8.82 0.352926
8.83 0.358303
8.84 0.362697
8.85 0.36592
8.86 0.368007
8.87 0.368904
8.88 0.368571
8.89 0.366982
8.9 0.36413
8.91 0.359939
8.92 0.354454
8.93 0.347777
8.94 0.339959
8.95 0.331059
8.96 0.321141
8.97 0.310275
8.98 0.298441
8.99 0.285814
9 0.272463
9.01 0.258448
9.02 0.243821
9.03 0.228627
9.04 0.212878
9.05 0.196598
9.06 0.179839
9.07 0.162612
9.08 0.144924
9.09 0.126778
9.1 0.108178
9.11 0.0890811
9.12 0.069544
9.13 0.0495905
9.14 0.0292505
9.15 0.00856567
9.16 -0.0124084
9.17 -0.0336072
9.18 -0.0549348
9.19 -0.0762716
9.2 -0.0974996
9.21 -0.118488
9.22 -0.139098
9.23 -0.15918
9.24 -0.178503
9.25 -0.196949
9.26 -0.214383
9.27 -0.230666
9.28 -0.24567
9.29 -0.259279
9.3 -0.271349
9.31 -0.281711
9.32 -0.290447
9.33 -0.297533
9.34 -0.30297
9.35 -0.306782
9.36 -0.309013
9.37 -0.309609
9.38 -0.308747
9.39 -0.306577
9.4 -0.303209
9.41 -0.298762
9.42 -0.293353
9.43 -0.287084
9.44 -0.280022
9.45 -0.272344
9.46 -0.264131
9.47 -0.25545
9.48 -0.246351
9.49 -0.236863
9.5 -0.226969
9.51 -0.216669
9.52 -0.205954
9.53 -0.194782
9.54 -0.183101
9.55 -0.170855
9.56 -0.157975
9.57 -0.144327
9.58 -0.129928
9.59 -0.114736
9.6 -0.0987232
9.61 -0.0818784
9.62 -0.0642106
9.63 -0.0457043
9.64 -0.0264303
9.65 -0.00651345
9.66 0.0139429
9.67 0.0348155
9.68 0.0559637
9.69 0.0772328
9.7 0.098433
9.71 0.119382
9.72 0.139907
9.73 0.159842
9.74 0.179027
9.75 0.19732
9.76 0.214533
9.77 0.230532
9.78 0.24531
9.79 0.258814
9.8 0.271022
9.81 0.281935
9.82 0.291581
9.83 0.299891
9.84 0.307058
9.85 0.313192
9.86 0.318397
9.87 0.322786
9.88 0.326477
9.89 0.329564
9.9 0.332156
9.91 0.334392
9.92 0.336354
9.93 0.338107
9.94 0.339696
9.95 0.341147
9.96 0.342447
9.97 0.343585
9.98 0.344521
9.99 0.345197
10 0.34554
10.01 0.345469
10.02 0.344876
10.03 0.343624
10.04 0.34167
10.05 0.338935
10.06 0.33535
10.07 0.33086
10.08 0.325431
10.09 0.31897
10.1 0.311531
10.11 0.303185
10.12 0.293988
10.13 0.284018
10.14 0.273374
10.15 0.262163
10.16 0.250494
10.17 0.238561
10.18 0.226508
10.19 0.214479
10.2 0.202615
10.21 0.191047
10.22 0.179934
10.23 0.169383
10.24 0.159456
10.25 0.150216
10.26 0.141702
10.27 0.133934
10.28 0.126912
10.29 0.120681
10.3 0.115111
10.31 0.110139
10.32 0.105687
10.33 0.101668
10.34 0.0979884
10.35 0.09456
10.36 0.0912715
10.37 0.0880188
10.38 0.0847181
10.39 0.0812951
10.4 0.077687
10.41 0.0738436
10.42 0.0696943
10.43 0.0652453
10.44 0.0604902
10.45 0.0554323
10.46 0.0500847
10.47 0.0444679
10.48 0.038597
10.49 0.0325007
10.5 0.0262239
10.51 0.0197923
10.52 0.0132269
10.53 0.00654249
10.54 -0.000253992
10.55 -0.00717673
10.56 -0.0142292
10.57 -0.021431
10.58 -0.0288114
10.59 -0.0364058
10.6 -0.0442543
10.61 -0.0524127
10.62 -0.060944
10.63 -0.069864
10.64 -0.0792075
10.65 -0.0890016
10.66 -0.0992639
10.67 -0.110001
10.68 -0.121247
10.69 -0.132947
10.7 -0.145052
10.71 -0.15751
10.72 -0.17026
10.73 -0.183227
10.74 -0.19633
10.75 -0.20947
10.76 -0.222543
10.77 -0.235456
10.78 -0.248119
10.79 -0.260447
10.8 -0.272366
10.81 -0.283769
10.82 -0.294623
10.83 -0.304913
10.84 -0.314627
10.85 -0.323767
10.86 -0.332352
10.87 -0.340408
10.88 -0.347951
10.89 -0.355098
10.9 -0.361918
10.91 -0.368491
10.92 -0.374894
10.93 -0.381207
10.94 -0.387506
10.95 -0.393865
10.96 -0.400337
10.97 -0.406958
10.98 -0.413751
10.99 -0.420719
11 -0.427849
11.01 -0.435116
11.02 -0.442448
11.03 -0.449774
11.04 -0.457009
11.05 -0.464057
11.06 -0.470813
11.07 -0.477136
11.08 -0.482897
11.09 -0.48801
11.1 -0.492374
11.11 -0.495893
11.12 -0.498488
11.13 -0.500091
11.14 -0.500535
11.15 -0.499895
11.16 -0.498172
11.17 -0.495376
11.18 -0.491537
11.19 -0.4867
11.2 -0.480887
11.21 -0.474162
11.22 -0.466675
11.23 -0.458517
11.24 -0.449781
11.25 -0.440558
11.26 -0.430936
11.27 -0.420974
11.28 -0.410773
11.29 -0.400397
11.3 -0.389889
11.31 -0.379276
11.32 -0.368573
11.33 -0.357775
11.34 -0.346857
11.35 -0.335797
11.36 -0.324552
11.37 -0.313074
11.38 -0.301308
11.39 -0.289196
11.4 -0.27664
11.41 -0.263602
11.42 -0.250048
11.43 -0.235936
11.44 -0.221238
11.45 -0.205936
11.46 -0.19001
11.47 -0.173429
11.48 -0.156274
11.49 -0.138584
11.5 -0.120408
11.51 -0.101804
11.52 -0.0828404
11.53 -0.0635755
11.54 -0.044109
11.55 -0.0245322
11.56 -0.00492411
11.57 0.0146395
11.58 0.034088
11.59 0.0533544
11.6 0.0723563
11.61 0.0910702
11.62 0.109462
11.63 0.12751
11.64 0.145198
11.65 0.162523
11.66 0.179464
11.67 0.196038
11.68 0.21228
11.69 0.228207
11.7 0.243838
11.71 0.259191
11.72 0.274281
11.73 0.289089
11.74 0.303649
11.75 0.317956
11.76 0.331997
11.77 0.345753
11.78 0.359194
11.79 0.372261
11.8 0.384898
11.81 0.397077
11.82 0.408738
11.83 0.419821
11.84 0.430263
11.85 0.440001
11.86 0.448882
11.87 0.456917
11.88 0.464059
11.89 0.470259
11.9 0.475474
11.91 0.479669
11.92 0.482769
11.93 0.48472
11.94 0.485589
11.95 0.485372
11.96 0.484071
11.97 0.481695
11.98 0.478257
11.99 0.473672
12 0.468043
12.01 0.461411
12.02 0.453797
12.03 0.445222
12.04 0.435704
12.05 0.425234
12.06 0.413783
12.07 0.401443
12.08 0.38823
12.09 0.374157
12.1 0.359238
12.11 0.343488
12.12 0.326858
12.13 0.309417
12.14 0.291217
12.15 0.272291
12.16 0.252679
12.17 0.232427
12.18 0.211581
12.19 0.190175
12.2 0.168339
12.21 0.146156
12.22 0.123719
