# xPDFsuite Configuration #
[PDF]
wavelength = 0.1
dataformat = QA
inputfile = BiMsol6_insitu_700 C-00338.xy
backgroundfile = Quartz2mm-dist500-00000.xy
mode = xray
bgscale = 0.0042
composition = Bi2Fe4O9
outputtype = gr
qmaxinst = 24.998449118
qmin = 0.1
qmax = 21.4986662415
rmax = 80.0
rmin = 0.0
rstep = 0.01
rpoly = 0.9

[Misc]
inputdir = C:/Data/Seafile/CPH/Beamtime/Desy Oct 20/In situ data/Processed/BiMsol6/PDF
savedir = C:/Data/Seafile/CPH/Beamtime/Desy Oct 20/In situ data/PDF/BiMsol6
backgroundfilefull = C:/Data/Seafile/CPH/Beamtime/Desy Oct 20/In situ data/Processed/Standard_Empty_Cap/Quartz2mm-dist500-00000.xy

#### start data
#S 1
#L r($\AA$)  G($\AA^{-2}$)
0 0
0.01 0.00663845
0.02 0.0129052
0.03 0.0184819
0.04 0.0230829
0.05 0.0264681
0.06 0.028454
0.07 0.0288394
0.08 0.0275646
0.09 0.0247751
0.1 0.0205902
0.11 0.0151959
0.12 0.0088366
0.13 0.00180463
0.14 -0.00557255
0.15 -0.0128784
0.16 -0.0197619
0.17 -0.0258931
0.18 -0.0309755
0.19 -0.0347603
0.2 -0.0369915
0.21 -0.0374921
0.22 -0.0363582
0.23 -0.0336532
0.24 -0.0295212
0.25 -0.0241817
0.26 -0.0179213
0.27 -0.0110653
0.28 -0.00408923
0.29 0.00258329
0.3 0.00854031
0.31 0.0133889
0.32 0.0167742
0.33 0.0183361
0.34 0.0177203
0.35 0.0149717
0.36 0.0100799
0.37 0.00314062
0.38 -0.00564178
0.39 -0.0159573
0.4 -0.0274486
0.41 -0.0394858
0.42 -0.0514486
0.43 -0.0627062
0.44 -0.0726031
0.45 -0.0804841
0.46 -0.0856549
0.47 -0.0872207
0.48 -0.0849729
0.49 -0.0785385
0.5 -0.0676678
0.51 -0.0522501
0.52 -0.0323238
0.53 -0.00779546
0.54 0.0207879
0.55 0.0526954
0.56 0.0872497
0.57 0.123654
0.58 0.161015
0.59 0.198354
0.6 0.234432
0.61 0.268248
0.62 0.298805
0.63 0.325167
0.64 0.346485
0.65 0.362028
0.66 0.370783
0.67 0.372323
0.68 0.366801
0.69 0.354204
0.7 0.334703
0.71 0.308659
0.72 0.276603
0.73 0.238718
0.74 0.196533
0.75 0.151036
0.76 0.103272
0.77 0.0543364
0.78 0.00533226
0.79 -0.0425504
0.8 -0.0881057
0.81 -0.130495
0.82 -0.168919
0.83 -0.202715
0.84 -0.231379
0.85 -0.254572
0.86 -0.271546
0.87 -0.282849
0.88 -0.288779
0.89 -0.289707
0.9 -0.28614
0.91 -0.278697
0.92 -0.267996
0.93 -0.254832
0.94 -0.240251
0.95 -0.22506
0.96 -0.210034
0.97 -0.195896
0.98 -0.183287
0.99 -0.172988
1 -0.165321
1.01 -0.16051
1.02 -0.158703
1.03 -0.159921
1.04 -0.164062
1.05 -0.170981
1.06 -0.180455
1.07 -0.191833
1.08 -0.204646
1.09 -0.218388
1.1 -0.232541
1.11 -0.246594
1.12 -0.259983
1.13 -0.272253
1.14 -0.283076
1.15 -0.292181
1.16 -0.299382
1.17 -0.304585
1.18 -0.307756
1.19 -0.308842
1.2 -0.308229
1.21 -0.306169
1.22 -0.302968
1.23 -0.298965
1.24 -0.294524
1.25 -0.290028
1.26 -0.285873
1.27 -0.282367
1.28 -0.27977
1.29 -0.278279
1.3 -0.278025
1.31 -0.279073
1.32 -0.281526
1.33 -0.285127
1.34 -0.2897
1.35 -0.295006
1.36 -0.300766
1.37 -0.306662
1.38 -0.312331
1.39 -0.317387
1.4 -0.321532
1.41 -0.324486
1.42 -0.326016
1.43 -0.32595
1.44 -0.324181
1.45 -0.32049
1.46 -0.315129
1.47 -0.308252
1.48 -0.300074
1.49 -0.290876
1.5 -0.28099
1.51 -0.270797
1.52 -0.260759
1.53 -0.2513
1.54 -0.242816
1.55 -0.235671
1.56 -0.230188
1.57 -0.226626
1.58 -0.225399
1.59 -0.226434
1.6 -0.229693
1.61 -0.235082
1.62 -0.242419
1.63 -0.251439
1.64 -0.261836
1.65 -0.27318
1.66 -0.284904
1.67 -0.296516
1.68 -0.307509
1.69 -0.317389
1.7 -0.325683
1.71 -0.331751
1.72 -0.335319
1.73 -0.336173
1.74 -0.334129
1.75 -0.3291
1.76 -0.321096
1.77 -0.31016
1.78 -0.296362
1.79 -0.280281
1.8 -0.262309
1.81 -0.242901
1.82 -0.222557
1.83 -0.201805
1.84 -0.181236
1.85 -0.161438
1.86 -0.142892
1.87 -0.126037
1.88 -0.111247
1.89 -0.0988171
1.9 -0.0889979
1.91 -0.0821437
1.92 -0.0779816
1.93 -0.0764119
1.94 -0.0772458
1.95 -0.0802149
1.96 -0.0849819
1.97 -0.0912195
1.98 -0.0984035
1.99 -0.106012
2 -0.113591
2.01 -0.120706
2.02 -0.126956
2.03 -0.131987
2.04 -0.135324
2.05 -0.136921
2.06 -0.136675
2.07 -0.134566
2.08 -0.130663
2.09 -0.125117
2.1 -0.118097
2.11 -0.109951
2.12 -0.101128
2.13 -0.0920344
2.14 -0.0830959
2.15 -0.0747453
2.16 -0.0674043
2.17 -0.0616608
2.18 -0.0577492
2.19 -0.0559386
2.2 -0.0564399
2.21 -0.059387
2.22 -0.0648324
2.23 -0.0728518
2.24 -0.0833645
2.25 -0.0959828
2.26 -0.110427
2.27 -0.12636
2.28 -0.143399
2.29 -0.16113
2.3 -0.179103
2.31 -0.19682
2.32 -0.213864
2.33 -0.229856
2.34 -0.244461
2.35 -0.257401
2.36 -0.268389
2.37 -0.277176
2.38 -0.28387
2.39 -0.288497
2.4 -0.291154
2.41 -0.292005
2.42 -0.291272
2.43 -0.28914
2.44 -0.286037
2.45 -0.282341
2.46 -0.278398
2.47 -0.274554
2.48 -0.271133
2.49 -0.268458
2.5 -0.266883
2.51 -0.266532
2.52 -0.267546
2.53 -0.270006
2.54 -0.273934
2.55 -0.279291
2.56 -0.286071
2.57 -0.294053
2.58 -0.302981
2.59 -0.31262
2.6 -0.322712
2.61 -0.332986
2.62 -0.343162
2.63 -0.352908
2.64 -0.361996
2.65 -0.370209
2.66 -0.377365
2.67 -0.38332
2.68 -0.387973
2.69 -0.391177
2.7 -0.392939
2.71 -0.39337
2.72 -0.392539
2.73 -0.390552
2.74 -0.387532
2.75 -0.38362
2.76 -0.378897
2.77 -0.373611
2.78 -0.367898
2.79 -0.36188
2.8 -0.355656
2.81 -0.349296
2.82 -0.342839
2.83 -0.336291
2.84 -0.32963
2.85 -0.322798
2.86 -0.315713
2.87 -0.308271
2.88 -0.300355
2.89 -0.291762
2.9 -0.282409
2.91 -0.272185
2.92 -0.260988
2.93 -0.248736
2.94 -0.235373
2.95 -0.220827
2.96 -0.205082
2.97 -0.188278
2.98 -0.170506
2.99 -0.151894
3 -0.132597
3.01 -0.1128
3.02 -0.0926962
3.03 -0.0725524
3.04 -0.0525968
3.05 -0.0330482
3.06 -0.0141135
3.07 0.0040193
3.08 0.0211533
3.09 0.0370877
3.1 0.0518248
3.11 0.0653234
3.12 0.0775848
3.13 0.0886524
3.14 0.0986105
3.15 0.10751
3.16 0.115584
3.17 0.12305
3.18 0.130116
3.19 0.136998
3.2 0.143917
3.21 0.151094
3.22 0.158788
3.23 0.167143
3.24 0.176301
3.25 0.18637
3.26 0.197419
3.27 0.209475
3.28 0.222593
3.29 0.236671
3.3 0.251561
3.31 0.267121
3.32 0.283179
3.33 0.299539
3.34 0.315988
3.35 0.332261
3.36 0.348131
3.37 0.36338
3.38 0.377808
3.39 0.391234
3.4 0.403505
3.41 0.414414
3.42 0.423878
3.43 0.431929
3.44 0.438567
3.45 0.443827
3.46 0.447781
3.47 0.450531
3.48 0.452102
3.49 0.452786
3.5 0.452756
3.51 0.452191
3.52 0.451273
3.53 0.450181
3.54 0.449088
3.55 0.448171
3.56 0.447555
3.57 0.447342
3.58 0.447611
3.59 0.448412
3.6 0.449766
3.61 0.451725
3.62 0.454203
3.63 0.457137
3.64 0.460455
3.65 0.46407
3.66 0.467886
3.67 0.471803
3.68 0.475707
3.69 0.479495
3.7 0.48308
3.71 0.486386
3.72 0.489348
3.73 0.491918
3.74 0.494021
3.75 0.495667
3.76 0.496867
3.77 0.497631
3.78 0.49798
3.79 0.497941
3.8 0.497537
3.81 0.496784
3.82 0.495743
3.83 0.494436
3.84 0.492876
3.85 0.491067
3.86 0.488998
3.87 0.48662
3.88 0.483903
3.89 0.480802
3.9 0.477253
3.91 0.473178
3.92 0.468495
3.93 0.463101
3.94 0.456829
3.95 0.449663
3.96 0.441519
3.97 0.432323
3.98 0.422013
3.99 0.410541
4 0.39779
4.01 0.383778
4.02 0.368571
4.03 0.3522
4.04 0.334715
4.05 0.316184
4.06 0.296686
4.07 0.276245
4.08 0.255081
4.09 0.233317
4.1 0.211082
4.11 0.188508
4.12 0.165729
4.13 0.142876
4.14 0.120091
4.15 0.0974911
4.16 0.0751808
4.17 0.0532526
4.18 0.0317873
4.19 0.0108537
4.2 -0.00941993
4.21 -0.0290505
4.22 -0.0480087
4.23 -0.066272
4.24 -0.0838253
4.25 -0.10066
4.26 -0.116737
4.27 -0.132042
4.28 -0.146625
4.29 -0.16049
4.3 -0.173636
4.31 -0.186066
4.32 -0.197779
4.33 -0.208701
4.34 -0.218893
4.35 -0.228363
4.36 -0.23711
4.37 -0.245137
4.38 -0.252446
4.39 -0.259021
4.4 -0.264849
4.41 -0.270005
4.42 -0.274517
4.43 -0.278419
4.44 -0.281751
4.45 -0.28456
4.46 -0.28686
4.47 -0.288748
4.48 -0.290297
4.49 -0.291571
4.5 -0.292634
4.51 -0.293548
4.52 -0.29437
4.53 -0.29516
4.54 -0.295969
4.55 -0.296834
4.56 -0.297783
4.57 -0.298834
4.58 -0.299993
4.59 -0.301265
4.6 -0.302629
4.61 -0.304057
4.62 -0.305515
4.63 -0.306966
4.64 -0.308366
4.65 -0.309669
4.66 -0.310813
4.67 -0.311764
4.68 -0.312485
4.69 -0.312945
4.7 -0.31312
4.71 -0.312996
4.72 -0.312548
4.73 -0.311793
4.74 -0.310767
4.75 -0.309501
4.76 -0.308037
4.77 -0.306427
4.78 -0.304727
4.79 -0.303006
4.8 -0.301341
4.81 -0.299801
4.82 -0.298452
4.83 -0.297358
4.84 -0.296576
4.85 -0.296181
4.86 -0.296219
4.87 -0.296695
4.88 -0.297626
4.89 -0.299016
4.9 -0.300855
4.91 -0.303124
4.92 -0.30583
4.93 -0.308883
4.94 -0.312227
4.95 -0.315803
4.96 -0.319543
4.97 -0.323378
4.98 -0.327233
4.99 -0.331024
5 -0.334682
5.01 -0.338138
5.02 -0.34133
5.03 -0.344201
5.04 -0.346701
5.05 -0.348737
5.06 -0.350303
5.07 -0.351375
5.08 -0.351927
5.09 -0.351938
5.1 -0.351392
5.11 -0.350253
5.12 -0.348481
5.13 -0.346112
5.14 -0.343133
5.15 -0.339533
5.16 -0.335296
5.17 -0.330407
5.18 -0.324784
5.19 -0.318443
5.2 -0.311378
5.21 -0.303561
5.22 -0.294965
5.23 -0.285561
5.24 -0.275297
5.25 -0.264085
5.26 -0.251978
5.27 -0.238956
5.28 -0.225003
5.29 -0.210107
5.3 -0.194267
5.31 -0.177414
5.32 -0.159599
5.33 -0.140881
5.34 -0.121293
5.35 -0.100876
5.36 -0.0796789
5.37 -0.0577523
5.38 -0.0351138
5.39 -0.0119144
5.4 0.0117609
5.41 0.0358198
5.42 0.0601638
5.43 0.0846888
5.44 0.109282
5.45 0.133811
5.46 0.158153
5.47 0.182187
5.48 0.205788
5.49 0.228831
5.5 0.251185
5.51 0.272617
5.52 0.293081
5.53 0.312454
5.54 0.330612
5.55 0.347437
5.56 0.362817
5.57 0.376553
5.58 0.388523
5.59 0.398735
5.6 0.407114
5.61 0.413598
5.62 0.418136
5.63 0.420695
5.64 0.421041
5.65 0.419373
5.66 0.415732
5.67 0.410156
5.68 0.402704
5.69 0.393449
5.7 0.382414
5.71 0.369678
5.72 0.355488
5.73 0.339981
5.74 0.323304
5.75 0.305608
5.76 0.287052
5.77 0.267741
5.78 0.247906
5.79 0.227714
5.8 0.207309
5.81 0.186831
5.82 0.166404
5.83 0.146153
5.84 0.126204
5.85 0.106623
5.86 0.0874782
5.87 0.0688247
5.88 0.0507038
5.89 0.0331451
5.9 0.0162195
5.91 -9.27255e-05
5.92 -0.0158051
5.93 -0.0309155
5.94 -0.0454224
5.95 -0.0593226
5.96 -0.0725949
5.97 -0.085178
5.98 -0.0971081
5.99 -0.108354
6 -0.118877
6.01 -0.128628
6.02 -0.137549
6.03 -0.145506
6.04 -0.152448
6.05 -0.158339
6.06 -0.163106
6.07 -0.166677
6.08 -0.168987
6.09 -0.169963
6.1 -0.169424
6.11 -0.167482
6.12 -0.164127
6.13 -0.159364
6.14 -0.153221
6.15 -0.145746
6.16 -0.136934
6.17 -0.126904
6.18 -0.115837
6.19 -0.103865
6.2 -0.091135
6.21 -0.0778043
6.22 -0.0640398
6.23 -0.0500024
6.24 -0.0359101
6.25 -0.0219301
6.26 -0.00822108
6.27 0.00507021
6.28 0.0178125
6.29 0.0298526
6.3 0.0410792
6.31 0.0514729
6.32 0.0609947
6.33 0.0696298
6.34 0.0773874
6.35 0.0842992
6.36 0.090342
6.37 0.0956731
6.38 0.100393
6.39 0.104605
6.4 0.10842
6.41 0.111957
6.42 0.11533
6.43 0.118671
6.44 0.122099
6.45 0.125712
6.46 0.129599
6.47 0.133834
6.48 0.138477
6.49 0.143619
6.5 0.149256
6.51 0.15539
6.52 0.162016
6.53 0.169119
6.54 0.176672
6.55 0.184651
6.56 0.193029
6.57 0.201726
6.58 0.210693
6.59 0.219885
6.6 0.229257
6.61 0.238769
6.62 0.248392
6.63 0.25809
6.64 0.267838
6.65 0.27762
6.66 0.287425
6.67 0.297245
6.68 0.307078
6.69 0.316918
6.7 0.32676
6.71 0.336594
6.72 0.346407
6.73 0.356177
6.74 0.365875
6.75 0.375449
6.76 0.384845
6.77 0.394003
6.78 0.402849
6.79 0.411298
6.8 0.419256
6.81 0.426615
6.82 0.433181
6.83 0.438909
6.84 0.443685
6.85 0.447395
6.86 0.449933
6.87 0.451195
6.88 0.451001
6.89 0.449268
6.9 0.446009
6.91 0.441175
6.92 0.434736
6.93 0.426678
6.94 0.417004
6.95 0.405556
6.96 0.392557
6.97 0.378067
6.98 0.362158
6.99 0.344913
7 0.326422
7.01 0.306735
7.02 0.285957
7.03 0.264272
7.04 0.241792
7.05 0.218626
7.06 0.194881
7.07 0.17066
7.08 0.146031
7.09 0.12113
7.1 0.0960462
7.11 0.0708585
7.12 0.0456399
7.13 0.0204582
7.14 -0.0046166
7.15 -0.02951
7.16 -0.0541738
7.17 -0.0785522
7.18 -0.10259
7.19 -0.126231
7.2 -0.149419
7.21 -0.172043
7.22 -0.194069
7.23 -0.215451
7.24 -0.236124
7.25 -0.256027
7.26 -0.275097
7.27 -0.293247
7.28 -0.310355
7.29 -0.326449
7.3 -0.341483
7.31 -0.35542
7.32 -0.368229
7.33 -0.379891
7.34 -0.390302
7.35 -0.399517
7.36 -0.407593
7.37 -0.414558
7.38 -0.42045
7.39 -0.425315
7.4 -0.429195
7.41 -0.432089
7.42 -0.434163
7.43 -0.435493
7.44 -0.436157
7.45 -0.436231
7.46 -0.435791
7.47 -0.434883
7.48 -0.43359
7.49 -0.43199
7.5 -0.430131
7.51 -0.428052
7.52 -0.425782
7.53 -0.423338
7.54 -0.420711
7.55 -0.417918
7.56 -0.414945
7.57 -0.411773
7.58 -0.408375
7.59 -0.404722
7.6 -0.400761
7.61 -0.39645
7.62 -0.391774
7.63 -0.386699
7.64 -0.381199
7.65 -0.375248
7.66 -0.368832
7.67 -0.361886
7.68 -0.354462
7.69 -0.346568
7.7 -0.338222
7.71 -0.329449
7.72 -0.320279
7.73 -0.310736
7.74 -0.300864
7.75 -0.290739
7.76 -0.280414
7.77 -0.269945
7.78 -0.259389
7.79 -0.248803
7.8 -0.238253
7.81 -0.227797
7.82 -0.217485
7.83 -0.207366
7.84 -0.197485
7.85 -0.187881
7.86 -0.178604
7.87 -0.169706
7.88 -0.161186
7.89 -0.153069
7.9 -0.145375
7.91 -0.138119
7.92 -0.131316
7.93 -0.125019
7.94 -0.119211
7.95 -0.113884
7.96 -0.109046
7.97 -0.1047
7.98 -0.10085
7.99 -0.0975112
8 -0.0947169
8.01 -0.0924213
8.02 -0.0906229
8.03 -0.0893185
8.04 -0.0885033
8.05 -0.0881712
8.06 -0.0883501
8.07 -0.0890095
8.08 -0.0901182
8.09 -0.0916618
8.1 -0.0936233
8.11 -0.0959843
8.12 -0.0987293
8.13 -0.101864
8.14 -0.105327
8.15 -0.10909
8.16 -0.113127
8.17 -0.117409
8.18 -0.121904
8.19 -0.126592
8.2 -0.131431
8.21 -0.136375
8.22 -0.141388
8.23 -0.146428
8.24 -0.151455
8.25 -0.156422
8.26 -0.161263
8.27 -0.165934
8.28 -0.17038
8.29 -0.17454
8.3 -0.178354
8.31 -0.181755
8.32 -0.184645
8.33 -0.186937
8.34 -0.188591
8.35 -0.189534
8.36 -0.189692
8.37 -0.188995
8.38 -0.187375
8.39 -0.184656
8.4 -0.180873
8.41 -0.175987
8.42 -0.169957
8.43 -0.162752
8.44 -0.154353
8.45 -0.144697
8.46 -0.133759
8.47 -0.121645
8.48 -0.108387
8.49 -0.0940299
8.5 -0.0786283
8.51 -0.0622485
8.52 -0.0448853
8.53 -0.0267039
8.54 -0.00781153
8.55 0.0116978
8.56 0.0317279
8.57 0.052183
8.58 0.0729769
8.59 0.094019
8.6 0.1152
8.61 0.136443
8.62 0.157679
8.63 0.178849
8.64 0.199901
8.65 0.220776
8.66 0.241445
8.67 0.26189
8.68 0.282092
8.69 0.302037
8.7 0.321715
8.71 0.34111
8.72 0.360191
8.73 0.378969
8.74 0.397427
8.75 0.41554
8.76 0.433276
8.77 0.450592
8.78 0.467398
8.79 0.483636
8.8 0.499253
8.81 0.514163
8.82 0.528273
8.83 0.541483
8.84 0.553672
8.85 0.564611
8.86 0.574297
8.87 0.582617
8.88 0.589464
8.89 0.594737
8.9 0.598344
8.91 0.600083
8.92 0.599899
8.93 0.597834
8.94 0.593854
8.95 0.587939
8.96 0.580091
8.97 0.570324
8.98 0.558462
8.99 0.54478
9 0.52935
9.01 0.512252
9.02 0.493583
9.03 0.473444
9.04 0.451882
9.05 0.429022
9.06 0.405069
9.07 0.380146
9.08 0.354377
9.09 0.327883
9.1 0.300783
9.11 0.273151
9.12 0.245158
9.13 0.216913
9.14 0.18852
9.15 0.160076
9.16 0.131676
9.17 0.103425
9.18 0.0754326
9.19 0.0477792
9.2 0.0205559
9.21 -0.00614519
9.22 -0.03223
9.23 -0.0576027
9.24 -0.0820779
9.25 -0.105604
9.26 -0.128097
9.27 -0.149455
9.28 -0.169575
9.29 -0.188358
9.3 -0.205658
9.31 -0.221289
9.32 -0.23529
9.33 -0.247588
9.34 -0.258117
9.35 -0.266824
9.36 -0.273668
9.37 -0.278461
9.38 -0.281294
9.39 -0.282233
9.4 -0.281304
9.41 -0.278543
9.42 -0.274004
9.43 -0.267718
9.44 -0.259651
9.45 -0.250058
9.46 -0.239037
9.47 -0.226694
9.48 -0.213139
9.49 -0.198484
9.5 -0.182777
9.51 -0.166177
9.52 -0.148833
9.53 -0.130849
9.54 -0.112327
9.55 -0.0933586
9.56 -0.0740314
9.57 -0.0544108
9.58 -0.0346099
9.59 -0.014701
9.6 0.00524711
9.61 0.0251677
9.62 0.0449954
9.63 0.0646507
9.64 0.0840582
9.65 0.103158
9.66 0.121878
9.67 0.140142
9.68 0.157872
9.69 0.174985
9.7 0.191304
9.71 0.206811
9.72 0.221419
9.73 0.235037
9.74 0.247579
9.75 0.258961
9.76 0.26904
9.77 0.277718
9.78 0.28502
9.79 0.290902
9.8 0.295333
9.81 0.298298
9.82 0.299797
9.83 0.299697
9.84 0.298173
9.85 0.295297
9.86 0.291137
9.87 0.285778
9.88 0.279316
9.89 0.271821
9.9 0.263393
9.91 0.254229
9.92 0.244452
9.93 0.234186
9.94 0.223549
9.95 0.212657
9.96 0.201612
9.97 0.190529
9.98 0.179492
9.99 0.16857
10 0.157818
10.01 0.147274
10.02 0.136973
10.03 0.126941
10.04 0.117155
10.05 0.107599
10.06 0.0982531
10.07 0.0890863
10.08 0.0800649
10.09 0.0711576
10.1 0.0623172
10.11 0.053505
10.12 0.0446898
10.13 0.0358458
10.14 0.0269541
10.15 0.0180021
10.16 0.00898248
10.17 -9.10098e-05
10.18 -0.0092023
10.19 -0.0183277
10.2 -0.0274367
10.21 -0.0364933
10.22 -0.0454469
10.23 -0.0542504
10.24 -0.0628634
10.25 -0.0712423
10.26 -0.0793453
10.27 -0.0871347
10.28 -0.0945749
10.29 -0.101598
10.3 -0.108224
10.31 -0.114442
10.32 -0.120249
10.33 -0.125648
10.34 -0.130651
10.35 -0.135252
10.36 -0.139481
10.37 -0.143386
10.38 -0.147
10.39 -0.150356
10.4 -0.153489
10.41 -0.156434
10.42 -0.15921
10.43 -0.161867
10.44 -0.164436
10.45 -0.16694
10.46 -0.169401
10.47 -0.171837
10.48 -0.174261
10.49 -0.176685
10.5 -0.179118
10.51 -0.181565
10.52 -0.184028
10.53 -0.18651
10.54 -0.189012
10.55 -0.191539
10.56 -0.194091
10.57 -0.196671
10.58 -0.199282
10.59 -0.201931
10.6 -0.204621
10.61 -0.207361
10.62 -0.21016
10.63 -0.21302
10.64 -0.215944
10.65 -0.218935
10.66 -0.221991
10.67 -0.225109
10.68 -0.228286
10.69 -0.231506
10.7 -0.23475
10.71 -0.237998
10.72 -0.241226
10.73 -0.244407
10.74 -0.247509
10.75 -0.250489
10.76 -0.253322
10.77 -0.255977
10.78 -0.258424
10.79 -0.260639
10.8 -0.2626
10.81 -0.26427
10.82 -0.265651
10.83 -0.266753
10.84 -0.267587
10.85 -0.268168
10.86 -0.268522
10.87 -0.268679
10.88 -0.268671
10.89 -0.268564
10.9 -0.268406
10.91 -0.268251
10.92 -0.26815
10.93 -0.268154
10.94 -0.268322
10.95 -0.268697
10.96 -0.269301
10.97 -0.270154
10.98 -0.271264
10.99 -0.272628
11 -0.27423
11.01 -0.276055
11.02 -0.278031
11.03 -0.280097
11.04 -0.282183
11.05 -0.284209
11.06 -0.286086
11.07 -0.287701
11.08 -0.288944
11.09 -0.289734
11.1 -0.289981
11.11 -0.2896
11.12 -0.288515
11.13 -0.286663
11.14 -0.283899
11.15 -0.280272
11.16 -0.275774
11.17 -0.270409
11.18 -0.2642
11.19 -0.257183
11.2 -0.249382
11.21 -0.240864
11.22 -0.231764
11.23 -0.222179
11.24 -0.212209
11.25 -0.201963
11.26 -0.191546
11.27 -0.181067
11.28 -0.170644
11.29 -0.160366
11.3 -0.150314
11.31 -0.140555
11.32 -0.131142
11.33 -0.122127
11.34 -0.113551
11.35 -0.105383
11.36 -0.097609
11.37 -0.0902011
11.38 -0.0831179
11.39 -0.0763071
11.4 -0.0697204
11.41 -0.0632684
11.42 -0.0568733
11.43 -0.0504621
11.44 -0.0439638
11.45 -0.0373111
11.46 -0.0304363
11.47 -0.0232615
11.48 -0.0157662
11.49 -0.00791926
11.5 0.000299875
11.51 0.00890083
11.52 0.0178828
11.53 0.0272624
11.54 0.0370026
11.55 0.0470605
11.56 0.0574028
11.57 0.0679924
11.58 0.0787906
11.59 0.0897602
11.6 0.100872
11.61 0.112074
11.62 0.12334
11.63 0.134645
11.64 0.14597
11.65 0.157305
11.66 0.168643
11.67 0.179983
11.68 0.19133
11.69 0.20269
11.7 0.214071
11.71 0.225483
11.72 0.236932
11.73 0.248426
11.74 0.259957
11.75 0.271517
11.76 0.283087
11.77 0.294643
11.78 0.306148
11.79 0.317552
11.8 0.328788
11.81 0.3398
11.82 0.350513
11.83 0.360849
11.84 0.370725
11.85 0.380052
11.86 0.388663
11.87 0.396525
11.88 0.403559
11.89 0.409684
11.9 0.414829
11.91 0.418928
11.92 0.421877
11.93 0.423594
11.94 0.424133
11.95 0.423478
11.96 0.421626
11.97 0.418587
11.98 0.414381
11.99 0.408936
12 0.402386
12.01 0.394808
12.02 0.38626
12.03 0.376809
12.04 0.366522
12.05 0.355448
12.06 0.343634
12.07 0.331215
12.08 0.318261
12.09 0.304841
12.1 0.291019
12.11 0.276858
12.12 0.262398
12.13 0.247719
12.14 0.232881
12.15 0.217937
12.16 0.202937
12.17 0.18793
12.18 0.172969
12.19 0.158119
12.2 0.143427
12.21 0.128948
12.22 0.114738
