# xPDFsuite Configuration #
[PDF]
wavelength = 0.1
dataformat = QA
inputfile = BiMsol6_insitu_700 C-00019.xy
backgroundfile = Quartz2mm-dist500-00000.xy
mode = xray
bgscale = 0.0042
composition = Bi2Fe4O9
outputtype = gr
qmaxinst = 24.998449118
qmin = 0.1
qmax = 21.4986662415
rmax = 80.0
rmin = 0.0
rstep = 0.01
rpoly = 0.9

[Misc]
inputdir = C:/Data/Seafile/CPH/Beamtime/Desy Oct 20/In situ data/Processed/BiMsol6/PDF
savedir = C:/Data/Seafile/CPH/Beamtime/Desy Oct 20/In situ data/PDF/BiMsol6
backgroundfilefull = C:/Data/Seafile/CPH/Beamtime/Desy Oct 20/In situ data/Processed/Standard_Empty_Cap/Quartz2mm-dist500-00000.xy

#### start data
#S 1
#L r($\AA$)  G($\AA^{-2}$)
0 0
0.01 0.00672055
0.02 0.0130657
0.03 0.0187142
0.04 0.0233775
0.05 0.0268135
0.06 0.0288374
0.07 0.0292467
0.08 0.027982
0.09 0.0251909
0.1 0.0209949
0.11 0.0155827
0.12 0.00920187
0.13 0.00214836
0.14 -0.00524596
0.15 -0.012561
0.16 -0.0194427
0.17 -0.0255585
0.18 -0.03061
0.19 -0.0343473
0.2 -0.0365134
0.21 -0.0369319
0.22 -0.0357015
0.23 -0.0328885
0.24 -0.0286397
0.25 -0.0231778
0.26 -0.0167933
0.27 -0.00981488
0.28 -0.00272141
0.29 0.00406146
0.3 0.0101204
0.31 0.0150623
0.32 0.0185329
0.33 0.020174
0.34 0.0196346
0.35 0.0169642
0.36 0.0121569
0.37 0.0053138
0.38 -0.00335594
0.39 -0.0135377
0.4 -0.0248681
0.41 -0.036716
0.42 -0.0484621
0.43 -0.0594773
0.44 -0.069111
0.45 -0.0767152
0.46 -0.0816058
0.47 -0.0829038
0.48 -0.0804169
0.49 -0.0737905
0.5 -0.0627953
0.51 -0.047342
0.52 -0.0274909
0.53 -0.00318128
0.54 0.0250204
0.55 0.0563715
0.56 0.0901802
0.57 0.125639
0.58 0.161849
0.59 0.197829
0.6 0.232327
0.61 0.264377
0.62 0.293003
0.63 0.317294
0.64 0.336431
0.65 0.349722
0.66 0.356195
0.67 0.355474
0.68 0.347763
0.69 0.333095
0.7 0.311689
0.71 0.283949
0.72 0.250451
0.73 0.211449
0.74 0.168473
0.75 0.122531
0.76 0.074684
0.77 0.0260308
0.78 -0.0223277
0.79 -0.069197
0.8 -0.113391
0.81 -0.154123
0.82 -0.190632
0.83 -0.222298
0.84 -0.248663
0.85 -0.269437
0.86 -0.283921
0.87 -0.292727
0.88 -0.296199
0.89 -0.294754
0.9 -0.288938
0.91 -0.279404
0.92 -0.266804
0.93 -0.251962
0.94 -0.235916
0.95 -0.219476
0.96 -0.203411
0.97 -0.188427
0.98 -0.175149
0.99 -0.164343
1 -0.156287
1.01 -0.151171
1.02 -0.14911
1.03 -0.150092
1.04 -0.153985
1.05 -0.160615
1.06 -0.169731
1.07 -0.180668
1.08 -0.192947
1.09 -0.206057
1.1 -0.219481
1.11 -0.232717
1.12 -0.245205
1.13 -0.256517
1.14 -0.266349
1.15 -0.274451
1.16 -0.280666
1.17 -0.284923
1.18 -0.287212
1.19 -0.287513
1.2 -0.28622
1.21 -0.283597
1.22 -0.279958
1.23 -0.275644
1.24 -0.271013
1.25 -0.266447
1.26 -0.262323
1.27 -0.258923
1.28 -0.256482
1.29 -0.255175
1.3 -0.255105
1.31 -0.256309
1.32 -0.258859
1.33 -0.26248
1.34 -0.266976
1.35 -0.272098
1.36 -0.277556
1.37 -0.283032
1.38 -0.28816
1.39 -0.292565
1.4 -0.295972
1.41 -0.298121
1.42 -0.298804
1.43 -0.297875
1.44 -0.295255
1.45 -0.290759
1.46 -0.284665
1.47 -0.277148
1.48 -0.268443
1.49 -0.258842
1.5 -0.248688
1.51 -0.238366
1.52 -0.228334
1.53 -0.218996
1.54 -0.210724
1.55 -0.203861
1.56 -0.198696
1.57 -0.195459
1.58 -0.194523
1.59 -0.195777
1.6 -0.199152
1.61 -0.204524
1.62 -0.211688
1.63 -0.22036
1.64 -0.230212
1.65 -0.240805
1.66 -0.251593
1.67 -0.262097
1.68 -0.271833
1.69 -0.280335
1.7 -0.287166
1.71 -0.291725
1.72 -0.293788
1.73 -0.293187
1.74 -0.28978
1.75 -0.283518
1.76 -0.274445
1.77 -0.262636
1.78 -0.248194
1.79 -0.231685
1.8 -0.213495
1.81 -0.194061
1.82 -0.173856
1.83 -0.153366
1.84 -0.133136
1.85 -0.113684
1.86 -0.0954212
1.87 -0.0787166
1.88 -0.063872
1.89 -0.0511131
1.9 -0.0406164
1.91 -0.0326341
1.92 -0.026881
1.93 -0.0232203
1.94 -0.0214403
1.95 -0.0212645
1.96 -0.0223639
1.97 -0.0244054
1.98 -0.0269248
1.99 -0.0294866
2 -0.0317136
2.01 -0.0332599
2.02 -0.0338256
2.03 -0.0331642
2.04 -0.0309378
2.05 -0.0272158
2.06 -0.0220051
2.07 -0.0153937
2.08 -0.00754804
2.09 0.00129296
2.1 0.0108447
2.11 0.0206919
2.12 0.0303938
2.13 0.0395297
2.14 0.0476753
2.15 0.0544197
2.16 0.05938
2.17 0.0619533
2.18 0.0620585
2.19 0.0595179
2.2 0.0542158
2.21 0.04612
2.22 0.0352834
2.23 0.0217352
2.24 0.00567401
2.25 -0.0124065
2.26 -0.0321364
2.27 -0.053098
2.28 -0.0748389
2.29 -0.0968873
2.3 -0.118704
2.31 -0.13979
2.32 -0.159722
2.33 -0.178116
2.34 -0.194642
2.35 -0.209036
2.36 -0.221021
2.37 -0.230359
2.38 -0.237228
2.39 -0.241688
2.4 -0.24387
2.41 -0.243972
2.42 -0.242246
2.43 -0.238887
2.44 -0.234363
2.45 -0.229074
2.46 -0.223382
2.47 -0.217639
2.48 -0.212178
2.49 -0.20732
2.5 -0.203414
2.51 -0.200597
2.52 -0.199011
2.53 -0.198742
2.54 -0.199818
2.55 -0.202208
2.56 -0.205916
2.57 -0.210743
2.58 -0.216461
2.59 -0.222862
2.6 -0.229718
2.61 -0.236792
2.62 -0.243841
2.63 -0.250585
2.64 -0.256823
2.65 -0.262376
2.66 -0.267094
2.67 -0.270863
2.68 -0.27361
2.69 -0.275232
2.7 -0.275751
2.71 -0.275273
2.72 -0.273879
2.73 -0.271675
2.74 -0.268788
2.75 -0.265358
2.76 -0.261505
2.77 -0.257435
2.78 -0.253286
2.79 -0.249183
2.8 -0.245233
2.81 -0.24152
2.82 -0.238121
2.83 -0.235076
2.84 -0.232366
2.85 -0.229968
2.86 -0.227837
2.87 -0.225911
2.88 -0.224113
2.89 -0.22235
2.9 -0.220517
2.91 -0.218525
2.92 -0.21629
2.93 -0.213738
2.94 -0.21081
2.95 -0.207445
2.96 -0.203604
2.97 -0.199319
2.98 -0.19461
2.99 -0.189512
3 -0.184078
3.01 -0.178371
3.02 -0.172453
3.03 -0.166424
3.04 -0.160365
3.05 -0.154346
3.06 -0.148431
3.07 -0.142668
3.08 -0.137097
3.09 -0.131747
3.1 -0.126591
3.11 -0.121602
3.12 -0.116734
3.13 -0.111922
3.14 -0.107089
3.15 -0.102124
3.16 -0.0969222
3.17 -0.0913844
3.18 -0.0854087
3.19 -0.0788989
3.2 -0.0717685
3.21 -0.0639281
3.22 -0.0552588
3.23 -0.0457957
3.24 -0.0355261
3.25 -0.0244582
3.26 -0.0126207
3.27 -6.15621e-05
3.28 0.0131968
3.29 0.0270421
3.3 0.0413542
3.31 0.0560348
3.32 0.0709844
3.33 0.0861055
3.34 0.101307
3.35 0.1165
3.36 0.131614
3.37 0.146602
3.38 0.161433
3.39 0.176097
3.4 0.190599
3.41 0.204957
3.42 0.219216
3.43 0.233436
3.44 0.247676
3.45 0.261998
3.46 0.276463
3.47 0.291126
3.48 0.306064
3.49 0.321278
3.5 0.336778
3.51 0.352547
3.52 0.368549
3.53 0.384721
3.54 0.400975
3.55 0.417181
3.56 0.433196
3.57 0.448864
3.58 0.464016
3.59 0.478472
3.6 0.492048
3.61 0.504431
3.62 0.515525
3.63 0.525182
3.64 0.533258
3.65 0.539632
3.66 0.54421
3.67 0.546847
3.68 0.547442
3.69 0.546144
3.7 0.542993
3.71 0.538057
3.72 0.531436
3.73 0.523254
3.74 0.513539
3.75 0.502576
3.76 0.490576
3.77 0.477723
3.78 0.464201
3.79 0.450192
3.8 0.435863
3.81 0.421384
3.82 0.406916
3.83 0.392579
3.84 0.378466
3.85 0.364653
3.86 0.351191
3.87 0.33814
3.88 0.325492
3.89 0.313219
3.9 0.301294
3.91 0.289679
3.92 0.27833
3.93 0.267198
3.94 0.25624
3.95 0.245388
3.96 0.234602
3.97 0.223848
3.98 0.213102
3.99 0.202352
4 0.191597
4.01 0.180848
4.02 0.170127
4.03 0.159465
4.04 0.148898
4.05 0.138466
4.06 0.128215
4.07 0.118214
4.08 0.108482
4.09 0.0990512
4.1 0.0899489
4.11 0.0811928
4.12 0.0727916
4.13 0.0647648
4.14 0.0570973
4.15 0.049747
4.16 0.0426845
4.17 0.035874
4.18 0.0292759
4.19 0.0228486
4.2 0.0165607
4.21 0.0103563
4.22 0.00420194
4.23 -0.00192808
4.24 -0.00805113
4.25 -0.014175
4.26 -0.0202967
4.27 -0.0263996
4.28 -0.0324587
4.29 -0.0384399
4.3 -0.0443017
4.31 -0.0499974
4.32 -0.0554769
4.33 -0.0606564
4.34 -0.0655051
4.35 -0.0699829
4.36 -0.0740526
4.37 -0.0776862
4.38 -0.0808662
4.39 -0.08357
4.4 -0.0857893
4.41 -0.0875842
4.42 -0.0889912
4.43 -0.0900581
4.44 -0.0908429
4.45 -0.0914113
4.46 -0.0918288
4.47 -0.0921886
4.48 -0.0925688
4.49 -0.0930406
4.5 -0.0936688
4.51 -0.09451
4.52 -0.0956176
4.53 -0.0970451
4.54 -0.0987834
4.55 -0.100832
4.56 -0.103175
4.57 -0.105783
4.58 -0.108613
4.59 -0.111618
4.6 -0.114715
4.61 -0.117825
4.62 -0.120871
4.63 -0.123776
4.64 -0.126464
4.65 -0.128858
4.66 -0.130861
4.67 -0.132454
4.68 -0.133601
4.69 -0.134279
4.7 -0.134482
4.71 -0.134217
4.72 -0.133479
4.73 -0.132321
4.74 -0.130816
4.75 -0.129025
4.76 -0.127019
4.77 -0.124872
4.78 -0.12266
4.79 -0.120471
4.8 -0.118382
4.81 -0.11646
4.82 -0.114763
4.83 -0.113339
4.84 -0.112226
4.85 -0.111469
4.86 -0.111083
4.87 -0.111045
4.88 -0.111343
4.89 -0.111954
4.9 -0.112848
4.91 -0.113988
4.92 -0.115351
4.93 -0.116867
4.94 -0.118492
4.95 -0.120184
4.96 -0.121908
4.97 -0.12363
4.98 -0.125324
4.99 -0.126968
5 -0.128555
5.01 -0.130084
5.02 -0.131558
5.03 -0.132988
5.04 -0.134385
5.05 -0.135767
5.06 -0.137154
5.07 -0.13856
5.08 -0.14
5.09 -0.141481
5.1 -0.143007
5.11 -0.144575
5.12 -0.146174
5.13 -0.147782
5.14 -0.149373
5.15 -0.150915
5.16 -0.152372
5.17 -0.153705
5.18 -0.154852
5.19 -0.155779
5.2 -0.156451
5.21 -0.156835
5.22 -0.156904
5.23 -0.156639
5.24 -0.156021
5.25 -0.155028
5.26 -0.153707
5.27 -0.152083
5.28 -0.150189
5.29 -0.14807
5.3 -0.145778
5.31 -0.143365
5.32 -0.140907
5.33 -0.138469
5.34 -0.136112
5.35 -0.133892
5.36 -0.131858
5.37 -0.130053
5.38 -0.128532
5.39 -0.127284
5.4 -0.126309
5.41 -0.125593
5.42 -0.125108
5.43 -0.124815
5.44 -0.124668
5.45 -0.124592
5.46 -0.124514
5.47 -0.12436
5.48 -0.124058
5.49 -0.123537
5.5 -0.122731
5.51 -0.12154
5.52 -0.119955
5.53 -0.117948
5.54 -0.115504
5.55 -0.112626
5.56 -0.109331
5.57 -0.105636
5.58 -0.101596
5.59 -0.0973007
5.6 -0.0928244
5.61 -0.0882497
5.62 -0.0836634
5.63 -0.0791527
5.64 -0.0748282
5.65 -0.0707585
5.66 -0.0670074
5.67 -0.0636274
5.68 -0.0606552
5.69 -0.0581101
5.7 -0.0560116
5.71 -0.0543482
5.72 -0.0530479
5.73 -0.0520529
5.74 -0.0512908
5.75 -0.050677
5.76 -0.0501182
5.77 -0.0495011
5.78 -0.0487178
5.79 -0.0476732
5.8 -0.0462785
5.81 -0.0444562
5.82 -0.0421435
5.83 -0.0392759
5.84 -0.0357982
5.85 -0.0317566
5.86 -0.0271736
5.87 -0.0220927
5.88 -0.0165774
5.89 -0.0107088
5.9 -0.00457092
5.91 0.00169874
5.92 0.00797517
5.93 0.0141385
5.94 0.0200709
5.95 0.0256611
5.96 0.0307965
5.97 0.0353433
5.98 0.0392828
5.99 0.0425735
6 0.0451974
6.01 0.0471602
6.02 0.0484918
6.03 0.0492077
6.04 0.0494154
6.05 0.0492369
6.06 0.0487854
6.07 0.0481843
6.08 0.0475634
6.09 0.047057
6.1 0.0468311
6.11 0.0469885
6.12 0.047633
6.13 0.0488513
6.14 0.0507092
6.15 0.0532499
6.16 0.0565359
6.17 0.0605472
6.18 0.0652067
6.19 0.0704508
6.2 0.076194
6.21 0.082332
6.22 0.0887446
6.23 0.095301
6.24 0.101832
6.25 0.108198
6.26 0.114262
6.27 0.119894
6.28 0.124979
6.29 0.129377
6.3 0.13299
6.31 0.135807
6.32 0.137798
6.33 0.138958
6.34 0.139303
6.35 0.138875
6.36 0.137668
6.37 0.135839
6.38 0.133494
6.39 0.130742
6.4 0.127696
6.41 0.124474
6.42 0.121192
6.43 0.117977
6.44 0.114929
6.45 0.112132
6.46 0.109654
6.47 0.107548
6.48 0.105846
6.49 0.104604
6.5 0.103783
6.51 0.10335
6.52 0.103265
6.53 0.103474
6.54 0.103915
6.55 0.10452
6.56 0.10521
6.57 0.105896
6.58 0.106506
6.59 0.106973
6.6 0.107239
6.61 0.107254
6.62 0.106955
6.63 0.106329
6.64 0.105376
6.65 0.104101
6.66 0.102516
6.67 0.100647
6.68 0.0985238
6.69 0.0961762
6.7 0.093674
6.71 0.0910654
6.72 0.088398
6.73 0.0857172
6.74 0.0830642
6.75 0.0804813
6.76 0.0779977
6.77 0.0756287
6.78 0.0733843
6.79 0.0712663
6.8 0.0692687
6.81 0.0673795
6.82 0.0655863
6.83 0.0638541
6.84 0.062157
6.85 0.0604686
6.86 0.0587637
6.87 0.0570198
6.88 0.0552139
6.89 0.0533321
6.9 0.0513723
6.91 0.0493359
6.92 0.0472308
6.93 0.0450715
6.94 0.0428781
6.95 0.0406776
6.96 0.0385027
6.97 0.036384
6.98 0.034352
6.99 0.0324354
7 0.0306596
7.01 0.0290538
7.02 0.0276361
7.03 0.0264
7.04 0.0253417
7.05 0.0244486
7.06 0.0236998
7.07 0.0230662
7.08 0.022515
7.09 0.0219913
7.1 0.021446
7.11 0.0208288
7.12 0.0200895
7.13 0.0191791
7.14 0.018043
7.15 0.0166276
7.16 0.0149216
7.17 0.0129058
7.18 0.0105719
7.19 0.00792325
7.2 0.00497508
7.21 0.00173327
7.22 -0.00173852
7.23 -0.00538162
7.24 -0.00913532
7.25 -0.0129319
7.26 -0.0166988
7.27 -0.0203555
7.28 -0.0238054
7.29 -0.0269867
7.3 -0.0298322
7.31 -0.0322822
7.32 -0.0342861
7.33 -0.0358044
7.34 -0.0367673
7.35 -0.0371845
7.36 -0.037078
7.37 -0.0364652
7.38 -0.0353762
7.39 -0.0338534
7.4 -0.0319449
7.41 -0.0296956
7.42 -0.027214
7.43 -0.024576
7.44 -0.0218599
7.45 -0.019144
7.46 -0.0165048
7.47 -0.0140294
7.48 -0.0117887
7.49 -0.00983113
7.5 -0.00820325
7.51 -0.00694132
7.52 -0.00607081
7.53 -0.0056086
7.54 -0.00560048
7.55 -0.00599142
7.56 -0.00676236
7.57 -0.00788593
7.58 -0.00932772
7.59 -0.0110476
7.6 -0.0130122
7.61 -0.0151666
7.62 -0.0174494
7.63 -0.019813
7.64 -0.0222116
7.65 -0.0246022
7.66 -0.0269457
7.67 -0.0291952
7.68 -0.0313282
7.69 -0.0333224
7.7 -0.035161
7.71 -0.0368321
7.72 -0.0383293
7.73 -0.0396424
7.74 -0.0407714
7.75 -0.0417355
7.76 -0.0425451
7.77 -0.0432129
7.78 -0.0437536
7.79 -0.0441831
7.8 -0.0445108
7.81 -0.0447637
7.82 -0.0449609
7.83 -0.0451193
7.84 -0.0452554
7.85 -0.0453849
7.86 -0.0455229
7.87 -0.0456855
7.88 -0.0458829
7.89 -0.0461248
7.9 -0.0464189
7.91 -0.0467707
7.92 -0.0471831
7.93 -0.0476621
7.94 -0.0482005
7.95 -0.0487904
7.96 -0.0494225
7.97 -0.050084
7.98 -0.0507591
7.99 -0.0514281
8 -0.0520641
8.01 -0.052643
8.02 -0.0531383
8.03 -0.0535221
8.04 -0.0537664
8.05 -0.0538436
8.06 -0.0537109
8.07 -0.0533501
8.08 -0.0527505
8.09 -0.0518986
8.1 -0.0507873
8.11 -0.0494158
8.12 -0.0477877
8.13 -0.0458998
8.14 -0.043803
8.15 -0.0415307
8.16 -0.039124
8.17 -0.0366306
8.18 -0.0341044
8.19 -0.0316097
8.2 -0.029217
8.21 -0.0269872
8.22 -0.0249821
8.23 -0.02326
8.24 -0.0218742
8.25 -0.0208722
8.26 -0.0203402
8.27 -0.020257
8.28 -0.020633
8.29 -0.0214655
8.3 -0.022738
8.31 -0.02442
8.32 -0.0264845
8.33 -0.0288652
8.34 -0.0314691
8.35 -0.0342156
8.36 -0.0370171
8.37 -0.0397813
8.38 -0.0424139
8.39 -0.0447872
8.4 -0.0468266
8.41 -0.0484532
8.42 -0.0495962
8.43 -0.0501971
8.44 -0.0502115
8.45 -0.0495824
8.46 -0.0482819
8.47 -0.0463648
8.48 -0.0438582
8.49 -0.0408055
8.5 -0.0372651
8.51 -0.0333085
8.52 -0.0289943
8.53 -0.024451
8.54 -0.0197817
8.55 -0.0150848
8.56 -0.0104568
8.57 -0.0059898
8.58 -0.00177944
8.59 0.0020757
8.6 0.0055388
8.61 0.00856589
8.62 0.0111284
8.63 0.0132137
8.64 0.0148248
8.65 0.0159433
8.66 0.0166339
8.67 0.0169575
8.68 0.0169714
8.69 0.0167395
8.7 0.0163301
8.71 0.0158122
8.72 0.01526
8.73 0.0147452
8.74 0.0143233
8.75 0.0140409
8.76 0.0139335
8.77 0.014025
8.78 0.0143425
8.79 0.0148751
8.8 0.0155973
8.81 0.016482
8.82 0.0174926
8.83 0.0185856
8.84 0.0197119
8.85 0.0208126
8.86 0.0218346
8.87 0.0227306
8.88 0.0234589
8.89 0.0239859
8.9 0.0242869
8.91 0.0243327
8.92 0.0241258
8.93 0.0236921
8.94 0.0230563
8.95 0.0222536
8.96 0.0213287
8.97 0.0203334
8.98 0.0193307
8.99 0.0183877
9 0.0175642
9.01 0.0169166
9.02 0.0164954
9.03 0.016343
9.04 0.0165086
9.05 0.0170161
9.06 0.017849
9.07 0.018996
9.08 0.020432
9.09 0.0221182
9.1 0.0240037
9.11 0.0260346
9.12 0.0281192
9.13 0.0301797
9.14 0.0321376
9.15 0.0339154
9.16 0.0354395
9.17 0.036627
9.18 0.0374029
9.19 0.037751
9.2 0.037645
9.21 0.0370747
9.22 0.0360466
9.23 0.0345835
9.24 0.032692
9.25 0.0304645
9.26 0.0279795
9.27 0.0253176
9.28 0.0225663
9.29 0.0198171
9.3 0.0171682
9.31 0.0147305
9.32 0.0125754
9.33 0.0107736
9.34 0.00938322
9.35 0.00844703
9.36 0.00799121
9.37 0.0080646
9.38 0.00862721
9.39 0.00963052
9.4 0.0110253
9.41 0.0127477
9.42 0.0147213
9.43 0.0168615
9.44 0.0190691
9.45 0.0212345
9.46 0.0232638
9.47 0.0250686
9.48 0.0265689
9.49 0.0276963
9.5 0.0283618
9.51 0.0285378
9.52 0.0282273
9.53 0.0274331
9.54 0.0261761
9.55 0.0244945
9.56 0.0224396
9.57 0.0200596
9.58 0.017475
9.59 0.0147747
9.6 0.0120515
9.61 0.00939863
9.62 0.00690599
9.63 0.00467703
9.64 0.00279271
9.65 0.00129632
9.66 0.000229902
9.67 -0.000381231
9.68 -0.00052927
9.69 -0.000224083
9.7 0.000551528
9.71 0.00169899
9.72 0.00315699
9.73 0.00485388
9.74 0.00670987
9.75 0.00864029
9.76 0.0105536
9.77 0.012352
9.78 0.0139599
9.79 0.0153094
9.8 0.0163443
9.81 0.0170223
9.82 0.0173167
9.83 0.017177
9.84 0.0166501
9.85 0.0157688
9.86 0.0145762
9.87 0.0131289
9.88 0.0114946
9.89 0.00974875
9.9 0.00798422
9.91 0.00629262
9.92 0.00475603
9.93 0.00345135
9.94 0.00244725
9.95 0.00180153
9.96 0.0015993
9.97 0.00184275
9.98 0.00253119
9.99 0.00365694
10 0.0051959
10.01 0.00710846
10.02 0.00934817
10.03 0.0118537
10.04 0.0145203
10.05 0.017264
10.06 0.0199983
10.07 0.0226364
10.08 0.0250951
10.09 0.0272701
10.1 0.0290983
10.11 0.0305355
10.12 0.0315414
10.13 0.0320907
10.14 0.0321734
10.15 0.0317868
10.16 0.0309203
10.17 0.029657
10.18 0.0280467
10.19 0.0261488
10.2 0.02403
10.21 0.0217618
10.22 0.0194178
10.23 0.0170825
10.24 0.014827
10.25 0.0127131
10.26 0.0107939
10.27 0.00911267
10.28 0.00770323
10.29 0.0066162
10.3 0.00582539
10.31 0.00532309
10.32 0.00509059
10.33 0.00509941
10.34 0.00531286
10.35 0.00569467
10.36 0.00618929
10.37 0.0067383
10.38 0.00729276
10.39 0.00780635
10.4 0.00823722
10.41 0.00854955
10.42 0.00869577
10.43 0.00867122
10.44 0.00846711
10.45 0.00808265
10.46 0.00752521
10.47 0.0068096
10.48 0.00595159
10.49 0.00497962
10.5 0.00393297
10.51 0.00284313
10.52 0.00174125
10.53 0.00065656
10.54 -0.00038502
10.55 -0.00135393
10.56 -0.00223939
10.57 -0.00303455
10.58 -0.003738
10.59 -0.00435465
10.6 -0.00489525
10.61 -0.00537412
10.62 -0.00581256
10.63 -0.00623804
10.64 -0.00667425
10.65 -0.00714414
10.66 -0.0076684
10.67 -0.00826404
10.68 -0.00895127
10.69 -0.00973029
10.7 -0.0105962
10.71 -0.0115393
10.72 -0.0125424
10.73 -0.0135818
10.74 -0.0146272
10.75 -0.0156369
10.76 -0.0165723
10.77 -0.0173934
10.78 -0.0180608
10.79 -0.0185375
10.8 -0.0187909
10.81 -0.0187731
10.82 -0.0184749
10.83 -0.017899
10.84 -0.0170488
10.85 -0.0159386
10.86 -0.0145934
10.87 -0.0130468
10.88 -0.0113378
10.89 -0.00954196
10.9 -0.00772156
10.91 -0.00594306
10.92 -0.00427478
10.93 -0.00278447
10.94 -0.00155762
10.95 -0.000655473
10.96 -0.000113966
10.97 2.96319e-05
10.98 -0.000249373
10.99 -0.00096178
11 -0.00210549
11.01 -0.00370164
11.02 -0.00566404
11.03 -0.00794081
11.04 -0.0104677
11.05 -0.0131698
11.06 -0.0159642
11.07 -0.018757
11.08 -0.0214425
11.09 -0.0239311
11.1 -0.0261369
11.11 -0.0279815
11.12 -0.0293962
11.13 -0.0303247
11.14 -0.030664
11.15 -0.0304438
11.16 -0.0296631
11.17 -0.028335
11.18 -0.0264893
11.19 -0.0241716
11.2 -0.0214265
11.21 -0.0183306
11.22 -0.0149971
11.23 -0.011517
11.24 -0.00798483
11.25 -0.00449506
11.26 -0.00113942
11.27 0.00196661
11.28 0.00475743
11.29 0.00717456
11.3 0.00916907
11.31 0.0107069
11.32 0.0117697
11.33 0.0123387
11.34 0.0124096
11.35 0.0120532
11.36 0.0113141
11.37 0.0102478
11.38 0.00891827
11.39 0.00739544
11.4 0.00574861
11.41 0.00406722
11.42 0.0024246
11.43 0.000885233
11.44 -0.000494191
11.45 -0.00166669
11.46 -0.00258993
11.47 -0.00322051
11.48 -0.00357401
11.49 -0.00365539
11.5 -0.00348139
11.51 -0.0030794
11.52 -0.00248596
11.53 -0.00173741
11.54 -0.000895461
11.55 -1.79097e-05
11.56 0.000843256
11.57 0.00163852
11.58 0.00232296
11.59 0.00285575
11.6 0.00318761
11.61 0.00331657
11.62 0.00323468
11.63 0.00294443
11.64 0.0024586
11.65 0.0017995
11.66 0.000991147
11.67 8.01225e-05
11.68 -0.000882302
11.69 -0.00184915
11.7 -0.00277283
11.71 -0.00360727
11.72 -0.00430963
11.73 -0.00482027
11.74 -0.00512776
11.75 -0.00521341
11.76 -0.00506827
11.77 -0.00469361
11.78 -0.0041009
11.79 -0.00330242
11.8 -0.00233331
11.81 -0.00124555
11.82 -8.48744e-05
11.83 0.0010992
11.84 0.00225541
