# xPDFsuite Configuration #
[PDF]
wavelength = 0.1
dataformat = QA
inputfile = BiMsol6_insitu_700 C-00626.xy
backgroundfile = Quartz2mm-dist500-00000.xy
mode = xray
bgscale = 0.0042
composition = Bi2Fe4O9
outputtype = gr
qmaxinst = 24.998449118
qmin = 0.1
qmax = 21.4986662415
rmax = 80.0
rmin = 0.0
rstep = 0.01
rpoly = 0.9

[Misc]
inputdir = C:/Data/Seafile/CPH/Beamtime/Desy Oct 20/In situ data/Processed/BiMsol6/PDF
savedir = C:/Data/Seafile/CPH/Beamtime/Desy Oct 20/In situ data/PDF/BiMsol6
backgroundfilefull = C:/Data/Seafile/CPH/Beamtime/Desy Oct 20/In situ data/Processed/Standard_Empty_Cap/Quartz2mm-dist500-00000.xy

#### start data
#S 1
#L r($\AA$)  G($\AA^{-2}$)
0 0
0.01 0.00613383
0.02 0.0119178
0.03 0.0170526
0.04 0.0212697
0.05 0.0243441
0.06 0.0261044
0.07 0.0263636
0.08 0.0250683
0.09 0.0223582
0.1 0.0183486
0.11 0.0132179
0.12 0.00719928
0.13 0.000570679
0.14 -0.00635462
0.15 -0.0131856
0.16 -0.0195922
0.17 -0.0252649
0.18 -0.0299273
0.19 -0.0333492
0.2 -0.0352948
0.21 -0.035605
0.22 -0.0343792
0.23 -0.031686
0.24 -0.0276702
0.25 -0.0225474
0.26 -0.0165965
0.27 -0.0101365
0.28 -0.00361852
0.29 0.00255557
0.3 0.00799617
0.31 0.0123341
0.32 0.0152391
0.33 0.0163772
0.34 0.0154239
0.35 0.0124384
0.36 0.00742605
0.37 0.000494143
0.38 -0.00814656
0.39 -0.0181851
0.4 -0.0292589
0.41 -0.0407579
0.42 -0.0520844
0.43 -0.062631
0.44 -0.0717707
0.45 -0.0788806
0.46 -0.083303
0.47 -0.0841901
0.48 -0.0813684
0.49 -0.0745019
0.5 -0.0633761
0.51 -0.0479112
0.52 -0.0281721
0.53 -0.00410569
0.54 0.0237338
0.55 0.0546227
0.56 0.0878879
0.57 0.122745
0.58 0.158321
0.59 0.193665
0.6 0.227561
0.61 0.259074
0.62 0.287256
0.63 0.311223
0.64 0.33018
0.65 0.343451
0.66 0.350091
0.67 0.349727
0.68 0.342553
0.69 0.328593
0.7 0.308053
0.71 0.281314
0.72 0.248928
0.73 0.21112
0.74 0.169377
0.75 0.124668
0.76 0.0780164
0.77 0.0304842
0.78 -0.0168623
0.79 -0.0628689
0.8 -0.106382
0.81 -0.146628
0.82 -0.182856
0.83 -0.214454
0.84 -0.240964
0.85 -0.262089
0.86 -0.277135
0.87 -0.286671
0.88 -0.291012
0.89 -0.290546
0.9 -0.285784
0.91 -0.277344
0.92 -0.265842
0.93 -0.252062
0.94 -0.237014
0.95 -0.221479
0.96 -0.206207
0.97 -0.19189
0.98 -0.179142
0.99 -0.168716
1 -0.160908
1.01 -0.155923
1.02 -0.153894
1.03 -0.154836
1.04 -0.158644
1.05 -0.165172
1.06 -0.174207
1.07 -0.185116
1.08 -0.197448
1.09 -0.210716
1.1 -0.224423
1.11 -0.238081
1.12 -0.25115
1.13 -0.26319
1.14 -0.273884
1.15 -0.282966
1.16 -0.290249
1.17 -0.295634
1.18 -0.299074
1.19 -0.300498
1.2 -0.300256
1.21 -0.29857
1.22 -0.295706
1.23 -0.291969
1.24 -0.287679
1.25 -0.28317
1.26 -0.278801
1.27 -0.274859
1.28 -0.271578
1.29 -0.269144
1.3 -0.26768
1.31 -0.267255
1.32 -0.267965
1.33 -0.269613
1.34 -0.272059
1.35 -0.275116
1.36 -0.278559
1.37 -0.282136
1.38 -0.285557
1.39 -0.288517
1.4 -0.29078
1.41 -0.29213
1.42 -0.292391
1.43 -0.291438
1.44 -0.289203
1.45 -0.285537
1.46 -0.280654
1.47 -0.274692
1.48 -0.267839
1.49 -0.260332
1.5 -0.252446
1.51 -0.244494
1.52 -0.236847
1.53 -0.229817
1.54 -0.223702
1.55 -0.218766
1.56 -0.215228
1.57 -0.213257
1.58 -0.213129
1.59 -0.214727
1.6 -0.217968
1.61 -0.222722
1.62 -0.228791
1.63 -0.235914
1.64 -0.243789
1.65 -0.25202
1.66 -0.26016
1.67 -0.267803
1.68 -0.274548
1.69 -0.280014
1.7 -0.283852
1.71 -0.285566
1.72 -0.285016
1.73 -0.282102
1.74 -0.27675
1.75 -0.268961
1.76 -0.258823
1.77 -0.246447
1.78 -0.231983
1.79 -0.215943
1.8 -0.198693
1.81 -0.180636
1.82 -0.162195
1.83 -0.143803
1.84 -0.125951
1.85 -0.109066
1.86 -0.0934732
1.87 -0.079467
1.88 -0.0672757
1.89 -0.0570571
1.9 -0.0489237
1.91 -0.0430511
1.92 -0.0391359
1.93 -0.0370166
1.94 -0.0364698
1.95 -0.0372211
1.96 -0.0389564
1.97 -0.0413553
1.98 -0.0440045
1.99 -0.0465329
2 -0.0486217
2.01 -0.0499889
2.02 -0.0504012
2.03 -0.0496795
2.04 -0.0475754
2.05 -0.0442049
2.06 -0.0396261
2.07 -0.0339689
2.08 -0.027431
2.09 -0.0202704
2.1 -0.0127987
2.11 -0.00542272
2.12 0.00146357
2.13 0.0074752
2.14 0.0122352
2.15 0.0153891
2.16 0.0166191
2.17 0.0153927
2.18 0.0117179
2.19 0.00549214
2.2 -0.0033275
2.21 -0.014705
2.22 -0.028526
2.23 -0.04469
2.24 -0.0629411
2.25 -0.082784
2.26 -0.103834
2.27 -0.125673
2.28 -0.14786
2.29 -0.169949
2.3 -0.191406
2.31 -0.211818
2.32 -0.230826
2.33 -0.248114
2.34 -0.263423
2.35 -0.276561
2.36 -0.287331
2.37 -0.295577
2.38 -0.301541
2.39 -0.30534
2.4 -0.307154
2.41 -0.307219
2.42 -0.305816
2.43 -0.303187
2.44 -0.299778
2.45 -0.295967
2.46 -0.29209
2.47 -0.288465
2.48 -0.285379
2.49 -0.283105
2.5 -0.281933
2.51 -0.281921
2.52 -0.283146
2.53 -0.285629
2.54 -0.289337
2.55 -0.294184
2.56 -0.300102
2.57 -0.306854
2.58 -0.314191
2.59 -0.321886
2.6 -0.329701
2.61 -0.3374
2.62 -0.344749
2.63 -0.351464
2.64 -0.357413
2.65 -0.362455
2.66 -0.366486
2.67 -0.369445
2.68 -0.37131
2.69 -0.372034
2.7 -0.371701
2.71 -0.370467
2.72 -0.368457
2.73 -0.365817
2.74 -0.362706
2.75 -0.35929
2.76 -0.355734
2.77 -0.352223
2.78 -0.348893
2.79 -0.345858
2.8 -0.343209
2.81 -0.341006
2.82 -0.339307
2.83 -0.338114
2.84 -0.337363
2.85 -0.336993
2.86 -0.336925
2.87 -0.33706
2.88 -0.337289
2.89 -0.337479
2.9 -0.337505
2.91 -0.337257
2.92 -0.336632
2.93 -0.335546
2.94 -0.333928
2.95 -0.331702
2.96 -0.328817
2.97 -0.325312
2.98 -0.321197
2.99 -0.316501
3 -0.31126
3.01 -0.305521
3.02 -0.299293
3.03 -0.292658
3.04 -0.285662
3.05 -0.278325
3.06 -0.270655
3.07 -0.262635
3.08 -0.254215
3.09 -0.245301
3.1 -0.235836
3.11 -0.225713
3.12 -0.214803
3.13 -0.202967
3.14 -0.190054
3.15 -0.175795
3.16 -0.160089
3.17 -0.142842
3.18 -0.123939
3.19 -0.103289
3.2 -0.0808348
3.21 -0.0565163
3.22 -0.0302242
3.23 -0.00220903
3.24 0.0274093
3.25 0.0584659
3.26 0.0907529
3.27 0.124022
3.28 0.158019
3.29 0.192359
3.3 0.226676
3.31 0.260614
3.32 0.293818
3.33 0.325931
3.34 0.356597
3.35 0.385286
3.36 0.411876
3.37 0.436119
3.38 0.45781
3.39 0.476787
3.4 0.492938
3.41 0.506017
3.42 0.516038
3.43 0.523203
3.44 0.527598
3.45 0.52935
3.46 0.528614
3.47 0.525576
3.48 0.520221
3.49 0.513028
3.5 0.504224
3.51 0.494031
3.52 0.482661
3.53 0.470317
3.54 0.457151
3.55 0.443339
3.56 0.429068
3.57 0.41445
3.58 0.399577
3.59 0.384517
3.6 0.369324
3.61 0.354026
3.62 0.338657
3.63 0.323237
3.64 0.30778
3.65 0.292303
3.66 0.276831
3.67 0.261401
3.68 0.246072
3.69 0.230907
3.7 0.215987
3.71 0.201412
3.72 0.187297
3.73 0.173769
3.74 0.161051
3.75 0.14926
3.76 0.138532
3.77 0.12902
3.78 0.120873
3.79 0.11423
3.8 0.109269
3.81 0.106211
3.82 0.104992
3.83 0.105668
3.84 0.108271
3.85 0.112804
3.86 0.11924
3.87 0.127675
3.88 0.137927
3.89 0.149825
3.9 0.163241
3.91 0.178028
3.92 0.19403
3.93 0.211092
3.94 0.229089
3.95 0.247747
3.96 0.266893
3.97 0.286361
3.98 0.305993
3.99 0.325645
4 0.345165
4.01 0.36442
4.02 0.383314
4.03 0.401757
4.04 0.419672
4.05 0.436992
4.06 0.453654
4.07 0.469529
4.08 0.484646
4.09 0.498962
4.1 0.512436
4.11 0.525024
4.12 0.536681
4.13 0.547294
4.14 0.556805
4.15 0.56521
4.16 0.572449
4.17 0.578454
4.18 0.583161
4.19 0.586503
4.2 0.588249
4.21 0.588489
4.22 0.587179
4.23 0.584276
4.24 0.579749
4.25 0.573577
4.26 0.565674
4.27 0.55602
4.28 0.544755
4.29 0.531919
4.3 0.517567
4.31 0.501767
4.32 0.484598
4.33 0.466028
4.34 0.446276
4.35 0.425466
4.36 0.403702
4.37 0.38109
4.38 0.357737
4.39 0.333724
4.4 0.309136
4.41 0.284114
4.42 0.258739
4.43 0.233086
4.44 0.207221
4.45 0.181206
4.46 0.15509
4.47 0.128935
4.48 0.102789
4.49 0.076693
4.5 0.0506918
4.51 0.0248288
4.52 -0.000843014
4.53 -0.0262516
4.54 -0.0513585
4.55 -0.0761031
4.56 -0.100419
4.57 -0.124237
4.58 -0.147481
4.59 -0.170017
4.6 -0.191781
4.61 -0.21272
4.62 -0.232758
4.63 -0.251824
4.64 -0.269853
4.65 -0.286772
4.66 -0.302433
4.67 -0.316919
4.68 -0.330213
4.69 -0.342315
4.7 -0.353238
4.71 -0.363011
4.72 -0.371606
4.73 -0.379112
4.74 -0.385654
4.75 -0.391315
4.76 -0.396185
4.77 -0.40036
4.78 -0.403935
4.79 -0.406967
4.8 -0.409619
4.81 -0.41198
4.82 -0.414134
4.83 -0.416157
4.84 -0.418112
4.85 -0.420054
4.86 -0.422028
4.87 -0.424059
4.88 -0.426157
4.89 -0.428324
4.9 -0.430548
4.91 -0.432809
4.92 -0.435074
4.93 -0.437303
4.94 -0.439454
4.95 -0.441481
4.96 -0.443338
4.97 -0.44498
4.98 -0.446347
4.99 -0.447385
5 -0.448072
5.01 -0.448377
5.02 -0.448267
5.03 -0.447718
5.04 -0.446708
5.05 -0.445168
5.06 -0.443123
5.07 -0.440569
5.08 -0.437497
5.09 -0.433899
5.1 -0.429768
5.11 -0.425081
5.12 -0.419808
5.13 -0.413991
5.14 -0.407629
5.15 -0.400725
5.16 -0.393283
5.17 -0.385312
5.18 -0.376783
5.19 -0.367749
5.2 -0.358254
5.21 -0.348332
5.22 -0.338028
5.23 -0.327394
5.24 -0.316485
5.25 -0.305367
5.26 -0.294142
5.27 -0.282894
5.28 -0.271713
5.29 -0.260691
5.3 -0.249922
5.31 -0.239534
5.32 -0.229614
5.33 -0.220233
5.34 -0.211463
5.35 -0.203371
5.36 -0.196009
5.37 -0.189426
5.38 -0.18372
5.39 -0.178814
5.4 -0.174697
5.41 -0.171343
5.42 -0.16871
5.43 -0.166744
5.44 -0.165415
5.45 -0.164624
5.46 -0.16426
5.47 -0.164236
5.48 -0.164464
5.49 -0.164859
5.5 -0.16534
5.51 -0.165828
5.52 -0.166252
5.53 -0.166561
5.54 -0.166715
5.55 -0.166688
5.56 -0.166464
5.57 -0.166028
5.58 -0.165388
5.59 -0.164572
5.6 -0.163603
5.61 -0.162505
5.62 -0.161304
5.63 -0.160023
5.64 -0.158674
5.65 -0.157273
5.66 -0.155818
5.67 -0.154294
5.68 -0.152674
5.69 -0.150917
5.7 -0.148956
5.71 -0.146707
5.72 -0.144102
5.73 -0.141052
5.74 -0.137464
5.75 -0.13324
5.76 -0.128284
5.77 -0.122418
5.78 -0.115617
5.79 -0.107832
5.8 -0.0990163
5.81 -0.0891414
5.82 -0.0782018
5.83 -0.0661829
5.84 -0.0530866
5.85 -0.039076
5.86 -0.0242506
5.87 -0.00873198
5.88 0.00733856
5.89 0.0238036
5.9 0.0404969
5.91 0.0572057
5.92 0.0737435
5.93 0.0899338
5.94 0.105609
5.95 0.120613
5.96 0.134791
5.97 0.147947
5.98 0.160079
5.99 0.171131
6 0.181078
6.01 0.189923
6.02 0.197699
6.03 0.204395
6.04 0.210141
6.05 0.21509
6.06 0.219363
6.07 0.223095
6.08 0.226423
6.09 0.229484
6.1 0.232412
6.11 0.235349
6.12 0.238393
6.13 0.241623
6.14 0.245093
6.15 0.248829
6.16 0.252845
6.17 0.257098
6.18 0.261511
6.19 0.26599
6.2 0.270425
6.21 0.274682
6.22 0.278614
6.23 0.281991
6.24 0.284693
6.25 0.286564
6.26 0.287453
6.27 0.287226
6.28 0.285764
6.29 0.2829
6.3 0.27854
6.31 0.272738
6.32 0.265493
6.33 0.256829
6.34 0.246806
6.35 0.235507
6.36 0.222934
6.37 0.209346
6.38 0.194911
6.39 0.179794
6.4 0.164168
6.41 0.148208
6.42 0.132086
6.43 0.115988
6.44 0.100069
6.45 0.0844584
6.46 0.0692646
6.47 0.0545727
6.48 0.0404437
6.49 0.0269713
6.5 0.0141207
6.51 0.00186018
6.52 -0.00984923
6.53 -0.0210643
6.54 -0.0318565
6.55 -0.0423007
6.56 -0.0524844
6.57 -0.0625275
6.58 -0.0725191
6.59 -0.0825416
6.6 -0.0926676
6.61 -0.102957
6.62 -0.113473
6.63 -0.124233
6.64 -0.135232
6.65 -0.146456
6.66 -0.15787
6.67 -0.169423
6.68 -0.181047
6.69 -0.192649
6.7 -0.204128
6.71 -0.215383
6.72 -0.226308
6.73 -0.236794
6.74 -0.246735
6.75 -0.255975
6.76 -0.264422
6.77 -0.272023
6.78 -0.278702
6.79 -0.284397
6.8 -0.289057
6.81 -0.292631
6.82 -0.294982
6.83 -0.296209
6.84 -0.29631
6.85 -0.295283
6.86 -0.293138
6.87 -0.289884
6.88 -0.28547
6.89 -0.279918
6.9 -0.273301
6.91 -0.265629
6.92 -0.256911
6.93 -0.24715
6.94 -0.236347
6.95 -0.224379
6.96 -0.211356
6.97 -0.197275
6.98 -0.182129
6.99 -0.165912
7 -0.148623
7.01 -0.130211
7.02 -0.110671
7.03 -0.0900946
7.04 -0.0685112
7.05 -0.0459614
7.06 -0.022497
7.07 0.00181843
7.08 0.0269806
7.09 0.0528223
7.1 0.079233
7.11 0.106104
7.12 0.133318
7.13 0.160754
7.14 0.188284
7.15 0.215758
7.16 0.243045
7.17 0.270018
7.18 0.296557
7.19 0.322545
7.2 0.347877
7.21 0.372373
7.22 0.395985
7.23 0.418655
7.24 0.440313
7.25 0.460899
7.26 0.480364
7.27 0.498628
7.28 0.515576
7.29 0.531283
7.3 0.54572
7.31 0.558861
7.32 0.570681
7.33 0.581154
7.34 0.590139
7.35 0.597665
7.36 0.603749
7.37 0.608355
7.38 0.611446
7.39 0.612983
7.4 0.612897
7.41 0.611008
7.42 0.60744
7.43 0.60216
7.44 0.595139
7.45 0.586359
7.46 0.57581
7.47 0.563368
7.48 0.549092
7.49 0.533098
7.5 0.515431
7.51 0.496155
7.52 0.475348
7.53 0.453098
7.54 0.429393
7.55 0.404519
7.56 0.378619
7.57 0.351849
7.58 0.324374
7.59 0.296367
7.6 0.267996
7.61 0.239471
7.62 0.210992
7.63 0.182739
7.64 0.154885
7.65 0.127597
7.66 0.10103
7.67 0.0754432
7.68 0.0508854
7.69 0.027466
7.7 0.005283
7.71 -0.015582
7.72 -0.035064
7.73 -0.053045
7.74 -0.0694597
7.75 -0.0843963
7.76 -0.0978586
7.77 -0.109864
7.78 -0.120443
7.79 -0.129638
7.8 -0.137372
7.81 -0.143825
7.82 -0.149089
7.83 -0.153237
7.84 -0.156346
7.85 -0.158495
7.86 -0.159735
7.87 -0.16012
7.88 -0.159796
7.89 -0.158836
7.9 -0.15731
7.91 -0.155281
7.92 -0.152808
7.93 -0.149913
7.94 -0.146673
7.95 -0.143137
7.96 -0.139338
7.97 -0.135304
7.98 -0.131058
7.99 -0.126613
8 -0.121971
8.01 -0.11716
8.02 -0.112187
8.03 -0.107058
8.04 -0.101777
8.05 -0.0963521
8.06 -0.0907795
8.07 -0.085076
8.08 -0.0792603
8.09 -0.0733497
8.1 -0.0673653
8.11 -0.061333
8.12 -0.0552834
8.13 -0.0492576
8.14 -0.0432968
8.15 -0.0374444
8.16 -0.0317465
8.17 -0.0262508
8.18 -0.021006
8.19 -0.0160832
8.2 -0.0115295
8.21 -0.00737128
8.22 -0.00364529
8.23 -0.000381964
8.24 0.00239565
8.25 0.00467118
8.26 0.00638398
8.27 0.00759836
8.28 0.00833162
8.29 0.00861105
8.3 0.0084735
8.31 0.00796467
8.32 0.00712371
8.33 0.00601961
8.34 0.00473689
8.35 0.00334379
8.36 0.00190893
8.37 0.00049928
8.38 -0.000821982
8.39 -0.00197615
8.4 -0.00292548
8.41 -0.0036343
8.42 -0.00407729
8.43 -0.00424169
8.44 -0.00412804
8.45 -0.00373989
8.46 -0.00310467
8.47 -0.00228519
8.48 -0.00133706
8.49 -0.000325961
8.5 0.000674188
8.51 0.00158339
8.52 0.00229229
8.53 0.00272056
8.54 0.00278919
8.55 0.00242052
8.56 0.00154407
8.57 9.88641e-05
8.58 -0.00198723
8.59 -0.00478577
8.6 -0.00826318
8.61 -0.0124228
8.62 -0.0172528
8.63 -0.0227268
8.64 -0.0288045
8.65 -0.0354754
8.66 -0.0426347
8.67 -0.050192
8.68 -0.0580671
8.69 -0.066177
8.7 -0.074438
8.71 -0.082768
8.72 -0.0910801
8.73 -0.099301
8.74 -0.107372
8.75 -0.115244
8.76 -0.122881
8.77 -0.130259
8.78 -0.137345
8.79 -0.144151
8.8 -0.150702
8.81 -0.157022
8.82 -0.163142
8.83 -0.169099
8.84 -0.174933
8.85 -0.180681
8.86 -0.186396
8.87 -0.192112
8.88 -0.197858
8.89 -0.203655
8.9 -0.209513
8.91 -0.215437
8.92 -0.221411
8.93 -0.227408
8.94 -0.233391
8.95 -0.239315
8.96 -0.245128
8.97 -0.250768
8.98 -0.256137
8.99 -0.261189
9 -0.265858
9.01 -0.270083
9.02 -0.273808
9.03 -0.276985
9.04 -0.279542
9.05 -0.281445
9.06 -0.282722
9.07 -0.283376
9.08 -0.283424
9.09 -0.282897
9.1 -0.281837
9.11 -0.280252
9.12 -0.27826
9.13 -0.275936
9.14 -0.273354
9.15 -0.270592
9.16 -0.267724
9.17 -0.264822
9.18 -0.26196
9.19 -0.259195
9.2 -0.256569
9.21 -0.254115
9.22 -0.251852
9.23 -0.249786
9.24 -0.247927
9.25 -0.246239
9.26 -0.244685
9.27 -0.243226
9.28 -0.241814
9.29 -0.240398
9.3 -0.238921
9.31 -0.237316
9.32 -0.235542
9.33 -0.233556
9.34 -0.231322
9.35 -0.228815
9.36 -0.226021
9.37 -0.222913
9.38 -0.219518
9.39 -0.215868
9.4 -0.211997
9.41 -0.207948
9.42 -0.203771
9.43 -0.199519
9.44 -0.195258
9.45 -0.19105
9.46 -0.186949
9.47 -0.183003
9.48 -0.179251
9.49 -0.175722
9.5 -0.17245
9.51 -0.169428
9.52 -0.16663
9.53 -0.164024
9.54 -0.161563
9.55 -0.159188
9.56 -0.156824
9.57 -0.15437
9.58 -0.151733
9.59 -0.148813
9.6 -0.145509
9.61 -0.141721
9.62 -0.137352
9.63 -0.132265
9.64 -0.126376
9.65 -0.119655
9.66 -0.112053
9.67 -0.103534
9.68 -0.0940803
9.69 -0.0836905
9.7 -0.0722773
9.71 -0.0599832
9.72 -0.0468603
9.73 -0.0329718
9.74 -0.0183918
9.75 -0.00320261
9.76 0.0125292
9.77 0.028704
9.78 0.0451966
9.79 0.0619173
9.8 0.0787809
9.81 0.0957086
9.82 0.112629
9.83 0.129468
9.84 0.146175
9.85 0.162711
9.86 0.179043
9.87 0.195149
9.88 0.211013
9.89 0.226612
9.9 0.24193
9.91 0.256982
9.92 0.271761
9.93 0.286261
9.94 0.30047
9.95 0.314371
9.96 0.327906
9.97 0.341065
9.98 0.353815
9.99 0.36611
10 0.377898
10.01 0.389119
10.02 0.399694
10.03 0.40951
10.04 0.41856
10.05 0.426785
10.06 0.434134
10.07 0.440559
10.08 0.446027
10.09 0.450433
10.1 0.453814
10.11 0.456216
10.12 0.457665
10.13 0.458201
10.14 0.457882
10.15 0.456767
10.16 0.454897
10.17 0.452448
10.18 0.449526
10.19 0.446244
10.2 0.442717
10.21 0.43906
10.22 0.435391
10.23 0.431826
10.24 0.428457
10.25 0.425364
10.26 0.422608
10.27 0.420237
10.28 0.418283
10.29 0.416798
10.3 0.415723
10.31 0.415027
10.32 0.414663
10.33 0.414569
10.34 0.41467
10.35 0.41488
10.36 0.415092
10.37 0.415203
10.38 0.415112
10.39 0.414723
10.4 0.413943
10.41 0.412686
10.42 0.410807
10.43 0.408295
10.44 0.405103
10.45 0.401194
10.46 0.396545
10.47 0.391145
10.48 0.38496
10.49 0.377991
10.5 0.370317
10.51 0.361968
10.52 0.352985
10.53 0.343408
10.54 0.333281
10.55 0.322602
10.56 0.311459
10.57 0.299897
10.58 0.287949
10.59 0.27564
10.6 0.26299
10.61 0.250003
10.62 0.236673
10.63 0.223028
10.64 0.209066
10.65 0.194783
10.66 0.180173
10.67 0.16523
10.68 0.14992
10.69 0.134267
10.7 0.118284
10.71 0.101986
10.72 0.0853905
10.73 0.0685263
10.74 0.0514231
10.75 0.0341185
10.76 0.0166848
10.77 -0.000820059
10.78 -0.0183335
10.79 -0.0357898
10.8 -0.0531216
10.81 -0.0702418
10.82 -0.0870859
10.83 -0.103603
10.84 -0.11974
10.85 -0.135454
10.86 -0.150711
10.87 -0.165477
10.88 -0.179698
10.89 -0.193424
10.9 -0.206669
10.91 -0.219456
10.92 -0.231816
10.93 -0.243792
10.94 -0.255411
10.95 -0.266737
10.96 -0.277842
10.97 -0.288777
10.98 -0.299593
10.99 -0.310333
11 -0.321035
11.01 -0.331727
11.02 -0.342426
11.03 -0.353134
11.04 -0.36384
11.05 -0.374519
11.06 -0.385136
11.07 -0.395631
11.08 -0.405933
11.09 -0.415979
11.1 -0.42569
11.11 -0.434983
11.12 -0.443772
11.13 -0.451971
11.14 -0.459413
11.15 -0.466084
11.16 -0.471916
11.17 -0.476849
11.18 -0.480834
11.19 -0.483831
11.2 -0.485768
11.21 -0.486608
11.22 -0.486426
11.23 -0.485239
11.24 -0.483075
11.25 -0.479972
11.26 -0.475976
11.27 -0.471063
11.28 -0.465366
11.29 -0.458961
11.3 -0.451908
11.31 -0.444266
11.32 -0.436089
11.33 -0.427413
11.34 -0.418265
11.35 -0.408717
11.36 -0.398794
11.37 -0.388515
11.38 -0.377888
11.39 -0.366916
11.4 -0.355563
11.41 -0.343839
11.42 -0.331743
11.43 -0.319259
11.44 -0.306376
11.45 -0.293083
11.46 -0.279363
11.47 -0.265188
11.48 -0.250607
11.49 -0.235638
11.5 -0.220308
11.51 -0.204656
11.52 -0.188728
11.53 -0.172573
11.54 -0.156273
11.55 -0.139916
11.56 -0.123582
11.57 -0.10736
11.58 -0.0913395
11.59 -0.0756147
11.6 -0.0603195
11.61 -0.0455049
11.62 -0.0312475
11.63 -0.0176154
11.64 -0.00466708
11.65 0.00755061
11.66 0.0189509
11.67 0.029523
11.68 0.0393015
11.69 0.0482951
11.7 0.0565249
11.71 0.0640238
11.72 0.0708337
11.73 0.0769416
11.74 0.0824862
11.75 0.0875327
11.76 0.0921483
11.77 0.0964009
11.78 0.100356
11.79 0.104067
11.8 0.107597
11.81 0.111006
11.82 0.114333
11.83 0.117608
11.84 0.120848
11.85 0.124061
11.86 0.12724
11.87 0.130372
11.88 0.133432
11.89 0.136386
11.9 0.139195
11.91 0.141811
11.92 0.144172
11.93 0.146207
11.94 0.14788
11.95 0.149137
11.96 0.149927
11.97 0.150199
11.98 0.149909
11.99 0.148957
12 0.147352
12.01 0.145078
12.02 0.142118
12.03 0.138455
12.04 0.134084
12.05 0.128976
12.06 0.1231
12.07 0.116521
12.08 0.109253
12.09 0.101307
12.1 0.0926988
12.11 0.0834466
12.12 0.0735162
12.13 0.0629635
12.14 0.0518278
12.15 0.0401298
12.16 0.0278913
