# xPDFsuite Configuration #
[PDF]
wavelength = 0.1
dataformat = QA
inputfile = BiMsol6_insitu_700 C-00075.xy
backgroundfile = Quartz2mm-dist500-00000.xy
mode = xray
bgscale = 0.0042
composition = Bi2Fe4O9
outputtype = gr
qmaxinst = 24.998449118
qmin = 0.1
qmax = 21.4986662415
rmax = 80.0
rmin = 0.0
rstep = 0.01
rpoly = 0.9

[Misc]
inputdir = C:/Data/Seafile/CPH/Beamtime/Desy Oct 20/In situ data/Processed/BiMsol6/PDF
savedir = C:/Data/Seafile/CPH/Beamtime/Desy Oct 20/In situ data/PDF/BiMsol6
backgroundfilefull = C:/Data/Seafile/CPH/Beamtime/Desy Oct 20/In situ data/Processed/Standard_Empty_Cap/Quartz2mm-dist500-00000.xy

#### start data
#S 1
#L r($\AA$)  G($\AA^{-2}$)
0 0
0.01 0.00687326
0.02 0.0133647
0.03 0.0191475
0.04 0.0239281
0.05 0.0274598
0.06 0.0295543
0.07 0.0300048
0.08 0.0287498
0.09 0.0259386
0.1 0.0216936
0.11 0.0162054
0.12 0.00972478
0.13 0.00255143
0.14 -0.00497912
0.15 -0.0124395
0.16 -0.0194697
0.17 -0.0257314
0.18 -0.0309205
0.19 -0.0347818
0.2 -0.0370526
0.21 -0.0375509
0.22 -0.0363741
0.23 -0.0335864
0.24 -0.0293336
0.25 -0.0238388
0.26 -0.0173934
0.27 -0.0103267
0.28 -0.00312302
0.29 0.00378709
0.3 0.00998546
0.31 0.0150735
0.32 0.0186915
0.33 0.0204754
0.34 0.0200675
0.35 0.0175131
0.36 0.0128021
0.37 0.00603219
0.38 -0.00258985
0.39 -0.0127508
0.4 -0.0240898
0.41 -0.0359733
0.42 -0.0477789
0.43 -0.0588746
0.44 -0.0686056
0.45 -0.0763194
0.46 -0.0813268
0.47 -0.0827427
0.48 -0.0803686
0.49 -0.0738446
0.5 -0.0629363
0.51 -0.0475499
0.52 -0.027742
0.53 -0.00344711
0.54 0.0247694
0.55 0.0561639
0.56 0.0900438
0.57 0.1256
0.58 0.161929
0.59 0.198047
0.6 0.232698
0.61 0.264906
0.62 0.293691
0.63 0.318132
0.64 0.337408
0.65 0.350816
0.66 0.357378
0.67 0.356711
0.68 0.349017
0.69 0.334324
0.7 0.31285
0.71 0.284997
0.72 0.251342
0.73 0.212134
0.74 0.168914
0.75 0.122692
0.76 0.0745363
0.77 0.02555
0.78 -0.0231582
0.79 -0.0703867
0.8 -0.11494
0.81 -0.156025
0.82 -0.192871
0.83 -0.224852
0.84 -0.251504
0.85 -0.272531
0.86 -0.287227
0.87 -0.296202
0.88 -0.2998
0.89 -0.298436
0.9 -0.292658
0.91 -0.283121
0.92 -0.270478
0.93 -0.255555
0.94 -0.239401
0.95 -0.222827
0.96 -0.20661
0.97 -0.191461
0.98 -0.178011
0.99 -0.167029
1 -0.1588
1.01 -0.153516
1.02 -0.151294
1.03 -0.152124
1.04 -0.155875
1.05 -0.16237
1.06 -0.171356
1.07 -0.182165
1.08 -0.194313
1.09 -0.207284
1.1 -0.220557
1.11 -0.233621
1.12 -0.245912
1.13 -0.256995
1.14 -0.266562
1.15 -0.274362
1.16 -0.280233
1.17 -0.284107
1.18 -0.285972
1.19 -0.285808
1.2 -0.284019
1.21 -0.280878
1.22 -0.276704
1.23 -0.271851
1.24 -0.266688
1.25 -0.261612
1.26 -0.257015
1.27 -0.253192
1.28 -0.250393
1.29 -0.248803
1.3 -0.248539
1.31 -0.249648
1.32 -0.252222
1.33 -0.25598
1.34 -0.260728
1.35 -0.266215
1.36 -0.272146
1.37 -0.278196
1.38 -0.283991
1.39 -0.28914
1.4 -0.293343
1.41 -0.296321
1.42 -0.297842
1.43 -0.297735
1.44 -0.295898
1.45 -0.292111
1.46 -0.286631
1.47 -0.279612
1.48 -0.271269
1.49 -0.261879
1.5 -0.25177
1.51 -0.241312
1.52 -0.230955
1.53 -0.221116
1.54 -0.212179
1.55 -0.204498
1.56 -0.198381
1.57 -0.194079
1.58 -0.19199
1.59 -0.192042
1.6 -0.194201
1.61 -0.19838
1.62 -0.204408
1.63 -0.212034
1.64 -0.220973
1.65 -0.230822
1.66 -0.241052
1.67 -0.251201
1.68 -0.260802
1.69 -0.269395
1.7 -0.276544
1.71 -0.281659
1.72 -0.284488
1.73 -0.284833
1.74 -0.282524
1.75 -0.277479
1.76 -0.269703
1.77 -0.259229
1.78 -0.246111
1.79 -0.230866
1.8 -0.213837
1.81 -0.19542
1.82 -0.176049
1.83 -0.156181
1.84 -0.13631
1.85 -0.116947
1.86 -0.0985021
1.87 -0.0813456
1.88 -0.0657879
1.89 -0.0520727
1.9 -0.0404
1.91 -0.0310453
1.92 -0.0237877
1.93 -0.0185384
1.94 -0.0151375
1.95 -0.0133629
1.96 -0.0129406
1.97 -0.0136037
1.98 -0.0149434
1.99 -0.0165626
2 -0.0181225
2.01 -0.019308
2.02 -0.0198411
2.03 -0.0194882
2.04 -0.01795
2.05 -0.0152452
2.06 -0.0113583
2.07 -0.00634543
2.08 -0.000332208
2.09 0.00649123
2.1 0.0138916
2.11 0.021523
2.12 0.0290152
2.13 0.036011
2.14 0.0421483
2.15 0.0470745
2.16 0.0504601
2.17 0.0517839
2.18 0.050975
2.19 0.0478783
2.2 0.0423924
2.21 0.0344877
2.22 0.0242086
2.23 0.011579
2.24 -0.00323048
2.25 -0.0197927
2.26 -0.0377879
2.27 -0.0568544
2.28 -0.0766005
2.29 -0.0966173
2.3 -0.116438
2.31 -0.13563
2.32 -0.153825
2.33 -0.17069
2.34 -0.185939
2.35 -0.199343
2.36 -0.210659
2.37 -0.21968
2.38 -0.226557
2.39 -0.23134
2.4 -0.234139
2.41 -0.23512
2.42 -0.234498
2.43 -0.232434
2.44 -0.229327
2.45 -0.225517
2.46 -0.221313
2.47 -0.217013
2.48 -0.2129
2.49 -0.209245
2.5 -0.206342
2.51 -0.204313
2.52 -0.203282
2.53 -0.203326
2.54 -0.204472
2.55 -0.206702
2.56 -0.210024
2.57 -0.214284
2.58 -0.219297
2.59 -0.224902
2.6 -0.230918
2.61 -0.237157
2.62 -0.243429
2.63 -0.249517
2.64 -0.255256
2.65 -0.260505
2.66 -0.265145
2.67 -0.269084
2.68 -0.272261
2.69 -0.27459
2.7 -0.276082
2.71 -0.276808
2.72 -0.276816
2.73 -0.276177
2.74 -0.274971
2.75 -0.273288
2.76 -0.271185
2.77 -0.268806
2.78 -0.266232
2.79 -0.263533
2.8 -0.260766
2.81 -0.257971
2.82 -0.255172
2.83 -0.252375
2.84 -0.249564
2.85 -0.246714
2.86 -0.243787
2.87 -0.240737
2.88 -0.237515
2.89 -0.234041
2.9 -0.230288
2.91 -0.226221
2.92 -0.221812
2.93 -0.21705
2.94 -0.211934
2.95 -0.206469
2.96 -0.200684
2.97 -0.194652
2.98 -0.188435
2.99 -0.182104
3 -0.175735
3.01 -0.169406
3.02 -0.163212
3.03 -0.157223
3.04 -0.151493
3.05 -0.146066
3.06 -0.140968
3.07 -0.136206
3.08 -0.131777
3.09 -0.127653
3.1 -0.123746
3.11 -0.119974
3.12 -0.116241
3.13 -0.112436
3.14 -0.108439
3.15 -0.104086
3.16 -0.0992524
3.17 -0.0938281
3.18 -0.0877033
3.19 -0.0807823
3.2 -0.0729879
3.21 -0.0642439
3.22 -0.0544445
3.23 -0.0436802
3.24 -0.0319765
3.25 -0.0193834
3.26 -0.0059739
3.27 0.00815884
3.28 0.022941
3.29 0.038213
3.3 0.0538177
3.31 0.0696224
3.32 0.0854978
3.33 0.101323
3.34 0.116987
3.35 0.132366
3.36 0.147412
3.37 0.162082
3.38 0.176356
3.39 0.190238
3.4 0.203754
3.41 0.216935
3.42 0.229858
3.43 0.242623
3.44 0.255317
3.45 0.268034
3.46 0.280861
3.47 0.293883
3.48 0.307205
3.49 0.320854
3.5 0.334854
3.51 0.349208
3.52 0.36389
3.53 0.37885
3.54 0.394009
3.55 0.409245
3.56 0.424407
3.57 0.439339
3.58 0.453867
3.59 0.467809
3.6 0.480975
3.61 0.493053
3.62 0.503933
3.63 0.513459
3.64 0.521479
3.65 0.527865
3.66 0.532517
3.67 0.535286
3.68 0.536064
3.69 0.53499
3.7 0.532096
3.71 0.527446
3.72 0.521132
3.73 0.513271
3.74 0.503886
3.75 0.493251
3.76 0.481572
3.77 0.469027
3.78 0.455795
3.79 0.442051
3.8 0.427959
3.81 0.413684
3.82 0.399389
3.83 0.385193
3.84 0.371195
3.85 0.357473
3.86 0.344085
3.87 0.3311
3.88 0.318521
3.89 0.306333
3.9 0.29452
3.91 0.283058
3.92 0.271915
3.93 0.261057
3.94 0.250458
3.95 0.240055
3.96 0.229811
3.97 0.219699
3.98 0.209695
3.99 0.199784
4 0.189962
4.01 0.180229
4.02 0.170585
4.03 0.161043
4.04 0.151617
4.05 0.142325
4.06 0.133184
4.07 0.124228
4.08 0.115453
4.09 0.106864
4.1 0.0984647
4.11 0.0902508
4.12 0.0822128
4.13 0.0743445
4.14 0.066622
4.15 0.0590126
4.16 0.0514907
4.17 0.0440307
4.18 0.0366089
4.19 0.0292047
4.2 0.0218022
4.21 0.0143934
4.22 0.00698017
4.23 -0.000426531
4.24 -0.00780632
4.25 -0.0151295
4.26 -0.0223504
4.27 -0.0294121
4.28 -0.0362678
4.29 -0.0428595
4.3 -0.0491281
4.31 -0.0550154
4.32 -0.0604666
4.33 -0.0653792
4.34 -0.069753
4.35 -0.0735692
4.36 -0.0768147
4.37 -0.0794905
4.38 -0.0816129
4.39 -0.083195
4.4 -0.084272
4.41 -0.0849477
4.42 -0.0852968
4.43 -0.0854031
4.44 -0.0853569
4.45 -0.0852516
4.46 -0.0851929
4.47 -0.0852788
4.48 -0.0855896
4.49 -0.0861966
4.5 -0.0871576
4.51 -0.0885151
4.52 -0.090306
4.53 -0.0925629
4.54 -0.0952308
4.55 -0.0982745
4.56 -0.101642
4.57 -0.105267
4.58 -0.109069
4.59 -0.112958
4.6 -0.116821
4.61 -0.120554
4.62 -0.124061
4.63 -0.12725
4.64 -0.130037
4.65 -0.132342
4.66 -0.134057
4.67 -0.135196
4.68 -0.135743
4.69 -0.135699
4.7 -0.135085
4.71 -0.133939
4.72 -0.132289
4.73 -0.130226
4.74 -0.127858
4.75 -0.125276
4.76 -0.122576
4.77 -0.119856
4.78 -0.117213
4.79 -0.114762
4.8 -0.112571
4.81 -0.110706
4.82 -0.109218
4.83 -0.108145
4.84 -0.107508
4.85 -0.107335
4.86 -0.107613
4.87 -0.108289
4.88 -0.109321
4.89 -0.110661
4.9 -0.112251
4.91 -0.114031
4.92 -0.115946
4.93 -0.117915
4.94 -0.119884
4.95 -0.121804
4.96 -0.123636
4.97 -0.125351
4.98 -0.126924
4.99 -0.128346
5 -0.129632
5.01 -0.130799
5.02 -0.131872
5.03 -0.13288
5.04 -0.13386
5.05 -0.13485
5.06 -0.13589
5.07 -0.13701
5.08 -0.138234
5.09 -0.13958
5.1 -0.141053
5.11 -0.142656
5.12 -0.144375
5.13 -0.146172
5.14 -0.148008
5.15 -0.149838
5.16 -0.151608
5.17 -0.153259
5.18 -0.15471
5.19 -0.155905
5.2 -0.156795
5.21 -0.157332
5.22 -0.157477
5.23 -0.157202
5.24 -0.156482
5.25 -0.155289
5.26 -0.153683
5.27 -0.151697
5.28 -0.149378
5.29 -0.146785
5.3 -0.143987
5.31 -0.141058
5.32 -0.138096
5.33 -0.135189
5.34 -0.132417
5.35 -0.129854
5.36 -0.127564
5.37 -0.125605
5.38 -0.124051
5.39 -0.122884
5.4 -0.122102
5.41 -0.121687
5.42 -0.121602
5.43 -0.121794
5.44 -0.122203
5.45 -0.122732
5.46 -0.123281
5.47 -0.123753
5.48 -0.124053
5.49 -0.124088
5.5 -0.12377
5.51 -0.122969
5.52 -0.121669
5.53 -0.119831
5.54 -0.117433
5.55 -0.114476
5.56 -0.11098
5.57 -0.106962
5.58 -0.10249
5.59 -0.0976754
5.6 -0.0926128
5.61 -0.0874059
5.62 -0.0821644
5.63 -0.0769996
5.64 -0.0720511
5.65 -0.0674101
5.66 -0.0631613
5.67 -0.0593749
5.68 -0.0561029
5.69 -0.0533757
5.7 -0.0512256
5.71 -0.0496475
5.72 -0.0485575
5.73 -0.0478912
5.74 -0.0475656
5.75 -0.0474823
5.76 -0.047531
5.77 -0.0475835
5.78 -0.0475044
5.79 -0.0471764
5.8 -0.04649
5.81 -0.0453478
5.82 -0.043669
5.83 -0.0413706
5.84 -0.038379
5.85 -0.0347369
5.86 -0.030461
5.87 -0.0255923
5.88 -0.0201954
5.89 -0.0143558
5.9 -0.00815791
5.91 -0.0017548
5.92 0.00471434
5.93 0.0111169
5.94 0.0173216
5.95 0.023204
5.96 0.0286388
5.97 0.033479
5.98 0.037696
5.99 0.0412413
6 0.0440915
6.01 0.0462499
6.02 0.0477459
6.03 0.0485952
6.04 0.0489108
6.05 0.0488223
6.06 0.0484496
6.07 0.0479241
6.08 0.0473835
6.09 0.0469696
6.1 0.0468576
6.11 0.0471536
6.12 0.0479645
6.13 0.0493775
6.14 0.0514573
6.15 0.0542429
6.16 0.0577913
6.17 0.0620724
6.18 0.0669975
6.19 0.072491
6.2 0.0784547
6.21 0.0847708
6.22 0.0913066
6.23 0.09791
6.24 0.104409
6.25 0.110656
6.26 0.116509
6.27 0.121836
6.28 0.126525
6.29 0.130436
6.3 0.133481
6.31 0.135667
6.32 0.136982
6.33 0.137437
6.34 0.137073
6.35 0.135951
6.36 0.134095
6.37 0.131686
6.38 0.128849
6.39 0.125712
6.4 0.122408
6.41 0.119065
6.42 0.115817
6.43 0.112801
6.44 0.110104
6.45 0.107803
6.46 0.105958
6.47 0.104604
6.48 0.103754
6.49 0.103444
6.5 0.103601
6.51 0.10416
6.52 0.10505
6.53 0.106187
6.54 0.10748
6.55 0.108828
6.56 0.110117
6.57 0.111247
6.58 0.112131
6.59 0.112691
6.6 0.112862
6.61 0.112596
6.62 0.11182
6.63 0.110545
6.64 0.108795
6.65 0.106595
6.66 0.103987
6.67 0.101023
6.68 0.0977654
6.69 0.0942792
6.7 0.0906698
6.71 0.0870163
6.72 0.0833951
6.73 0.0798773
6.74 0.076526
6.75 0.0734133
6.76 0.0705776
6.77 0.0680331
6.78 0.0657903
6.79 0.0638463
6.8 0.0621855
6.81 0.0607826
6.82 0.0596173
6.83 0.0586164
6.84 0.0577291
6.85 0.056903
6.86 0.0560859
6.87 0.0552288
6.88 0.0542802
6.89 0.0531998
6.9 0.0519673
6.91 0.0505672
6.92 0.0489949
6.93 0.0472559
6.94 0.0453657
6.95 0.0433377
6.96 0.0412222
6.97 0.0390582
6.98 0.0368872
6.99 0.0347514
7 0.0326916
7.01 0.0307523
7.02 0.0289705
7.03 0.0273596
7.04 0.0259315
7.05 0.0246881
7.06 0.0236204
7.07 0.0227091
7.08 0.0219341
7.09 0.0212402
7.1 0.0205784
7.11 0.0198966
7.12 0.0191399
7.13 0.0182531
7.14 0.0171743
7.15 0.0158402
7.16 0.0142271
7.17 0.012306
7.18 0.0100591
7.19 0.00748176
7.2 0.0045824
7.21 0.00135924
7.22 -0.00212492
7.23 -0.00581062
7.24 -0.0096348
7.25 -0.0135253
7.26 -0.017403
7.27 -0.0211794
7.28 -0.0247473
7.29 -0.028034
7.3 -0.0309622
7.31 -0.0334624
7.32 -0.0354752
7.33 -0.0369541
7.34 -0.0378193
7.35 -0.0380801
7.36 -0.0377612
7.37 -0.0368833
7.38 -0.0354829
7.39 -0.0336118
7.4 -0.0313294
7.41 -0.0286961
7.42 -0.0258387
7.43 -0.0228509
7.44 -0.0198288
7.45 -0.0168684
7.46 -0.014063
7.47 -0.0115224
7.48 -0.00932993
7.49 -0.00753847
7.5 -0.00620025
7.51 -0.00535321
7.52 -0.00502035
7.53 -0.00521233
7.54 -0.00597308
7.55 -0.00721861
7.56 -0.00890997
7.57 -0.0109968
7.58 -0.0134194
7.59 -0.0161103
7.6 -0.0190041
7.61 -0.0220138
7.62 -0.0250537
7.63 -0.0280512
7.64 -0.0309388
7.65 -0.0336554
7.66 -0.0361478
7.67 -0.0383386
7.68 -0.0402218
7.69 -0.0417791
7.7 -0.0430018
7.71 -0.0438914
7.72 -0.0444598
7.73 -0.0447148
7.74 -0.0446845
7.75 -0.0444265
7.76 -0.0439823
7.77 -0.0433968
7.78 -0.0427165
7.79 -0.0419879
7.8 -0.0412605
7.81 -0.0405814
7.82 -0.0399884
7.83 -0.0395144
7.84 -0.0391868
7.85 -0.0390269
7.86 -0.0390564
7.87 -0.0392923
7.88 -0.0397197
7.89 -0.0403327
7.9 -0.0411194
7.91 -0.0420629
7.92 -0.0431417
7.93 -0.0443373
7.94 -0.0456102
7.95 -0.0469257
7.96 -0.0482502
7.97 -0.0495497
7.98 -0.0507896
7.99 -0.0519328
8 -0.0529342
8.01 -0.0537727
8.02 -0.0544206
8.03 -0.0548534
8.04 -0.0550499
8.05 -0.0549935
8.06 -0.0546502
8.07 -0.0540232
8.08 -0.053122
8.09 -0.0519515
8.1 -0.0505222
8.11 -0.0488506
8.12 -0.0469559
8.13 -0.0448533
8.14 -0.0425992
8.15 -0.0402328
8.16 -0.0377975
8.17 -0.0353399
8.18 -0.0329092
8.19 -0.0305649
8.2 -0.0283638
8.21 -0.0263512
8.22 -0.0245738
8.23 -0.0230745
8.24 -0.021891
8.25 -0.0210557
8.26 -0.0206348
8.27 -0.0206003
8.28 -0.0209551
8.29 -0.0216917
8.3 -0.0227921
8.31 -0.0242282
8.32 -0.0259757
8.33 -0.0279794
8.34 -0.0301633
8.35 -0.0324625
8.36 -0.0348069
8.37 -0.0371226
8.38 -0.0393346
8.39 -0.0413402
8.4 -0.043079
8.41 -0.0444861
8.42 -0.0455026
8.43 -0.0460782
8.44 -0.0461728
8.45 -0.0457343
8.46 -0.0447324
8.47 -0.0432048
8.48 -0.0411655
8.49 -0.0386415
8.5 -0.0356716
8.51 -0.0323058
8.52 -0.0285775
8.53 -0.0245898
8.54 -0.0204233
8.55 -0.016156
8.56 -0.0118667
8.57 -0.00763259
8.58 -0.00353469
8.59 0.000340565
8.6 0.00394633
8.61 0.00723336
8.62 0.0101629
8.63 0.0127075
8.64 0.0148513
8.65 0.0165557
8.66 0.017854
8.67 0.0187789
8.68 0.0193604
8.69 0.0196359
8.7 0.0196492
8.71 0.0194445
8.72 0.0190676
8.73 0.0185886
8.74 0.0180566
8.75 0.0175176
8.76 0.0170123
8.77 0.0165759
8.78 0.0162456
8.79 0.0160398
8.8 0.0159654
8.81 0.0160254
8.82 0.0162158
8.83 0.0165262
8.84 0.016942
8.85 0.0174478
8.86 0.0180096
8.87 0.0186025
8.88 0.0192018
8.89 0.0197845
8.9 0.0203299
8.91 0.0208167
8.92 0.021232
8.93 0.0215725
8.94 0.0218375
8.95 0.022031
8.96 0.0221621
8.97 0.0222441
8.98 0.0222923
8.99 0.0223316
9 0.0223828
9.01 0.0224663
9.02 0.0226012
9.03 0.0228042
9.04 0.0230933
9.05 0.0234789
9.06 0.0239578
9.07 0.0245268
9.08 0.025177
9.09 0.0258941
9.1 0.0266587
9.11 0.0274465
9.12 0.0282248
9.13 0.0289633
9.14 0.0296312
9.15 0.0301981
9.16 0.0306355
9.17 0.0309106
9.18 0.0309945
9.19 0.0308849
9.2 0.0305742
9.21 0.0300614
9.22 0.0293529
9.23 0.028462
9.24 0.0273958
9.25 0.0261965
9.26 0.0249001
9.27 0.023543
9.28 0.0221638
9.29 0.0208025
9.3 0.0195012
9.31 0.0183069
9.32 0.0172467
9.33 0.0163481
9.34 0.0156323
9.35 0.0151135
9.36 0.0147985
9.37 0.0147025
9.38 0.0148034
9.39 0.0150764
9.4 0.0154965
9.41 0.0160334
9.42 0.0166522
9.43 0.0173151
9.44 0.0179784
9.45 0.0185996
9.46 0.0191419
9.47 0.0195724
9.48 0.0198628
9.49 0.0199908
9.5 0.0199273
9.51 0.0196699
9.52 0.0192284
9.53 0.0186122
9.54 0.0178382
9.55 0.0169295
9.56 0.0159144
9.57 0.0148231
9.58 0.013703
9.59 0.0125915
9.6 0.0115256
9.61 0.0105401
9.62 0.00966653
9.63 0.00894133
9.64 0.00838619
9.65 0.00800532
9.66 0.00780332
9.67 0.00777724
9.68 0.00791677
9.69 0.00820466
9.7 0.00862856
9.71 0.00914207
9.72 0.00971158
9.73 0.0103016
9.74 0.0108758
9.75 0.0113992
9.76 0.0118329
9.77 0.0121428
9.78 0.0123126
9.79 0.0123266
9.8 0.0121762
9.81 0.0118605
9.82 0.0113863
9.83 0.0107553
9.84 0.0100057
9.85 0.00916867
9.86 0.00827853
9.87 0.00737313
9.88 0.00649249
9.89 0.00568159
9.9 0.00498923
9.91 0.00444594
9.92 0.00408336
9.93 0.00392744
9.94 0.0039974
9.95 0.00430492
9.96 0.00487568
9.97 0.00568616
9.98 0.00671556
9.99 0.00794124
10 0.00933371
10.01 0.0108577
10.02 0.0124745
10.03 0.0141378
10.04 0.015795
10.05 0.0174014
10.06 0.0189139
10.07 0.0202926
10.08 0.0215019
10.09 0.0224937
10.1 0.023252
10.11 0.0237697
10.12 0.0240398
10.13 0.0240628
10.14 0.0238467
10.15 0.0234021
10.16 0.0227362
10.17 0.0218975
10.18 0.0209162
10.19 0.0198247
10.2 0.0186566
10.21 0.0174455
10.22 0.016225
10.23 0.015029
10.24 0.0138833
10.25 0.0128094
10.26 0.0118239
10.27 0.0109386
10.28 0.0101614
10.29 0.00950501
10.3 0.00895412
10.31 0.0085014
10.32 0.00813648
10.33 0.00784668
10.34 0.00761783
10.35 0.00743693
10.36 0.00728693
10.37 0.00715181
10.38 0.00701961
10.39 0.00688044
10.4 0.00672669
10.41 0.00655321
10.42 0.00635463
10.43 0.00613319
10.44 0.00589076
10.45 0.00563034
10.46 0.00535569
10.47 0.00507068
10.48 0.0047785
10.49 0.00448156
10.5 0.00418059
10.51 0.00387384
10.52 0.00355726
10.53 0.00322446
10.54 0.00286674
10.55 0.00246843
10.56 0.0020187
10.57 0.00150446
10.58 0.000911939
10.59 0.000227969
10.6 -0.000559128
10.61 -0.0014632
10.62 -0.00249565
10.63 -0.00364847
10.64 -0.00491792
10.65 -0.00629516
10.66 -0.00776592
10.67 -0.00931057
10.68 -0.010906
10.69 -0.0125151
10.7 -0.0141021
10.71 -0.0156296
10.72 -0.0170585
10.73 -0.0183492
10.74 -0.0194575
10.75 -0.0203292
10.76 -0.0209499
10.77 -0.021294
10.78 -0.0213429
10.79 -0.0210857
10.8 -0.0205198
10.81 -0.0196292
10.82 -0.0184463
10.83 -0.0170101
10.84 -0.0153568
10.85 -0.0135303
10.86 -0.0115813
10.87 -0.00956552
10.88 -0.00754976
10.89 -0.00560119
10.9 -0.00378082
10.91 -0.0021471
10.92 -0.000754129
10.93 0.000350158
10.94 0.0011008
10.95 0.00147066
10.96 0.00145825
10.97 0.00105714
10.98 0.000272465
10.99 -0.000879135
11 -0.00237122
11.01 -0.00419238
11.02 -0.00625534
11.03 -0.00850283
11.04 -0.0108718
11.05 -0.0132955
11.06 -0.0157051
11.07 -0.0180233
11.08 -0.0201735
11.09 -0.0221005
11.1 -0.02375
11.11 -0.0250754
11.12 -0.0260395
11.13 -0.0266147
11.14 -0.0267392
11.15 -0.0264509
11.16 -0.0257605
11.17 -0.0246864
11.18 -0.0232563
11.19 -0.0215062
11.2 -0.0194688
11.21 -0.0171951
11.22 -0.0147576
11.23 -0.0122116
11.24 -0.00961259
11.25 -0.00701472
11.26 -0.00446933
11.27 -0.00203788
11.28 0.000242139
11.29 0.00233832
11.3 0.00422314
11.31 0.0058761
11.32 0.00728376
11.33 0.00843062
11.34 0.00930569
11.35 0.00993685
11.36 0.0103362
11.37 0.0105197
11.38 0.0105065
11.39 0.0103179
11.4 0.00996485
11.41 0.0094821
11.42 0.0088961
11.43 0.00822779
11.44 0.00749645
11.45 0.00671935
11.46 0.00591119
11.47 0.00508505
11.48 0.00425375
11.49 0.00342567
11.5 0.00260768
11.51 0.00180551
11.52 0.0010241
11.53 0.000270331
11.54 -0.000451558
11.55 -0.00113767
11.56 -0.00178254
11.57 -0.00238004
11.58 -0.00292337
11.59 -0.00340425
11.6 -0.00380768
11.61 -0.00413239
11.62 -0.00437092
11.63 -0.00451661
11.64 -0.00456397
11.65 -0.00450916
11.66 -0.00434352
11.67 -0.00406971
11.68 -0.00369703
11.69 -0.0032323
11.7 -0.00268521
11.71 -0.00206823
11.72 -0.00139628
11.73 -0.000684539
11.74 4.17322e-05
11.75 0.000762244
11.76 0.00145637
11.77 0.00210387
11.78 0.00268556
11.79 0.0031786
11.8 0.00356551
11.81 0.00384065
11.82 0.00399669
11.83 0.00403027
11.84 0.00394215
