# xPDFsuite Configuration #
[PDF]
wavelength = 0.1
dataformat = QA
inputfile = BiMsol6_insitu_700 C-00734.xy
backgroundfile = Quartz2mm-dist500-00000.xy
mode = xray
bgscale = 0.0042
composition = Bi2Fe4O9
outputtype = gr
qmaxinst = 24.998449118
qmin = 0.1
qmax = 21.4986662415
rmax = 80.0
rmin = 0.0
rstep = 0.01
rpoly = 0.9

[Misc]
inputdir = C:/Data/Seafile/CPH/Beamtime/Desy Oct 20/In situ data/Processed/BiMsol6/PDF
savedir = C:/Data/Seafile/CPH/Beamtime/Desy Oct 20/In situ data/PDF/BiMsol6
backgroundfilefull = C:/Data/Seafile/CPH/Beamtime/Desy Oct 20/In situ data/Processed/Standard_Empty_Cap/Quartz2mm-dist500-00000.xy

#### start data
#S 1
#L r($\AA$)  G($\AA^{-2}$)
0 0
0.01 0.00599067
0.02 0.0116404
0.03 0.0166573
0.04 0.0207798
0.05 0.0237882
0.06 0.0255152
0.07 0.0257782
0.08 0.0245243
0.09 0.0218891
0.1 0.0179844
0.11 0.0129831
0.12 0.0071118
0.13 0.000640759
0.14 -0.00612596
0.15 -0.0128071
0.16 -0.019081
0.17 -0.0246461
0.18 -0.0292323
0.19 -0.0326146
0.2 -0.0345623
0.21 -0.0349191
0.22 -0.0337798
0.23 -0.0312097
0.24 -0.0273478
0.25 -0.0224028
0.26 -0.0166445
0.27 -0.0103812
0.28 -0.00405189
0.29 0.00195259
0.3 0.00725303
0.31 0.0114897
0.32 0.0143401
0.33 0.0154782
0.34 0.0145863
0.35 0.0117195
0.36 0.00688046
0.37 0.000171225
0.38 -0.00820552
0.39 -0.0179494
0.4 -0.0287104
0.41 -0.0398958
0.42 -0.0509247
0.43 -0.0612058
0.44 -0.0701283
0.45 -0.0770845
0.46 -0.0814317
0.47 -0.0823416
0.48 -0.0796403
0.49 -0.0729961
0.5 -0.0621948
0.51 -0.047153
0.52 -0.0279282
0.53 -0.00446062
0.54 0.0227154
0.55 0.0528986
0.56 0.0854371
0.57 0.11957
0.58 0.154447
0.59 0.189143
0.6 0.222476
0.61 0.253524
0.62 0.28136
0.63 0.305114
0.64 0.324003
0.65 0.337356
0.66 0.344241
0.67 0.344279
0.68 0.337647
0.69 0.324354
0.7 0.304589
0.71 0.278713
0.72 0.247251
0.73 0.210405
0.74 0.169628
0.75 0.12586
0.76 0.0801001
0.77 0.0333863
0.78 -0.0132363
0.79 -0.0586369
0.8 -0.101678
0.81 -0.141584
0.82 -0.177607
0.83 -0.209131
0.84 -0.23569
0.85 -0.256973
0.86 -0.272275
0.87 -0.282136
0.88 -0.286847
0.89 -0.286769
0.9 -0.282389
0.91 -0.274302
0.92 -0.263098
0.93 -0.249538
0.94 -0.234621
0.95 -0.219117
0.96 -0.203772
0.97 -0.189278
0.98 -0.176255
0.99 -0.165459
1 -0.157212
1.01 -0.15174
1.02 -0.149203
1.03 -0.149641
1.04 -0.152978
1.05 -0.159099
1.06 -0.167828
1.07 -0.178551
1.08 -0.190837
1.09 -0.204218
1.1 -0.218209
1.11 -0.232327
1.12 -0.246046
1.13 -0.258912
1.14 -0.270584
1.15 -0.280776
1.16 -0.289277
1.17 -0.295955
1.18 -0.30073
1.19 -0.303488
1.2 -0.304538
1.21 -0.304062
1.22 -0.30229
1.23 -0.299492
1.24 -0.295958
1.25 -0.291979
1.26 -0.287899
1.27 -0.284002
1.28 -0.28052
1.29 -0.27764
1.3 -0.275497
1.31 -0.274176
1.32 -0.27378
1.33 -0.274165
1.34 -0.275228
1.35 -0.276819
1.36 -0.278753
1.37 -0.280819
1.38 -0.282771
1.39 -0.284348
1.4 -0.285345
1.41 -0.285576
1.42 -0.284889
1.43 -0.283176
1.44 -0.280381
1.45 -0.276384
1.46 -0.271372
1.47 -0.265474
1.48 -0.258862
1.49 -0.251752
1.5 -0.244395
1.51 -0.237081
1.52 -0.230146
1.53 -0.223867
1.54 -0.218511
1.55 -0.214314
1.56 -0.211472
1.57 -0.210129
1.58 -0.210535
1.59 -0.212568
1.6 -0.216139
1.61 -0.221117
1.62 -0.227309
1.63 -0.234462
1.64 -0.242284
1.65 -0.250397
1.66 -0.258376
1.67 -0.265839
1.68 -0.272406
1.69 -0.277715
1.7 -0.281436
1.71 -0.283096
1.72 -0.282566
1.73 -0.279753
1.74 -0.274586
1.75 -0.267067
1.76 -0.257276
1.77 -0.245319
1.78 -0.231329
1.79 -0.215797
1.8 -0.199065
1.81 -0.181513
1.82 -0.163542
1.83 -0.145557
1.84 -0.128019
1.85 -0.111335
1.86 -0.0958152
1.87 -0.0817403
1.88 -0.0693293
1.89 -0.0587359
1.9 -0.0500713
1.91 -0.0435066
1.92 -0.0387676
1.93 -0.0357114
1.94 -0.034138
1.95 -0.0337999
1.96 -0.0344137
1.97 -0.0356938
1.98 -0.0372659
1.99 -0.0387926
2 -0.039988
2.01 -0.0406006
2.02 -0.0404249
2.03 -0.0393059
2.04 -0.0370389
2.05 -0.0337296
2.06 -0.0294421
2.07 -0.0243064
2.08 -0.018514
2.09 -0.0123108
2.1 -0.00600048
2.11 3.69873e-05
2.12 0.00544774
2.13 0.00987904
2.14 0.0129888
2.15 0.0144595
2.16 0.0140105
2.17 0.0111559
2.18 0.00593887
2.19 -0.00170965
2.2 -0.0118018
2.21 -0.0242744
2.22 -0.0389903
2.23 -0.0558203
2.24 -0.0744886
2.25 -0.0945091
2.26 -0.115497
2.27 -0.137037
2.28 -0.1587
2.29 -0.180052
2.3 -0.200561
2.31 -0.219856
2.32 -0.237609
2.33 -0.25353
2.34 -0.267393
2.35 -0.279039
2.36 -0.288301
2.37 -0.295065
2.38 -0.299601
2.39 -0.302058
2.4 -0.302644
2.41 -0.30162
2.42 -0.299289
2.43 -0.29593
2.44 -0.291994
2.45 -0.287863
2.46 -0.28388
2.47 -0.280363
2.48 -0.277598
2.49 -0.275852
2.5 -0.275418
2.51 -0.276316
2.52 -0.278603
2.53 -0.282277
2.54 -0.287277
2.55 -0.293488
2.56 -0.30081
2.57 -0.30897
2.58 -0.317683
2.59 -0.326689
2.6 -0.33572
2.61 -0.344508
2.62 -0.35279
2.63 -0.360241
2.64 -0.366725
2.65 -0.372087
2.66 -0.376214
2.67 -0.379043
2.68 -0.380552
2.69 -0.380689
2.7 -0.37956
2.71 -0.377351
2.72 -0.374212
2.73 -0.370321
2.74 -0.365869
2.75 -0.36106
2.76 -0.3561
2.77 -0.351219
2.78 -0.346592
2.79 -0.34237
2.8 -0.338678
2.81 -0.335608
2.82 -0.333254
2.83 -0.331644
2.84 -0.330712
2.85 -0.330404
2.86 -0.330637
2.87 -0.331304
2.88 -0.332281
2.89 -0.33343
2.9 -0.334575
2.91 -0.335569
2.92 -0.336272
2.93 -0.336559
2.94 -0.336317
2.95 -0.335426
2.96 -0.333786
2.97 -0.331402
2.98 -0.328254
2.99 -0.324343
3 -0.319685
3.01 -0.314314
3.02 -0.30821
3.03 -0.301478
3.04 -0.294176
3.05 -0.286346
3.06 -0.278018
3.07 -0.269206
3.08 -0.259892
3.09 -0.250021
3.1 -0.239585
3.11 -0.228514
3.12 -0.216719
3.13 -0.204094
3.14 -0.19052
3.15 -0.175766
3.16 -0.159742
3.17 -0.142359
3.18 -0.123502
3.19 -0.103074
3.2 -0.0810045
3.21 -0.0572128
3.22 -0.031566
3.23 -0.00426687
3.24 0.0246032
3.25 0.0549202
3.26 0.0865179
3.27 0.119189
3.28 0.152729
3.29 0.18679
3.3 0.221025
3.31 0.2551
3.32 0.288671
3.33 0.321388
3.34 0.352889
3.35 0.382651
3.36 0.410502
3.37 0.436163
3.38 0.459388
3.39 0.479971
3.4 0.497753
3.41 0.51243
3.42 0.523959
3.43 0.532494
3.44 0.538075
3.45 0.540787
3.46 0.540752
3.47 0.538128
3.48 0.532848
3.49 0.525419
3.5 0.516073
3.51 0.505045
3.52 0.492574
3.53 0.478893
3.54 0.464187
3.55 0.448685
3.56 0.432635
3.57 0.416205
3.58 0.399537
3.59 0.382755
3.6 0.365958
3.61 0.349238
3.62 0.332654
3.63 0.316246
3.64 0.300046
3.65 0.284077
3.66 0.268358
3.67 0.252921
3.68 0.237803
3.69 0.223017
3.7 0.208602
3.71 0.194612
3.72 0.181112
3.73 0.168178
3.74 0.155973
3.75 0.144564
3.76 0.134048
3.77 0.124544
3.78 0.116174
3.79 0.10906
3.8 0.103365
3.81 0.099303
3.82 0.0968496
3.83 0.0960903
3.84 0.0970937
3.85 0.0999091
3.86 0.104565
3.87 0.11122
3.88 0.119762
3.89 0.130083
3.9 0.142115
3.91 0.155771
3.92 0.170943
3.93 0.187531
3.94 0.205475
3.95 0.224488
3.96 0.244405
3.97 0.265059
3.98 0.286278
3.99 0.307888
4 0.329722
4.01 0.351585
4.02 0.373307
4.03 0.394736
4.04 0.415727
4.05 0.436146
4.06 0.455861
4.07 0.47466
4.08 0.49252
4.09 0.509347
4.1 0.525057
4.11 0.539572
4.12 0.552826
4.13 0.564674
4.14 0.575062
4.15 0.58402
4.16 0.59151
4.17 0.5975
4.18 0.601965
4.19 0.604884
4.2 0.606067
4.21 0.605677
4.22 0.603721
4.23 0.600204
4.24 0.595141
4.25 0.58855
4.26 0.580385
4.27 0.570653
4.28 0.559496
4.29 0.546955
4.3 0.533079
4.31 0.517919
4.32 0.501528
4.33 0.483852
4.34 0.465056
4.35 0.445221
4.36 0.424406
4.37 0.402674
4.38 0.380086
4.39 0.356677
4.4 0.332485
4.41 0.307636
4.42 0.28219
4.43 0.256211
4.44 0.229763
4.45 0.202911
4.46 0.175699
4.47 0.148231
4.48 0.12059
4.49 0.0928554
4.5 0.0651109
4.51 0.0374437
4.52 0.00995211
4.53 -0.0172402
4.54 -0.0440528
4.55 -0.0703871
4.56 -0.0961447
4.57 -0.121229
4.58 -0.145545
4.59 -0.168927
4.6 -0.19132
4.61 -0.212682
4.62 -0.232949
4.63 -0.252069
4.64 -0.270001
4.65 -0.286698
4.66 -0.302042
4.67 -0.316161
4.68 -0.329073
4.69 -0.340809
4.7 -0.351413
4.71 -0.36094
4.72 -0.36939
4.73 -0.376869
4.74 -0.383505
4.75 -0.389382
4.76 -0.394587
4.77 -0.399202
4.78 -0.40331
4.79 -0.406951
4.8 -0.41025
4.81 -0.41327
4.82 -0.416067
4.83 -0.418686
4.84 -0.421163
4.85 -0.423521
4.86 -0.42578
4.87 -0.427954
4.88 -0.430044
4.89 -0.432046
4.9 -0.43395
4.91 -0.435741
4.92 -0.437388
4.93 -0.438885
4.94 -0.440213
4.95 -0.441355
4.96 -0.442295
4.97 -0.443017
4.98 -0.443496
4.99 -0.443712
5 -0.443671
5.01 -0.443362
5.02 -0.442774
5.03 -0.441896
5.04 -0.440716
5.05 -0.439184
5.06 -0.437309
5.07 -0.435074
5.08 -0.432455
5.09 -0.429426
5.1 -0.425959
5.11 -0.422005
5.12 -0.417506
5.13 -0.412471
5.14 -0.406874
5.15 -0.400691
5.16 -0.393905
5.17 -0.386506
5.18 -0.37844
5.19 -0.369759
5.2 -0.360503
5.21 -0.350711
5.22 -0.340435
5.23 -0.329738
5.24 -0.318693
5.25 -0.307382
5.26 -0.29594
5.27 -0.284475
5.28 -0.273104
5.29 -0.261945
5.3 -0.251116
5.31 -0.240778
5.32 -0.231035
5.33 -0.221968
5.34 -0.213662
5.35 -0.206187
5.36 -0.199596
5.37 -0.193937
5.38 -0.18931
5.39 -0.185606
5.4 -0.182798
5.41 -0.180837
5.42 -0.179657
5.43 -0.179178
5.44 -0.179342
5.45 -0.180022
5.46 -0.181078
5.47 -0.182401
5.48 -0.183883
5.49 -0.18542
5.5 -0.186916
5.51 -0.188265
5.52 -0.189405
5.53 -0.190283
5.54 -0.190861
5.55 -0.191116
5.56 -0.19104
5.57 -0.190623
5.58 -0.189885
5.59 -0.188877
5.6 -0.187633
5.61 -0.186193
5.62 -0.184596
5.63 -0.182878
5.64 -0.181058
5.65 -0.179165
5.66 -0.177205
5.67 -0.175167
5.68 -0.173027
5.69 -0.170744
5.7 -0.16825
5.71 -0.165457
5.72 -0.162294
5.73 -0.158669
5.74 -0.154481
5.75 -0.149628
5.76 -0.144012
5.77 -0.137446
5.78 -0.129904
5.79 -0.121338
5.8 -0.111701
5.81 -0.100964
5.82 -0.0891266
5.83 -0.076175
5.84 -0.0621153
5.85 -0.0471186
5.86 -0.0312899
5.87 -0.0147564
5.88 0.00233519
5.89 0.0198225
5.9 0.0375348
5.91 0.0552557
5.92 0.0727969
5.93 0.0899808
5.94 0.10664
5.95 0.122619
5.96 0.137765
5.97 0.151884
5.98 0.164975
5.99 0.176986
6 0.187893
6.01 0.197699
6.02 0.206436
6.03 0.214088
6.04 0.220784
6.05 0.226666
6.06 0.231848
6.07 0.236453
6.08 0.240608
6.09 0.244432
6.1 0.248036
6.11 0.251552
6.12 0.255063
6.13 0.258632
6.14 0.262298
6.15 0.266076
6.16 0.269957
6.17 0.273897
6.18 0.27782
6.19 0.28164
6.2 0.28525
6.21 0.288528
6.22 0.291344
6.23 0.293476
6.24 0.294846
6.25 0.295325
6.26 0.294794
6.27 0.293153
6.28 0.290318
6.29 0.286159
6.3 0.280624
6.31 0.273793
6.32 0.265689
6.33 0.256363
6.34 0.245889
6.35 0.234363
6.36 0.221815
6.37 0.208481
6.38 0.194513
6.39 0.18006
6.4 0.165268
6.41 0.150283
6.42 0.135241
6.43 0.120282
6.44 0.105508
6.45 0.0910015
6.46 0.0768207
6.47 0.0630034
6.48 0.0495646
6.49 0.0365307
6.5 0.0238422
6.51 0.011443
6.52 -0.000728323
6.53 -0.0127427
6.54 -0.0246772
6.55 -0.036613
6.56 -0.0486403
6.57 -0.0608256
6.58 -0.0732254
6.59 -0.0858819
6.6 -0.098821
6.61 -0.11205
6.62 -0.125577
6.63 -0.139347
6.64 -0.153296
6.65 -0.167347
6.66 -0.18141
6.67 -0.195381
6.68 -0.209138
6.69 -0.22252
6.7 -0.235422
6.71 -0.247723
6.72 -0.259305
6.73 -0.270056
6.74 -0.279879
6.75 -0.288609
6.76 -0.296198
6.77 -0.302643
6.78 -0.307914
6.79 -0.311995
6.8 -0.314888
6.81 -0.3166
6.82 -0.317047
6.83 -0.316399
6.84 -0.314699
6.85 -0.311998
6.86 -0.308345
6.87 -0.303786
6.88 -0.29831
6.89 -0.291959
6.9 -0.2848
6.91 -0.276841
6.92 -0.268078
6.93 -0.258496
6.94 -0.248065
6.95 -0.236643
6.96 -0.224275
6.97 -0.21091
6.98 -0.196491
6.99 -0.180962
7 -0.16427
7.01 -0.146307
7.02 -0.127014
7.03 -0.106451
7.04 -0.0846167
7.05 -0.0615259
7.06 -0.0372133
7.07 -0.0117339
7.08 0.0149391
7.09 0.0425982
7.1 0.0711086
7.11 0.100333
7.12 0.13012
7.13 0.160307
7.14 0.190722
7.15 0.221165
7.16 0.251441
7.17 0.281373
7.18 0.310792
7.19 0.339534
7.2 0.367449
7.21 0.394302
7.22 0.420023
7.23 0.444539
7.24 0.467766
7.25 0.489639
7.26 0.510109
7.27 0.529103
7.28 0.546509
7.29 0.562451
7.3 0.576931
7.31 0.589958
7.32 0.601543
7.33 0.611699
7.34 0.620324
7.35 0.627488
7.36 0.633245
7.37 0.637588
7.38 0.640503
7.39 0.64197
7.4 0.641936
7.41 0.640234
7.42 0.636973
7.43 0.632109
7.44 0.625598
7.45 0.617399
7.46 0.607474
7.47 0.59567
7.48 0.582006
7.49 0.566563
7.5 0.549353
7.51 0.530406
7.52 0.509771
7.53 0.48751
7.54 0.463564
7.55 0.438228
7.56 0.411637
7.57 0.383946
7.58 0.355326
7.59 0.325961
7.6 0.296028
7.61 0.265767
7.62 0.235419
7.63 0.205197
7.64 0.175309
7.65 0.14596
7.66 0.117344
7.67 0.089765
7.68 0.0633039
7.69 0.0381003
7.7 0.0142781
7.71 -0.00806006
7.72 -0.0288339
7.73 -0.0479064
7.74 -0.0652048
7.75 -0.0808345
7.76 -0.0948084
7.77 -0.107158
7.78 -0.117932
7.79 -0.127193
7.8 -0.134882
7.81 -0.141215
7.82 -0.146311
7.83 -0.150267
7.84 -0.153184
7.85 -0.155161
7.86 -0.156266
7.87 -0.156571
7.88 -0.156225
7.89 -0.155307
7.9 -0.153882
7.91 -0.152009
7.92 -0.14974
7.93 -0.147085
7.94 -0.144102
7.95 -0.140822
7.96 -0.137263
7.97 -0.133435
7.98 -0.129345
7.99 -0.124989
8 -0.120353
8.01 -0.115462
8.02 -0.110319
8.03 -0.10493
8.04 -0.0993039
8.05 -0.0934534
8.06 -0.0873819
8.07 -0.0811245
8.08 -0.0747187
8.09 -0.0681992
8.1 -0.0616058
8.11 -0.0549824
8.12 -0.0483779
8.13 -0.0418554
8.14 -0.0354648
8.15 -0.0292593
8.16 -0.0232912
8.17 -0.0176111
8.18 -0.0122661
8.19 -0.00732771
8.2 -0.00283131
8.21 0.00121248
8.22 0.00478129
8.23 0.00786057
8.24 0.010444
8.25 0.012532
8.26 0.0140841
8.27 0.0151769
8.28 0.015839
8.29 0.0161053
8.3 0.0160169
8.31 0.0156195
8.32 0.014951
8.33 0.0140706
8.34 0.0130459
8.35 0.0119287
8.36 0.0107683
8.37 0.00961042
8.38 0.00849566
8.39 0.0074702
8.4 0.00655484
8.41 0.00576624
8.42 0.00511305
8.43 0.00459506
8.44 0.00420306
8.45 0.00392273
8.46 0.00372486
8.47 0.00356591
8.48 0.00340336
8.49 0.00318922
8.5 0.00287135
8.51 0.00239475
8.52 0.00167628
8.53 0.000670678
8.54 -0.000671899
8.55 -0.00240206
8.56 -0.00456572
8.57 -0.00720295
8.58 -0.0103652
8.59 -0.0141063
8.6 -0.0183985
8.61 -0.0232478
8.62 -0.0286515
8.63 -0.034598
8.64 -0.0410674
8.65 -0.048072
8.66 -0.0555432
8.67 -0.0634239
8.68 -0.0716667
8.69 -0.0802206
8.7 -0.089032
8.71 -0.0980492
8.72 -0.10722
8.73 -0.116473
8.74 -0.125756
8.75 -0.13502
8.76 -0.14422
8.77 -0.153314
8.78 -0.162253
8.79 -0.171006
8.8 -0.179554
8.81 -0.187874
8.82 -0.195949
8.83 -0.203767
8.84 -0.211315
8.85 -0.218558
8.86 -0.225521
8.87 -0.232202
8.88 -0.238597
8.89 -0.244707
8.9 -0.250528
8.91 -0.256041
8.92 -0.261244
8.93 -0.26615
8.94 -0.270753
8.95 -0.275047
8.96 -0.279026
8.97 -0.282682
8.98 -0.285968
8.99 -0.288915
9 -0.291515
9.01 -0.293763
9.02 -0.295654
9.03 -0.297184
9.04 -0.298332
9.05 -0.299097
9.06 -0.299505
9.07 -0.29956
9.08 -0.299273
9.09 -0.298651
9.1 -0.297708
9.11 -0.296425
9.12 -0.294851
9.13 -0.293003
9.14 -0.2909
9.15 -0.288559
9.16 -0.285998
9.17 -0.283226
9.18 -0.280257
9.19 -0.277121
9.2 -0.273836
9.21 -0.270414
9.22 -0.26687
9.23 -0.263218
9.24 -0.259462
9.25 -0.255625
9.26 -0.25172
9.27 -0.247761
9.28 -0.24376
9.29 -0.239733
9.3 -0.235695
9.31 -0.231663
9.32 -0.227655
9.33 -0.22369
9.34 -0.219785
9.35 -0.21596
9.36 -0.212233
9.37 -0.208635
9.38 -0.205178
9.39 -0.201874
9.4 -0.198736
9.41 -0.195776
9.42 -0.193
9.43 -0.190415
9.44 -0.188033
9.45 -0.185828
9.46 -0.183787
9.47 -0.181891
9.48 -0.180116
9.49 -0.178432
9.5 -0.176805
9.51 -0.175187
9.52 -0.173529
9.53 -0.171782
9.54 -0.169893
9.55 -0.167807
9.56 -0.165466
9.57 -0.162774
9.58 -0.159704
9.59 -0.156202
9.6 -0.152216
9.61 -0.147697
9.62 -0.142602
9.63 -0.136849
9.64 -0.130406
9.65 -0.123279
9.66 -0.115447
9.67 -0.106898
9.68 -0.0976213
9.69 -0.0876174
9.7 -0.0768084
9.71 -0.0652898
9.72 -0.0530812
9.73 -0.0402062
9.74 -0.0266933
9.75 -0.0125758
9.76 0.00213589
9.77 0.0174015
9.78 0.0331389
9.79 0.0492999
9.8 0.065834
9.81 0.0826882
9.82 0.099808
9.83 0.117153
9.84 0.134639
9.85 0.152206
9.86 0.169792
9.87 0.187339
9.88 0.204784
9.89 0.222059
9.9 0.239087
9.91 0.25582
9.92 0.272201
9.93 0.288174
9.94 0.303682
9.95 0.318674
9.96 0.333043
9.97 0.346777
9.98 0.35985
9.99 0.372223
10 0.383865
10.01 0.394748
10.02 0.404828
10.03 0.41404
10.04 0.422445
10.05 0.430039
10.06 0.436826
10.07 0.442814
10.08 0.448018
10.09 0.452396
10.1 0.456013
10.11 0.458926
10.12 0.461171
10.13 0.462784
10.14 0.463809
10.15 0.464279
10.16 0.464207
10.17 0.463694
10.18 0.46279
10.19 0.461545
10.2 0.460009
10.21 0.45823
10.22 0.456248
10.23 0.45412
10.24 0.451901
10.25 0.449633
10.26 0.447355
10.27 0.445104
10.28 0.442914
10.29 0.440823
10.3 0.438849
10.31 0.437006
10.32 0.435307
10.33 0.433756
10.34 0.432351
10.35 0.431089
10.36 0.429952
10.37 0.428903
10.38 0.427911
10.39 0.426932
10.4 0.425918
10.41 0.424815
10.42 0.423533
10.43 0.422015
10.44 0.420188
10.45 0.417975
10.46 0.415297
10.47 0.412075
10.48 0.408197
10.49 0.403563
10.5 0.398148
10.51 0.391889
10.52 0.384731
10.53 0.37663
10.54 0.367553
10.55 0.357376
10.56 0.346179
10.57 0.333987
10.58 0.320824
10.59 0.306729
10.6 0.291752
10.61 0.275932
10.62 0.259326
10.63 0.242088
10.64 0.224315
10.65 0.206112
10.66 0.187585
10.67 0.168844
10.68 0.15
10.69 0.131175
10.7 0.11247
10.71 0.0939775
10.72 0.0757766
10.73 0.0579369
10.74 0.0405273
10.75 0.0236236
10.76 0.00721182
10.77 -0.00869758
10.78 -0.0241081
10.79 -0.0390363
10.8 -0.0535105
10.81 -0.0675406
10.82 -0.0811994
10.83 -0.0945581
10.84 -0.107676
10.85 -0.120616
10.86 -0.133438
10.87 -0.146201
10.88 -0.158963
10.89 -0.171776
10.9 -0.184675
10.91 -0.197687
10.92 -0.210829
10.93 -0.224104
10.94 -0.237515
10.95 -0.251037
10.96 -0.264633
10.97 -0.278262
10.98 -0.291877
10.99 -0.305421
11 -0.318834
11.01 -0.332022
11.02 -0.344936
11.03 -0.357511
11.04 -0.369681
11.05 -0.381389
11.06 -0.392577
11.07 -0.403162
11.08 -0.413094
11.09 -0.422372
11.1 -0.430971
11.11 -0.438872
11.12 -0.446061
11.13 -0.452534
11.14 -0.458212
11.15 -0.463173
11.16 -0.467433
11.17 -0.471002
11.18 -0.473892
11.19 -0.476117
11.2 -0.477657
11.21 -0.478509
11.22 -0.478724
11.23 -0.478308
11.24 -0.477261
11.25 -0.47558
11.26 -0.473261
11.27 -0.470228
11.28 -0.466524
11.29 -0.462148
11.3 -0.457087
11.31 -0.451328
11.32 -0.444862
11.33 -0.437653
11.34 -0.429662
11.35 -0.420948
11.36 -0.411514
11.37 -0.401369
11.38 -0.39053
11.39 -0.379015
11.4 -0.366798
11.41 -0.353955
11.42 -0.340543
11.43 -0.326608
11.44 -0.312197
11.45 -0.297363
11.46 -0.282155
11.47 -0.266618
11.48 -0.250845
11.49 -0.234897
11.5 -0.218835
11.51 -0.20272
11.52 -0.186612
11.53 -0.170577
11.54 -0.154678
11.55 -0.138964
11.56 -0.123487
11.57 -0.108294
11.58 -0.0934313
11.59 -0.0789468
11.6 -0.0649222
11.61 -0.051354
11.62 -0.0382751
11.63 -0.0257152
11.64 -0.0137009
11.65 -0.00225532
11.66 0.00856219
11.67 0.0187433
11.68 0.0283079
11.69 0.0372499
11.7 0.0455684
11.71 0.0532669
11.72 0.0603528
11.73 0.0667748
11.74 0.0726231
11.75 0.0779229
11.76 0.0827038
11.77 0.0869997
11.78 0.0908481
11.79 0.0942695
11.8 0.0973105
11.81 0.10004
11.82 0.102501
11.83 0.104735
11.84 0.106784
11.85 0.108683
11.86 0.110453
11.87 0.112135
11.88 0.113747
11.89 0.1153
11.9 0.116795
11.91 0.118229
11.92 0.119582
11.93 0.120827
11.94 0.121938
11.95 0.122877
11.96 0.123601
11.97 0.124062
11.98 0.124208
11.99 0.123943
12 0.123235
12.01 0.122037
12.02 0.120297
12.03 0.117966
12.04 0.115
12.05 0.111337
12.06 0.106906
12.07 0.101741
12.08 0.095824
12.09 0.0891481
12.1 0.0817117
12.11 0.0735209
12.12 0.0645266
12.13 0.0547914
12.14 0.0443644
12.15 0.033276
12.16 0.0215605
12.17 0.00925551
12.18 -0.00360978
