# xPDFsuite Configuration #
[PDF]
wavelength = 0.1
dataformat = QA
inputfile = BiMsol6_insitu_700 C-00465.xy
backgroundfile = Quartz2mm-dist500-00000.xy
mode = xray
bgscale = 0.0042
composition = Bi2Fe4O9
outputtype = gr
qmaxinst = 24.998449118
qmin = 0.1
qmax = 21.4986662415
rmax = 80.0
rmin = 0.0
rstep = 0.01
rpoly = 0.9

[Misc]
inputdir = C:/Data/Seafile/CPH/Beamtime/Desy Oct 20/In situ data/Processed/BiMsol6/PDF
savedir = C:/Data/Seafile/CPH/Beamtime/Desy Oct 20/In situ data/PDF/BiMsol6
backgroundfilefull = C:/Data/Seafile/CPH/Beamtime/Desy Oct 20/In situ data/Processed/Standard_Empty_Cap/Quartz2mm-dist500-00000.xy

#### start data
#S 1
#L r($\AA$)  G($\AA^{-2}$)
0 0
0.01 0.00633724
0.02 0.0123156
0.03 0.0176281
0.04 0.021999
0.05 0.0251972
0.06 0.0270465
0.07 0.0273542
0.08 0.0260644
0.09 0.0233193
0.1 0.0192361
0.11 0.0139964
0.12 0.00783804
0.13 0.00104499
0.14 -0.00606356
0.15 -0.0130863
0.16 -0.0196848
0.17 -0.0255413
0.18 -0.0303716
0.19 -0.0339382
0.2 -0.0359972
0.21 -0.0363829
0.22 -0.0351935
0.23 -0.0324957
0.24 -0.0284339
0.25 -0.0232254
0.26 -0.017152
0.27 -0.0105346
0.28 -0.00383356
0.29 0.00254138
0.3 0.00819262
0.31 0.0127426
0.32 0.0158522
0.33 0.0171786
0.34 0.0163867
0.35 0.0135305
0.36 0.00860933
0.37 0.00172608
0.38 -0.00691151
0.39 -0.0169939
0.4 -0.0281618
0.41 -0.0398004
0.42 -0.0513064
0.43 -0.0620669
0.44 -0.0714482
0.45 -0.0788194
0.46 -0.083514
0.47 -0.0846741
0.48 -0.0821155
0.49 -0.0754929
0.5 -0.0645824
0.51 -0.0492958
0.52 -0.0296905
0.53 -0.00570242
0.54 0.0221186
0.55 0.0530503
0.56 0.0864218
0.57 0.12145
0.58 0.15726
0.59 0.192901
0.6 0.227158
0.61 0.259085
0.62 0.287728
0.63 0.312197
0.64 0.331691
0.65 0.345524
0.66 0.352745
0.67 0.352974
0.68 0.346392
0.69 0.333017
0.7 0.313048
0.71 0.28686
0.72 0.254996
0.73 0.217672
0.74 0.176373
0.75 0.132062
0.76 0.0857606
0.77 0.0385259
0.78 -0.00857826
0.79 -0.0544026
0.8 -0.0977962
0.81 -0.137981
0.82 -0.174207
0.83 -0.205862
0.84 -0.232484
0.85 -0.253776
0.86 -0.269044
0.87 -0.27885
0.88 -0.283503
0.89 -0.283385
0.9 -0.279001
0.91 -0.270966
0.92 -0.259887
0.93 -0.246542
0.94 -0.231933
0.95 -0.216834
0.96 -0.201988
0.97 -0.188082
0.98 -0.175725
0.99 -0.165663
1 -0.15819
1.01 -0.153508
1.02 -0.151752
1.03 -0.152936
1.04 -0.156956
1.05 -0.16367
1.06 -0.172868
1.07 -0.183925
1.08 -0.196396
1.09 -0.209803
1.1 -0.223657
1.11 -0.237476
1.12 -0.250732
1.13 -0.262993
1.14 -0.273947
1.15 -0.283334
1.16 -0.290974
1.17 -0.296769
1.18 -0.300675
1.19 -0.302627
1.2 -0.302968
1.21 -0.301914
1.22 -0.299727
1.23 -0.296703
1.24 -0.293157
1.25 -0.289413
1.26 -0.285816
1.27 -0.282643
1.28 -0.280116
1.29 -0.278411
1.3 -0.27764
1.31 -0.277862
1.32 -0.279159
1.33 -0.281331
1.34 -0.284234
1.35 -0.287678
1.36 -0.291435
1.37 -0.295253
1.38 -0.298839
1.39 -0.301893
1.4 -0.304186
1.41 -0.305509
1.42 -0.305693
1.43 -0.304618
1.44 -0.302223
1.45 -0.298366
1.46 -0.29327
1.47 -0.287079
1.48 -0.279988
1.49 -0.272238
1.5 -0.264109
1.51 -0.255917
1.52 -0.248035
1.53 -0.240778
1.54 -0.234444
1.55 -0.229297
1.56 -0.225561
1.57 -0.223402
1.58 -0.2231
1.59 -0.22454
1.6 -0.227641
1.61 -0.232277
1.62 -0.238253
1.63 -0.245316
1.64 -0.253171
1.65 -0.261432
1.66 -0.269655
1.67 -0.277443
1.68 -0.284402
1.69 -0.290158
1.7 -0.294367
1.71 -0.296546
1.72 -0.296554
1.73 -0.294288
1.74 -0.289672
1.75 -0.282705
1.76 -0.273466
1.77 -0.26206
1.78 -0.248629
1.79 -0.233663
1.8 -0.217513
1.81 -0.200565
1.82 -0.183225
1.83 -0.165907
1.84 -0.149079
1.85 -0.133151
1.86 -0.118436
1.87 -0.105214
1.88 -0.0937025
1.89 -0.0840526
1.9 -0.0763704
1.91 -0.0708206
1.92 -0.067115
1.93 -0.0650986
1.94 -0.0645575
1.95 -0.0652293
1.96 -0.066814
1.97 -0.0690037
1.98 -0.0714046
1.99 -0.0736639
2 -0.0754774
2.01 -0.0765757
2.02 -0.0767357
2.03 -0.0757852
2.04 -0.0734818
2.05 -0.0699365
2.06 -0.0652009
2.07 -0.0593941
2.08 -0.0526988
2.09 -0.0453542
2.1 -0.037646
2.11 -0.0299521
2.12 -0.0226436
2.13 -0.0160791
2.14 -0.0106098
2.15 -0.00656656
2.16 -0.00424666
2.17 -0.00414064
2.18 -0.00625129
2.19 -0.0106788
2.2 -0.0174689
2.21 -0.0265951
2.22 -0.0379599
2.23 -0.0514799
2.24 -0.0669312
2.25 -0.0838692
2.26 -0.101953
2.27 -0.120809
2.28 -0.140048
2.29 -0.159273
2.3 -0.178019
2.31 -0.195914
2.32 -0.212642
2.33 -0.227922
2.34 -0.24153
2.35 -0.253298
2.36 -0.263055
2.37 -0.270673
2.38 -0.276357
2.39 -0.280211
2.4 -0.282395
2.41 -0.283114
2.42 -0.282612
2.43 -0.281104
2.44 -0.27897
2.45 -0.276532
2.46 -0.274077
2.47 -0.271874
2.48 -0.270164
2.49 -0.269177
2.5 -0.269154
2.51 -0.270135
2.52 -0.272179
2.53 -0.275298
2.54 -0.279456
2.55 -0.284576
2.56 -0.290594
2.57 -0.297306
2.58 -0.304499
2.59 -0.311982
2.6 -0.319554
2.61 -0.327017
2.62 -0.334176
2.63 -0.340796
2.64 -0.346768
2.65 -0.351974
2.66 -0.35633
2.67 -0.359782
2.68 -0.362308
2.69 -0.36386
2.7 -0.3645
2.71 -0.364343
2.72 -0.363479
2.73 -0.362008
2.74 -0.360042
2.75 -0.357691
2.76 -0.355047
2.77 -0.352248
2.78 -0.349381
2.79 -0.346512
2.8 -0.34369
2.81 -0.340943
2.82 -0.338282
2.83 -0.33569
2.84 -0.333127
2.85 -0.330543
2.86 -0.327878
2.87 -0.325064
2.88 -0.32203
2.89 -0.318671
2.9 -0.314944
2.91 -0.3108
2.92 -0.3062
2.93 -0.301117
2.94 -0.295543
2.95 -0.289462
2.96 -0.282885
2.97 -0.275885
2.98 -0.268508
2.99 -0.260807
3 -0.252836
3.01 -0.244651
3.02 -0.236286
3.03 -0.227795
3.04 -0.219202
3.05 -0.210509
3.06 -0.2017
3.07 -0.192738
3.08 -0.183554
3.09 -0.17404
3.1 -0.164114
3.11 -0.153657
3.12 -0.142543
3.13 -0.130638
3.14 -0.11781
3.15 -0.103829
3.16 -0.0886235
3.17 -0.0721348
3.18 -0.054294
3.19 -0.0350618
3.2 -0.0144319
3.21 0.00759269
3.22 0.0310283
3.23 0.0556272
3.24 0.0812352
3.25 0.107664
3.26 0.134693
3.27 0.162077
3.28 0.189535
3.29 0.216745
3.3 0.243416
3.31 0.269265
3.32 0.294019
3.33 0.317422
3.34 0.339224
3.35 0.359031
3.36 0.376859
3.37 0.392592
3.38 0.406155
3.39 0.417516
3.4 0.426683
3.41 0.433576
3.42 0.438317
3.43 0.441151
3.44 0.442228
3.45 0.441722
3.46 0.43982
3.47 0.436717
3.48 0.432512
3.49 0.427529
3.5 0.421944
3.51 0.415917
3.52 0.409588
3.53 0.403075
3.54 0.396471
3.55 0.389851
3.56 0.38326
3.57 0.376716
3.58 0.370222
3.59 0.363762
3.6 0.357313
3.61 0.35084
3.62 0.34431
3.63 0.337697
3.64 0.330985
3.65 0.324167
3.66 0.317253
3.67 0.310268
3.68 0.303263
3.69 0.296312
3.7 0.289498
3.71 0.282921
3.72 0.27669
3.73 0.270928
3.74 0.265825
3.75 0.261481
3.76 0.258001
3.77 0.255494
3.78 0.254057
3.79 0.253767
3.8 0.254719
3.81 0.25702
3.82 0.260564
3.83 0.265327
3.84 0.27126
3.85 0.278288
3.86 0.286314
3.87 0.295285
3.88 0.305007
3.89 0.315303
3.9 0.32602
3.91 0.337004
3.92 0.348101
3.93 0.359161
3.94 0.370018
3.95 0.380557
3.96 0.390675
3.97 0.400286
3.98 0.409321
3.99 0.417732
4 0.425437
4.01 0.432437
4.02 0.438763
4.03 0.444427
4.04 0.449446
4.05 0.453842
4.06 0.457634
4.07 0.460786
4.08 0.463376
4.09 0.465409
4.1 0.466881
4.11 0.467777
4.12 0.46807
4.13 0.467679
4.14 0.46655
4.15 0.464661
4.16 0.461948
4.17 0.458343
4.18 0.453779
4.19 0.448192
4.2 0.441395
4.21 0.433456
4.22 0.424345
4.23 0.414045
4.24 0.402555
4.25 0.38989
4.26 0.376033
4.27 0.361025
4.28 0.345015
4.29 0.328092
4.3 0.310355
4.31 0.291911
4.32 0.272875
4.33 0.253327
4.34 0.233435
4.35 0.213315
4.36 0.193065
4.37 0.172776
4.38 0.152521
4.39 0.132364
4.4 0.11236
4.41 0.0925214
4.42 0.0728551
4.43 0.0533534
4.44 0.0339965
4.45 0.0147551
4.46 -0.00440349
4.47 -0.0235286
4.48 -0.0426606
4.49 -0.0618334
4.5 -0.0810726
4.51 -0.100393
4.52 -0.119799
4.53 -0.139277
4.54 -0.158785
4.55 -0.17827
4.56 -0.197664
4.57 -0.216884
4.58 -0.235832
4.59 -0.25436
4.6 -0.272353
4.61 -0.289704
4.62 -0.306293
4.63 -0.322006
4.64 -0.336737
4.65 -0.350372
4.66 -0.362728
4.67 -0.373862
4.68 -0.383742
4.69 -0.39236
4.7 -0.399728
4.71 -0.405887
4.72 -0.410822
4.73 -0.414654
4.74 -0.417542
4.75 -0.419604
4.76 -0.420969
4.77 -0.421774
4.78 -0.422156
4.79 -0.422237
4.8 -0.422192
4.81 -0.42214
4.82 -0.422186
4.83 -0.422422
4.84 -0.422919
4.85 -0.42375
4.86 -0.42495
4.87 -0.426508
4.88 -0.42841
4.89 -0.430629
4.9 -0.433119
4.91 -0.435823
4.92 -0.43868
4.93 -0.441594
4.94 -0.444483
4.95 -0.447268
4.96 -0.449872
4.97 -0.452223
4.98 -0.454238
4.99 -0.455844
5 -0.45702
5.01 -0.457732
5.02 -0.457954
5.03 -0.457672
5.04 -0.456878
5.05 -0.455523
5.06 -0.453653
5.07 -0.451288
5.08 -0.448437
5.09 -0.445109
5.1 -0.44131
5.11 -0.437028
5.12 -0.432237
5.13 -0.426968
5.14 -0.421206
5.15 -0.414932
5.16 -0.408122
5.17 -0.400749
5.18 -0.39273
5.19 -0.384069
5.2 -0.374758
5.21 -0.364775
5.22 -0.354106
5.23 -0.342745
5.24 -0.330681
5.25 -0.317885
5.26 -0.304452
5.27 -0.290425
5.28 -0.275858
5.29 -0.260819
5.3 -0.245384
5.31 -0.229622
5.32 -0.213649
5.33 -0.197574
5.34 -0.181496
5.35 -0.165511
5.36 -0.149711
5.37 -0.134186
5.38 -0.119054
5.39 -0.104349
5.4 -0.0901204
5.41 -0.0764068
5.42 -0.0632327
5.43 -0.0506092
5.44 -0.0385711
5.45 -0.0270941
5.46 -0.0161269
5.47 -0.00563936
5.48 0.00440285
5.49 0.0140356
5.5 0.0232929
5.51 0.0321707
5.52 0.0407349
5.53 0.049001
5.54 0.0569749
5.55 0.0646521
5.56 0.0720172
5.57 0.0790235
5.58 0.0856259
5.59 0.0917992
5.6 0.0974911
5.61 0.102646
5.62 0.107207
5.63 0.111119
5.64 0.114253
5.65 0.116632
5.66 0.118237
5.67 0.119051
5.68 0.119075
5.69 0.118328
5.7 0.116813
5.71 0.114573
5.72 0.111734
5.73 0.108383
5.74 0.104621
5.75 0.100559
5.76 0.0963126
5.77 0.0920083
5.78 0.0877837
5.79 0.0837534
5.8 0.0800221
5.81 0.0766824
5.82 0.0738115
5.83 0.0714877
5.84 0.0697825
5.85 0.0686642
5.86 0.0681251
5.87 0.0681373
5.88 0.0686537
5.89 0.0696107
5.9 0.0709536
5.91 0.0725611
5.92 0.0743255
5.93 0.0761478
5.94 0.0779315
5.95 0.0795864
5.96 0.081026
5.97 0.0821573
5.98 0.0829564
5.99 0.0833977
6 0.0834762
6.01 0.0832078
6.02 0.0826296
6.03 0.0817845
6.04 0.080768
6.05 0.079683
6.06 0.0786325
6.07 0.0777262
6.08 0.077076
6.09 0.0767969
6.1 0.0770483
6.11 0.0778775
6.12 0.0793571
6.13 0.0815403
6.14 0.0844585
6.15 0.0881193
6.16 0.0925488
6.17 0.0976861
6.18 0.103419
6.19 0.109652
6.2 0.116268
6.21 0.123135
6.22 0.130108
6.23 0.137007
6.24 0.143666
6.25 0.149927
6.26 0.155642
6.27 0.160672
6.28 0.164892
6.29 0.168146
6.3 0.170329
6.31 0.171447
6.32 0.171473
6.33 0.170405
6.34 0.168265
6.35 0.165101
6.36 0.160889
6.37 0.155818
6.38 0.150007
6.39 0.143573
6.4 0.136641
6.41 0.12934
6.42 0.121793
6.43 0.114136
6.44 0.106498
6.45 0.0989786
6.46 0.0916651
6.47 0.0846279
6.48 0.0779212
6.49 0.0716182
6.5 0.0657114
6.51 0.0601918
6.52 0.0550446
6.53 0.0502428
6.54 0.0457495
6.55 0.0415273
6.56 0.0375325
6.57 0.0336926
6.58 0.0299589
6.59 0.0262867
6.6 0.0226375
6.61 0.0189805
6.62 0.0152908
6.63 0.0115584
6.64 0.00778609
6.65 0.00398556
6.66 0.000177926
6.67 -0.00360727
6.68 -0.0073314
6.69 -0.0109386
6.7 -0.0143888
6.71 -0.0176345
6.72 -0.0206284
6.73 -0.0233258
6.74 -0.0256857
6.75 -0.027643
6.76 -0.0291757
6.77 -0.0302802
6.78 -0.0309435
6.79 -0.0311601
6.8 -0.0309319
6.81 -0.0302634
6.82 -0.0291289
6.83 -0.0275954
6.84 -0.0256863
6.85 -0.0234268
6.86 -0.020843
6.87 -0.0179608
6.88 -0.0147894
6.89 -0.0113556
6.9 -0.00769322
6.91 -0.00381745
6.92 0.000259881
6.93 0.00453038
6.94 0.00898875
6.95 0.0136534
6.96 0.0185033
6.97 0.0235387
6.98 0.0287605
6.99 0.0341691
7 0.0397637
7.01 0.04555
7.02 0.0515242
7.03 0.0576648
7.04 0.0639595
7.05 0.0703926
7.06 0.0769458
7.07 0.0835984
7.08 0.090333
7.09 0.0971166
7.1 0.103924
7.11 0.110731
7.12 0.117516
7.13 0.124259
7.14 0.13094
7.15 0.137539
7.16 0.14405
7.17 0.150467
7.18 0.156785
7.19 0.163002
7.2 0.169117
7.21 0.17512
7.22 0.181018
7.23 0.186809
7.24 0.192487
7.25 0.198042
7.26 0.203456
7.27 0.208701
7.28 0.213729
7.29 0.218514
7.3 0.223008
7.31 0.227152
7.32 0.230884
7.33 0.234132
7.34 0.236768
7.35 0.238727
7.36 0.239948
7.37 0.24035
7.38 0.239854
7.39 0.238389
7.4 0.23587
7.41 0.232144
7.42 0.227276
7.43 0.221237
7.44 0.214016
7.45 0.205614
7.46 0.196052
7.47 0.185288
7.48 0.173411
7.49 0.160542
7.5 0.146766
7.51 0.132177
7.52 0.116882
7.53 0.100989
7.54 0.0845816
7.55 0.0678452
7.56 0.0509014
7.57 0.0338697
7.58 0.0168654
7.59 -2.22046e-06
7.6 -0.0166115
7.61 -0.0328562
7.62 -0.0486705
7.63 -0.0639833
7.64 -0.0787337
7.65 -0.0928708
7.66 -0.106352
7.67 -0.119065
7.68 -0.131054
7.69 -0.142305
7.7 -0.152804
7.71 -0.162541
7.72 -0.171508
7.73 -0.179661
7.74 -0.186979
7.75 -0.193511
7.76 -0.199253
7.77 -0.204202
7.78 -0.208356
7.79 -0.211713
7.8 -0.214196
7.81 -0.215875
7.82 -0.216775
7.83 -0.216908
7.84 -0.216297
7.85 -0.214968
7.86 -0.212932
7.87 -0.210212
7.88 -0.206913
7.89 -0.203095
7.9 -0.198825
7.91 -0.194174
7.92 -0.189219
7.93 -0.184026
7.94 -0.178698
7.95 -0.173322
7.96 -0.167973
7.97 -0.162723
7.98 -0.157636
7.99 -0.152774
8 -0.148206
8.01 -0.143943
8.02 -0.140006
8.03 -0.136404
8.04 -0.133133
8.05 -0.13018
8.06 -0.127542
8.07 -0.125169
8.08 -0.123011
8.09 -0.121024
8.1 -0.119162
8.11 -0.11738
8.12 -0.115635
8.13 -0.113885
8.14 -0.112098
8.15 -0.110253
8.16 -0.108339
8.17 -0.106355
8.18 -0.104308
8.19 -0.102217
8.2 -0.100113
8.21 -0.0980354
8.22 -0.096024
8.23 -0.0941221
8.24 -0.0923727
8.25 -0.0908173
8.26 -0.08952
8.27 -0.0884827
8.28 -0.0877198
8.29 -0.0872328
8.3 -0.087009
8.31 -0.0870206
8.32 -0.0872315
8.33 -0.0875721
8.34 -0.0879542
8.35 -0.0882884
8.36 -0.0884753
8.37 -0.0884079
8.38 -0.0879751
8.39 -0.0870009
8.4 -0.0854154
8.41 -0.0831231
8.42 -0.0800366
8.43 -0.0760833
8.44 -0.0712086
8.45 -0.065335
8.46 -0.0584274
8.47 -0.0505738
8.48 -0.0418177
8.49 -0.0322263
8.5 -0.0218888
8.51 -0.0109151
8.52 0.000603676
8.53 0.0124677
8.54 0.0245144
8.55 0.0365856
8.56 0.0485231
8.57 0.0601732
8.58 0.0713714
8.59 0.0819424
8.6 0.091814
8.61 0.100897
8.62 0.109126
8.63 0.116457
8.64 0.122875
8.65 0.128311
8.66 0.132856
8.67 0.136596
8.68 0.139609
8.69 0.141987
8.7 0.143833
8.71 0.145252
8.72 0.146348
8.73 0.147268
8.74 0.148114
8.75 0.148977
8.76 0.149932
8.77 0.151035
8.78 0.152341
8.79 0.153857
8.8 0.155562
8.81 0.157423
8.82 0.159386
8.83 0.161377
8.84 0.163306
8.85 0.165041
8.86 0.166478
8.87 0.1675
8.88 0.16799
8.89 0.167834
8.9 0.166926
8.91 0.165113
8.92 0.162314
8.93 0.158516
8.94 0.15368
8.95 0.147786
8.96 0.140835
8.97 0.132847
8.98 0.123753
8.99 0.113736
9 0.10287
9.01 0.091243
9.02 0.0789516
9.03 0.0660975
9.04 0.0527661
9.05 0.0390734
9.06 0.025146
9.07 0.0110764
9.08 -0.00305155
9.09 -0.0171639
9.1 -0.0311975
9.11 -0.0450818
9.12 -0.0587864
9.13 -0.0722845
9.14 -0.0855566
9.15 -0.0985903
9.16 -0.111378
9.17 -0.123905
9.18 -0.136159
9.19 -0.148153
9.2 -0.159878
9.21 -0.171318
9.22 -0.182453
9.23 -0.193254
9.24 -0.203644
9.25 -0.2136
9.26 -0.223075
9.27 -0.232011
9.28 -0.240342
9.29 -0.248004
9.3 -0.254903
9.31 -0.260925
9.32 -0.266074
9.33 -0.270299
9.34 -0.273558
9.35 -0.275821
9.36 -0.277069
9.37 -0.277213
9.38 -0.276318
9.39 -0.274445
9.4 -0.271635
9.41 -0.267938
9.42 -0.263418
9.43 -0.258131
9.44 -0.252111
9.45 -0.245508
9.46 -0.238402
9.47 -0.230867
9.48 -0.222972
9.49 -0.214776
9.5 -0.206315
9.51 -0.197637
9.52 -0.188773
9.53 -0.179729
9.54 -0.170498
9.55 -0.161062
9.56 -0.151385
9.57 -0.141395
9.58 -0.131068
9.59 -0.12035
9.6 -0.109188
9.61 -0.0975299
9.62 -0.0853287
9.63 -0.0725083
9.64 -0.0590437
9.65 -0.0449567
9.66 -0.0302524
9.67 -0.0149524
9.68 0.000904766
9.69 0.0172639
9.7 0.0340933
9.71 0.0512473
9.72 0.0686234
9.73 0.0861105
9.74 0.103591
9.75 0.120944
9.76 0.13803
9.77 0.154709
9.78 0.170891
9.79 0.186477
9.8 0.201385
9.81 0.215543
9.82 0.2289
9.83 0.241332
9.84 0.252898
9.85 0.263616
9.86 0.273505
9.87 0.2826
9.88 0.290949
9.89 0.298583
9.9 0.305549
9.91 0.311967
9.92 0.3179
9.93 0.323409
9.94 0.328547
9.95 0.333359
9.96 0.33785
9.97 0.342061
9.98 0.345999
9.99 0.34965
10 0.35299
10.01 0.355978
10.02 0.358551
10.03 0.360615
10.04 0.362141
10.05 0.363063
10.06 0.363316
10.07 0.362839
10.08 0.36158
10.09 0.359427
10.1 0.356391
10.11 0.352492
10.12 0.347742
10.13 0.342169
10.14 0.33582
10.15 0.32875
10.16 0.321004
10.17 0.312751
10.18 0.304105
10.19 0.295189
10.2 0.28613
10.21 0.277059
10.22 0.268121
10.23 0.259452
10.24 0.251158
10.25 0.243334
10.26 0.236064
10.27 0.22941
10.28 0.223422
10.29 0.218194
10.3 0.213647
10.31 0.209757
10.32 0.206482
10.33 0.203757
10.34 0.201508
10.35 0.19966
10.36 0.198095
10.37 0.196687
10.38 0.195324
10.39 0.193898
10.4 0.192306
10.41 0.190449
10.42 0.188192
10.43 0.185492
10.44 0.182291
10.45 0.178544
10.46 0.17422
10.47 0.169304
10.48 0.163765
10.49 0.157604
10.5 0.150884
10.51 0.143637
10.52 0.1359
10.53 0.127714
10.54 0.119122
10.55 0.110133
10.56 0.100821
10.57 0.0912262
10.58 0.0813765
10.59 0.0712936
10.6 0.0609921
10.61 0.0504721
10.62 0.0397257
10.63 0.0287638
10.64 0.017577
10.65 0.00615302
10.66 -0.005521
10.67 -0.0174572
10.68 -0.0296902
10.69 -0.0422074
10.7 -0.0549992
10.71 -0.0680557
10.72 -0.0813593
10.73 -0.0948835
10.74 -0.108597
10.75 -0.122459
10.76 -0.1364
10.77 -0.150361
10.78 -0.164281
10.79 -0.178092
10.8 -0.19173
10.81 -0.205106
10.82 -0.218163
10.83 -0.230856
10.84 -0.243142
10.85 -0.254985
10.86 -0.266363
10.87 -0.277256
10.88 -0.287626
10.89 -0.297538
10.9 -0.307019
10.91 -0.316106
10.92 -0.324846
10.93 -0.333293
10.94 -0.34149
10.95 -0.349511
10.96 -0.357425
10.97 -0.365284
10.98 -0.373135
10.99 -0.381015
11 -0.388951
11.01 -0.396963
11.02 -0.405039
11.03 -0.413159
11.04 -0.421288
11.05 -0.429375
11.06 -0.437357
11.07 -0.445141
11.08 -0.452627
11.09 -0.459729
11.1 -0.466348
11.11 -0.472383
11.12 -0.477735
11.13 -0.482307
11.14 -0.48591
11.15 -0.488552
11.16 -0.490179
11.17 -0.490746
11.18 -0.490225
11.19 -0.488607
11.2 -0.485849
11.21 -0.481956
11.22 -0.47705
11.23 -0.471192
11.24 -0.464452
11.25 -0.456914
11.26 -0.448666
11.27 -0.43975
11.28 -0.430321
11.29 -0.420482
11.3 -0.410316
11.31 -0.399903
11.32 -0.389308
11.33 -0.378583
11.34 -0.367766
11.35 -0.356888
11.36 -0.345956
11.37 -0.334958
11.38 -0.323873
11.39 -0.312664
11.4 -0.301265
11.41 -0.289623
11.42 -0.277682
11.43 -0.265379
11.44 -0.25265
11.45 -0.239437
11.46 -0.225673
11.47 -0.211269
11.48 -0.196247
11.49 -0.180593
11.5 -0.164305
11.51 -0.147398
11.52 -0.129902
11.53 -0.111828
11.54 -0.0932663
11.55 -0.0743161
11.56 -0.0550661
11.57 -0.035614
11.58 -0.0160636
11.59 0.00347545
11.6 0.0228703
11.61 0.0420182
11.62 0.0608181
11.63 0.0791771
11.64 0.0970114
11.65 0.114249
11.66 0.130785
11.67 0.14658
11.68 0.16164
11.69 0.175953
11.7 0.189521
11.71 0.202357
11.72 0.214486
11.73 0.225871
11.74 0.236637
11.75 0.246834
11.76 0.256511
11.77 0.265722
11.78 0.274514
11.79 0.282914
11.8 0.290964
11.81 0.298714
11.82 0.306184
11.83 0.313381
11.84 0.320304
11.85 0.326939
11.86 0.333226
11.87 0.339158
11.88 0.344693
11.89 0.349778
11.9 0.354359
11.91 0.358372
11.92 0.361727
11.93 0.36433
11.94 0.366168
11.95 0.367185
11.96 0.36733
11.97 0.366557
11.98 0.364832
11.99 0.362028
12 0.3582
12.01 0.353362
12.02 0.347513
12.03 0.340665
12.04 0.332833
12.05 0.324013
12.06 0.314191
12.07 0.303485
12.08 0.291934
12.09 0.279581
12.1 0.266469
12.11 0.252642
12.12 0.238089
12.13 0.222896
12.14 0.207124
12.15 0.190813
12.16 0.174001
12.17 0.156725
12.18 0.139014
12.19 0.120882
12.2 0.102408
