# xPDFsuite Configuration #
[PDF]
wavelength = 0.1
dataformat = QA
inputfile = BiMsol6_insitu_700 C-00330.xy
backgroundfile = Quartz2mm-dist500-00000.xy
mode = xray
bgscale = 0.0042
composition = Bi2Fe4O9
outputtype = gr
qmaxinst = 24.998449118
qmin = 0.1
qmax = 21.4986662415
rmax = 80.0
rmin = 0.0
rstep = 0.01
rpoly = 0.9

[Misc]
inputdir = C:/Data/Seafile/CPH/Beamtime/Desy Oct 20/In situ data/Processed/BiMsol6/PDF
savedir = C:/Data/Seafile/CPH/Beamtime/Desy Oct 20/In situ data/PDF/BiMsol6
backgroundfilefull = C:/Data/Seafile/CPH/Beamtime/Desy Oct 20/In situ data/Processed/Standard_Empty_Cap/Quartz2mm-dist500-00000.xy

#### start data
#S 1
#L r($\AA$)  G($\AA^{-2}$)
0 0
0.01 0.00676423
0.02 0.0131505
0.03 0.0188352
0.04 0.0235279
0.05 0.0269842
0.06 0.0290175
0.07 0.0294231
0.08 0.0281398
0.09 0.0253154
0.1 0.0210708
0.11 0.0155947
0.12 0.00913521
0.13 0.00198916
0.14 -0.00551122
0.15 -0.0129425
0.16 -0.0199479
0.17 -0.026192
0.18 -0.0313731
0.19 -0.0352382
0.2 -0.0375263
0.21 -0.0380568
0.22 -0.036926
0.23 -0.0341973
0.24 -0.0300154
0.25 -0.0246019
0.26 -0.0182464
0.27 -0.0112767
0.28 -0.00417477
0.29 0.00263039
0.3 0.0087216
0.31 0.0137007
0.32 0.0172078
0.33 0.0188779
0.34 0.0183512
0.35 0.0156711
0.36 0.010825
0.37 0.00390772
0.38 -0.00487663
0.39 -0.0152173
0.4 -0.0267568
0.41 -0.0388615
0.42 -0.0509076
0.43 -0.0622607
0.44 -0.0722621
0.45 -0.0802533
0.46 -0.0855368
0.47 -0.087215
0.48 -0.085077
0.49 -0.0787487
0.5 -0.0679802
0.51 -0.0526609
0.52 -0.0328304
0.53 -0.00839711
0.54 0.0200891
0.55 0.0518945
0.56 0.0863389
0.57 0.122623
0.58 0.159849
0.59 0.197038
0.6 0.232947
0.61 0.266575
0.62 0.296928
0.63 0.323071
0.64 0.344157
0.65 0.359459
0.66 0.367971
0.67 0.369272
0.68 0.363525
0.69 0.350722
0.7 0.331044
0.71 0.304859
0.72 0.27271
0.73 0.234789
0.74 0.192632
0.75 0.147228
0.76 0.0996292
0.77 0.0509322
0.78 0.00224211
0.79 -0.0452484
0.8 -0.0903354
0.81 -0.13219
0.82 -0.170018
0.83 -0.203167
0.84 -0.231139
0.85 -0.253607
0.86 -0.269833
0.87 -0.28038
0.88 -0.285558
0.89 -0.285749
0.9 -0.281472
0.91 -0.273359
0.92 -0.262039
0.93 -0.248321
0.94 -0.233254
0.95 -0.217654
0.96 -0.202301
0.97 -0.187922
0.98 -0.175163
0.99 -0.164815
1 -0.157196
1.01 -0.152526
1.02 -0.150953
1.03 -0.152496
1.04 -0.157049
1.05 -0.164464
1.06 -0.174518
1.07 -0.186547
1.08 -0.200075
1.09 -0.214586
1.1 -0.229554
1.11 -0.244459
1.12 -0.258724
1.13 -0.271881
1.14 -0.283588
1.15 -0.29356
1.16 -0.301595
1.17 -0.307586
1.18 -0.311481
1.19 -0.313204
1.2 -0.313134
1.21 -0.31151
1.22 -0.308624
1.23 -0.304808
1.24 -0.300415
1.25 -0.295816
1.26 -0.291407
1.27 -0.287506
1.28 -0.284376
1.29 -0.282226
1.3 -0.281198
1.31 -0.281374
1.32 -0.28287
1.33 -0.285463
1.34 -0.289
1.35 -0.293272
1.36 -0.298023
1.37 -0.302965
1.38 -0.307765
1.39 -0.312067
1.4 -0.315588
1.41 -0.318063
1.42 -0.319275
1.43 -0.319059
1.44 -0.317311
1.45 -0.313827
1.46 -0.30883
1.47 -0.302459
1.48 -0.294909
1.49 -0.286434
1.5 -0.277341
1.51 -0.267977
1.52 -0.258767
1.53 -0.2501
1.54 -0.242337
1.55 -0.235813
1.56 -0.230822
1.57 -0.227601
1.58 -0.226529
1.59 -0.227532
1.6 -0.230573
1.61 -0.235561
1.62 -0.242327
1.63 -0.250622
1.64 -0.260159
1.65 -0.270541
1.66 -0.281245
1.67 -0.291816
1.68 -0.30179
1.69 -0.310712
1.7 -0.31815
1.71 -0.323514
1.72 -0.326558
1.73 -0.32709
1.74 -0.324945
1.75 -0.320045
1.76 -0.312405
1.77 -0.302066
1.78 -0.289096
1.79 -0.274026
1.8 -0.257217
1.81 -0.239086
1.82 -0.220089
1.83 -0.200707
1.84 -0.181475
1.85 -0.16293
1.86 -0.145506
1.87 -0.129599
1.88 -0.115548
1.89 -0.103618
1.9 -0.0940339
1.91 -0.0871137
1.92 -0.0826123
1.93 -0.0804401
1.94 -0.0804287
1.95 -0.082339
1.96 -0.0858711
1.97 -0.0907368
1.98 -0.0964722
1.99 -0.102616
2 -0.108768
2.01 -0.114549
2.02 -0.11961
2.03 -0.123643
2.04 -0.126242
2.05 -0.12737
2.06 -0.12694
2.07 -0.124944
2.08 -0.121449
2.09 -0.116593
2.1 -0.110535
2.11 -0.103585
2.12 -0.0961356
2.13 -0.0885416
2.14 -0.0811762
2.15 -0.0744156
2.16 -0.0686249
2.17 -0.0643209
2.18 -0.0616924
2.19 -0.060966
2.2 -0.0623172
2.21 -0.0658539
2.22 -0.0716131
2.23 -0.0796532
2.24 -0.0898956
2.25 -0.101993
2.26 -0.115697
2.27 -0.130707
2.28 -0.146689
2.29 -0.163279
2.3 -0.180086
2.31 -0.196674
2.32 -0.212684
2.33 -0.227783
2.34 -0.241683
2.35 -0.25414
2.36 -0.264904
2.37 -0.273754
2.38 -0.28078
2.39 -0.285996
2.4 -0.289479
2.41 -0.29136
2.42 -0.291819
2.43 -0.290997
2.44 -0.289253
2.45 -0.286901
2.46 -0.284228
2.47 -0.281518
2.48 -0.279044
2.49 -0.27707
2.5 -0.275889
2.51 -0.275619
2.52 -0.276385
2.53 -0.278267
2.54 -0.281293
2.55 -0.285447
2.56 -0.290741
2.57 -0.297014
2.58 -0.304077
2.59 -0.311757
2.6 -0.319862
2.61 -0.32819
2.62 -0.33653
2.63 -0.344639
2.64 -0.352332
2.65 -0.359441
2.66 -0.365819
2.67 -0.371351
2.68 -0.375949
2.69 -0.379487
2.7 -0.381952
2.71 -0.383405
2.72 -0.383877
2.73 -0.38342
2.74 -0.382101
2.75 -0.379998
2.76 -0.377122
2.77 -0.373642
2.78 -0.369633
2.79 -0.365156
2.8 -0.360259
2.81 -0.354974
2.82 -0.34929
2.83 -0.343195
2.84 -0.33668
2.85 -0.329701
2.86 -0.322196
2.87 -0.314098
2.88 -0.305333
2.89 -0.295738
2.9 -0.285309
2.91 -0.273995
2.92 -0.261753
2.93 -0.248556
2.94 -0.234401
2.95 -0.219266
2.96 -0.203177
2.97 -0.186278
2.98 -0.168666
2.99 -0.15046
3 -0.131797
3.01 -0.112828
3.02 -0.0937139
3.03 -0.0746498
3.04 -0.0558008
3.05 -0.0373216
3.06 -0.0193542
3.07 -0.00202339
3.08 0.0145412
3.09 0.0302101
3.1 0.0450039
3.11 0.058907
3.12 0.0719324
3.13 0.0841205
3.14 0.0955373
3.15 0.106222
3.16 0.116335
3.17 0.126023
3.18 0.135417
3.19 0.144654
3.2 0.153867
3.21 0.163187
3.22 0.172757
3.23 0.182659
3.24 0.192964
3.25 0.203723
3.26 0.214961
3.27 0.226678
3.28 0.238881
3.29 0.251498
3.3 0.264436
3.31 0.277603
3.32 0.290896
3.33 0.304198
3.34 0.317388
3.35 0.330307
3.36 0.342852
3.37 0.354915
3.38 0.366398
3.39 0.377219
3.4 0.387311
3.41 0.396578
3.42 0.404995
3.43 0.412601
3.44 0.41941
3.45 0.425453
3.46 0.430776
3.47 0.435435
3.48 0.439437
3.49 0.442933
3.5 0.445998
3.51 0.448711
3.52 0.451143
3.53 0.453362
3.54 0.455423
3.55 0.457381
3.56 0.459282
3.57 0.461152
3.58 0.463008
3.59 0.464855
3.6 0.46669
3.61 0.4685
3.62 0.470268
3.63 0.471973
3.64 0.473594
3.65 0.475109
3.66 0.476498
3.67 0.477738
3.68 0.47881
3.69 0.47972
3.7 0.480467
3.71 0.481056
3.72 0.481495
3.73 0.481795
3.74 0.481962
3.75 0.48202
3.76 0.481983
3.77 0.481862
3.78 0.481661
3.79 0.481376
3.8 0.480995
3.81 0.480489
3.82 0.479833
3.83 0.478987
3.84 0.477901
3.85 0.476516
3.86 0.474766
3.87 0.472537
3.88 0.469763
3.89 0.466381
3.9 0.462315
3.91 0.457492
3.92 0.451842
3.93 0.445288
3.94 0.4377
3.95 0.429128
3.96 0.419551
3.97 0.408958
3.98 0.397353
3.99 0.384753
4 0.371123
4.01 0.356538
4.02 0.341099
4.03 0.324869
4.04 0.307921
4.05 0.290331
4.06 0.272175
4.07 0.253492
4.08 0.234423
4.09 0.215042
4.1 0.195422
4.11 0.17563
4.12 0.155729
4.13 0.135773
4.14 0.115822
4.15 0.0959217
4.16 0.0761142
4.17 0.0564371
4.18 0.0369268
4.19 0.0176192
4.2 -0.00141773
4.21 -0.0201674
4.22 -0.0385888
4.23 -0.0566364
4.24 -0.0742608
4.25 -0.0914091
4.26 -0.107996
4.27 -0.123942
4.28 -0.139224
4.29 -0.153782
4.3 -0.167559
4.31 -0.180502
4.32 -0.192561
4.33 -0.203601
4.34 -0.213671
4.35 -0.22277
4.36 -0.230895
4.37 -0.238058
4.38 -0.244285
4.39 -0.249585
4.4 -0.253987
4.41 -0.257631
4.42 -0.260598
4.43 -0.262978
4.44 -0.264867
4.45 -0.266365
4.46 -0.267555
4.47 -0.268566
4.48 -0.269496
4.49 -0.270428
4.5 -0.271434
4.51 -0.272573
4.52 -0.273895
4.53 -0.275442
4.54 -0.277207
4.55 -0.279179
4.56 -0.281335
4.57 -0.283637
4.58 -0.286035
4.59 -0.288466
4.6 -0.290852
4.61 -0.29312
4.62 -0.295199
4.63 -0.29702
4.64 -0.29852
4.65 -0.299639
4.66 -0.300295
4.67 -0.300501
4.68 -0.300246
4.69 -0.299536
4.7 -0.298392
4.71 -0.296849
4.72 -0.29494
4.73 -0.292746
4.74 -0.29036
4.75 -0.287867
4.76 -0.285355
4.77 -0.282914
4.78 -0.280634
4.79 -0.278636
4.8 -0.276976
4.81 -0.275717
4.82 -0.274912
4.83 -0.2746
4.84 -0.274805
4.85 -0.275567
4.86 -0.276876
4.87 -0.278677
4.88 -0.280933
4.89 -0.283594
4.9 -0.286605
4.91 -0.289901
4.92 -0.293427
4.93 -0.297085
4.94 -0.300804
4.95 -0.304516
4.96 -0.30816
4.97 -0.311681
4.98 -0.315024
4.99 -0.318139
5 -0.321012
5.01 -0.323625
5.02 -0.325965
5.03 -0.328026
5.04 -0.329809
5.05 -0.331288
5.06 -0.332489
5.07 -0.333419
5.08 -0.334076
5.09 -0.334453
5.1 -0.334538
5.11 -0.334295
5.12 -0.333675
5.13 -0.332662
5.14 -0.331207
5.15 -0.329252
5.16 -0.326733
5.17 -0.323581
5.18 -0.319654
5.19 -0.31491
5.2 -0.3093
5.21 -0.302755
5.22 -0.295215
5.23 -0.286627
5.24 -0.276924
5.25 -0.266
5.26 -0.253944
5.27 -0.240763
5.28 -0.226477
5.29 -0.21112
5.3 -0.194742
5.31 -0.177339
5.32 -0.159034
5.33 -0.139951
5.34 -0.120185
5.35 -0.0998368
5.36 -0.079008
5.37 -0.0577982
5.38 -0.0362966
5.39 -0.014637
5.4 0.00708903
5.41 0.0287962
5.42 0.0504062
5.43 0.0718479
5.44 0.0930374
5.45 0.113913
5.46 0.134434
5.47 0.154553
5.48 0.174222
5.49 0.193396
5.5 0.212023
5.51 0.229979
5.52 0.247269
5.53 0.263827
5.54 0.279581
5.55 0.294453
5.56 0.308355
5.57 0.32113
5.58 0.332657
5.59 0.3429
5.6 0.351755
5.61 0.359122
5.62 0.364906
5.63 0.369017
5.64 0.371183
5.65 0.371512
5.66 0.369979
5.67 0.366562
5.68 0.361264
5.69 0.35411
5.7 0.345072
5.71 0.334187
5.72 0.321692
5.73 0.307709
5.74 0.292385
5.75 0.275882
5.76 0.258373
5.77 0.239984
5.78 0.22099
5.79 0.201599
5.8 0.182
5.81 0.162372
5.82 0.142882
5.83 0.1237
5.84 0.104998
5.85 0.0868588
5.86 0.0693699
5.87 0.0525971
5.88 0.0365845
5.89 0.0213551
5.9 0.00697959
5.91 -0.00660185
5.92 -0.0194429
5.93 -0.0315819
5.94 -0.0430627
5.95 -0.0539311
5.96 -0.064219
5.97 -0.0739299
5.98 -0.0831435
5.99 -0.0918745
6 -0.100123
6.01 -0.107876
6.02 -0.115101
6.03 -0.121707
6.04 -0.127643
6.05 -0.132857
6.06 -0.137266
6.07 -0.140779
6.08 -0.143306
6.09 -0.144742
6.1 -0.144884
6.11 -0.143775
6.12 -0.14136
6.13 -0.1376
6.14 -0.132478
6.15 -0.125998
6.16 -0.118112
6.17 -0.108902
6.18 -0.0985279
6.19 -0.0871015
6.2 -0.0747582
6.21 -0.0616522
6.22 -0.0479538
6.23 -0.0338191
6.24 -0.0195036
6.25 -0.0051988
6.26 0.00890763
6.27 0.0226368
6.28 0.0358232
6.29 0.0482754
6.3 0.0598418
6.31 0.0704736
6.32 0.0801036
6.33 0.0886933
6.34 0.0962331
6.35 0.102742
6.36 0.108172
6.37 0.112698
6.38 0.116434
6.39 0.119497
6.4 0.12202
6.41 0.124146
6.42 0.12602
6.43 0.127807
6.44 0.129668
6.45 0.131737
6.46 0.134136
6.47 0.136972
6.48 0.140334
6.49 0.14435
6.5 0.149028
6.51 0.154375
6.52 0.160391
6.53 0.167057
6.54 0.174338
6.55 0.182195
6.56 0.190582
6.57 0.199376
6.58 0.208495
6.59 0.217853
6.6 0.227368
6.61 0.236959
6.62 0.246544
6.63 0.25605
6.64 0.265421
6.65 0.274612
6.66 0.283588
6.67 0.292327
6.68 0.300808
6.69 0.309008
6.7 0.316955
6.71 0.324656
6.72 0.332123
6.73 0.339367
6.74 0.346397
6.75 0.353202
6.76 0.359786
6.77 0.366147
6.78 0.372262
6.79 0.3781
6.8 0.383618
6.81 0.388758
6.82 0.393402
6.83 0.397515
6.84 0.401013
6.85 0.403805
6.86 0.405797
6.87 0.406891
6.88 0.406926
6.89 0.405801
6.9 0.403488
6.91 0.399911
6.92 0.395005
6.93 0.388718
6.94 0.381011
6.95 0.371694
6.96 0.360925
6.97 0.348721
6.98 0.335112
6.99 0.320143
7 0.303873
7.01 0.286318
7.02 0.267559
7.03 0.247772
7.04 0.227064
7.05 0.205544
7.06 0.183325
7.07 0.160523
7.08 0.137217
7.09 0.113572
7.1 0.0897054
7.11 0.0657199
7.12 0.0417147
7.13 0.0177823
7.14 -0.00598188
7.15 -0.0294788
7.16 -0.0526511
7.17 -0.0754336
7.18 -0.0977669
7.19 -0.119597
7.2 -0.140873
7.21 -0.16149
7.22 -0.181441
7.23 -0.200699
7.24 -0.219227
7.25 -0.236988
7.26 -0.253947
7.27 -0.270046
7.28 -0.285195
7.29 -0.29944
7.3 -0.312754
7.31 -0.325112
7.32 -0.336495
7.33 -0.346886
7.34 -0.356194
7.35 -0.36446
7.36 -0.371725
7.37 -0.377999
7.38 -0.383302
7.39 -0.387662
7.4 -0.391098
7.41 -0.393588
7.42 -0.395274
7.43 -0.396214
7.44 -0.396471
7.45 -0.396115
7.46 -0.395217
7.47 -0.393822
7.48 -0.392024
7.49 -0.389918
7.5 -0.387569
7.51 -0.385042
7.52 -0.382394
7.53 -0.379671
7.54 -0.376916
7.55 -0.374162
7.56 -0.371426
7.57 -0.368713
7.58 -0.366018
7.59 -0.363325
7.6 -0.360603
7.61 -0.357811
7.62 -0.354905
7.63 -0.351831
7.64 -0.348533
7.65 -0.344953
7.66 -0.34103
7.67 -0.336654
7.68 -0.331809
7.69 -0.326448
7.7 -0.320532
7.71 -0.31403
7.72 -0.306923
7.73 -0.299175
7.74 -0.290783
7.75 -0.281813
7.76 -0.272304
7.77 -0.262306
7.78 -0.251885
7.79 -0.241118
7.8 -0.230074
7.81 -0.218884
7.82 -0.207656
7.83 -0.196498
7.84 -0.185519
7.85 -0.174827
7.86 -0.164547
7.87 -0.15481
7.88 -0.145671
7.89 -0.137207
7.9 -0.129481
7.91 -0.122543
7.92 -0.116427
7.93 -0.111226
7.94 -0.106889
7.95 -0.103374
7.96 -0.100647
7.97 -0.0986641
7.98 -0.0973657
7.99 -0.0966977
8 -0.0966095
8.01 -0.096964
8.02 -0.0976779
8.03 -0.0986687
8.04 -0.0998572
8.05 -0.101171
8.06 -0.102544
8.07 -0.103915
8.08 -0.105241
8.09 -0.106496
8.1 -0.107666
8.11 -0.108751
8.12 -0.109764
8.13 -0.11073
8.14 -0.111693
8.15 -0.112699
8.16 -0.113799
8.17 -0.115049
8.18 -0.116501
8.19 -0.118229
8.2 -0.12028
8.21 -0.122676
8.22 -0.125439
8.23 -0.128581
8.24 -0.132096
8.25 -0.135962
8.26 -0.140169
8.27 -0.144615
8.28 -0.149221
8.29 -0.153895
8.3 -0.158528
8.31 -0.163001
8.32 -0.167162
8.33 -0.170854
8.34 -0.173958
8.35 -0.176339
8.36 -0.177869
8.37 -0.178427
8.38 -0.177903
8.39 -0.176066
8.4 -0.172955
8.41 -0.168528
8.42 -0.162752
8.43 -0.15562
8.44 -0.147141
8.45 -0.137294
8.46 -0.126106
8.47 -0.113748
8.48 -0.100309
8.49 -0.0858902
8.5 -0.0706035
8.51 -0.054565
8.52 -0.0378429
8.53 -0.0206177
8.54 -0.0030124
8.55 0.0148694
8.56 0.0329346
8.57 0.0511022
8.58 0.0693046
8.59 0.087483
8.6 0.105602
8.61 0.123642
8.62 0.141596
8.63 0.159469
8.64 0.177276
8.65 0.195036
8.66 0.21278
8.67 0.230534
8.68 0.248323
8.69 0.266163
8.7 0.284064
8.71 0.302024
8.72 0.320029
8.73 0.338041
8.74 0.35601
8.75 0.373872
8.76 0.391549
8.77 0.408946
8.78 0.425917
8.79 0.44234
8.8 0.458102
8.81 0.473069
8.82 0.487105
8.83 0.500075
8.84 0.511832
8.85 0.522114
8.86 0.53094
8.87 0.538211
8.88 0.543847
8.89 0.54778
8.9 0.549965
8.91 0.550254
8.92 0.548663
8.93 0.545296
8.94 0.540181
8.95 0.533362
8.96 0.524895
8.97 0.514846
8.98 0.503129
8.99 0.490009
9 0.475573
9.01 0.45991
9.02 0.443106
9.03 0.425246
9.04 0.406365
9.05 0.386541
9.06 0.365906
9.07 0.344524
9.08 0.322457
9.09 0.29976
9.1 0.27649
9.11 0.25265
9.12 0.228349
9.13 0.203651
9.14 0.178617
9.15 0.153314
9.16 0.127817
9.17 0.102207
9.18 0.0765915
9.19 0.0510802
9.2 0.025786
9.21 0.000829743
9.22 -0.0236602
9.23 -0.04755
9.24 -0.0706174
9.25 -0.0927618
9.26 -0.113861
9.27 -0.133782
9.28 -0.152396
9.29 -0.169586
9.3 -0.185194
9.31 -0.19903
9.32 -0.211153
9.33 -0.221511
9.34 -0.230067
9.35 -0.236804
9.36 -0.241724
9.37 -0.244698
9.38 -0.245867
9.39 -0.245344
9.4 -0.243201
9.41 -0.239518
9.42 -0.234387
9.43 -0.227877
9.44 -0.220007
9.45 -0.211005
9.46 -0.20097
9.47 -0.189997
9.48 -0.178174
9.49 -0.165586
9.5 -0.15226
9.51 -0.138292
9.52 -0.12377
9.53 -0.108743
9.54 -0.0932568
9.55 -0.0773499
9.56 -0.0610561
9.57 -0.0443816
9.58 -0.0274034
9.59 -0.0101619
9.6 0.00729824
9.61 0.0249255
9.62 0.0426607
9.63 0.060434
9.64 0.0781549
9.65 0.0957336
9.66 0.113073
9.67 0.130069
9.68 0.146611
9.69 0.162585
9.7 0.177779
9.71 0.192147
9.72 0.205575
9.73 0.217957
9.74 0.229196
9.75 0.239207
9.76 0.247845
9.77 0.25503
9.78 0.260813
9.79 0.265178
9.8 0.268127
9.81 0.269683
9.82 0.269886
9.83 0.268665
9.84 0.266225
9.85 0.262672
9.86 0.258107
9.87 0.252639
9.88 0.246384
9.89 0.239435
9.9 0.231905
9.91 0.223953
9.92 0.215684
9.93 0.207193
9.94 0.198562
9.95 0.189863
9.96 0.181157
9.97 0.172491
9.98 0.16389
9.99 0.155367
10 0.146924
10.01 0.13855
10.02 0.130227
10.03 0.121927
10.04 0.113612
10.05 0.10525
10.06 0.0968076
10.07 0.0882538
10.08 0.079562
10.09 0.0706978
10.1 0.0616554
10.11 0.0524383
10.12 0.043054
10.13 0.033519
10.14 0.0238594
10.15 0.0141088
10.16 0.00431212
10.17 -0.005472
10.18 -0.0151884
10.19 -0.0247791
10.2 -0.0341846
10.21 -0.043346
10.22 -0.0521814
10.23 -0.060639
10.24 -0.0686872
10.25 -0.0762874
10.26 -0.0834088
10.27 -0.0900294
10.28 -0.0961326
10.29 -0.101662
10.3 -0.106681
10.31 -0.111207
10.32 -0.115264
10.33 -0.118882
10.34 -0.122098
10.35 -0.124935
10.36 -0.127445
10.37 -0.129696
10.38 -0.131736
10.39 -0.133613
10.4 -0.135374
10.41 -0.137063
10.42 -0.13872
10.43 -0.140391
10.44 -0.142107
10.45 -0.143898
10.46 -0.145786
10.47 -0.147791
10.48 -0.149935
10.49 -0.152235
10.5 -0.154686
10.51 -0.157292
10.52 -0.160054
10.53 -0.162969
10.54 -0.166031
10.55 -0.169246
10.56 -0.172591
10.57 -0.176051
10.58 -0.179612
10.59 -0.183258
10.6 -0.18697
10.61 -0.190729
10.62 -0.194511
10.63 -0.198289
10.64 -0.202038
10.65 -0.20573
10.66 -0.20934
10.67 -0.212839
10.68 -0.216185
10.69 -0.219358
10.7 -0.222337
10.71 -0.225099
10.72 -0.227626
10.73 -0.229903
10.74 -0.231911
10.75 -0.233629
10.76 -0.235081
10.77 -0.236275
10.78 -0.237225
10.79 -0.237951
10.8 -0.238478
10.81 -0.238827
10.82 -0.239046
10.83 -0.239181
10.84 -0.239277
10.85 -0.239377
10.86 -0.239524
10.87 -0.239764
10.88 -0.240152
10.89 -0.24071
10.9 -0.241468
10.91 -0.242444
10.92 -0.24365
10.93 -0.245091
10.94 -0.246771
10.95 -0.248668
10.96 -0.250739
10.97 -0.252946
10.98 -0.255244
10.99 -0.257575
11 -0.25988
11.01 -0.262073
11.02 -0.26409
11.03 -0.265861
11.04 -0.267315
11.05 -0.268387
11.06 -0.269013
11.07 -0.269108
11.08 -0.268616
11.09 -0.26753
11.1 -0.265826
11.11 -0.263487
11.12 -0.260509
11.13 -0.256901
11.14 -0.252614
11.15 -0.247745
11.16 -0.242338
11.17 -0.236438
11.18 -0.230099
11.19 -0.223378
11.2 -0.216324
11.21 -0.209
11.22 -0.201489
11.23 -0.19385
11.24 -0.186135
11.25 -0.178394
11.26 -0.17067
11.27 -0.163006
11.28 -0.155427
11.29 -0.147951
11.3 -0.140588
11.31 -0.133342
11.32 -0.12621
11.33 -0.119183
11.34 -0.11225
11.35 -0.105381
11.36 -0.0985545
11.37 -0.0917446
11.38 -0.0849262
11.39 -0.0780744
11.4 -0.0711579
11.41 -0.0641559
11.42 -0.0570514
11.43 -0.0498285
11.44 -0.0424747
11.45 -0.0349809
11.46 -0.0273375
11.47 -0.019531
11.48 -0.0115752
11.49 -0.00347233
11.5 0.00477413
11.51 0.0131597
11.52 0.0216797
11.53 0.0303389
11.54 0.0391282
11.55 0.0480395
11.56 0.057071
11.57 0.0662225
11.58 0.0754947
11.59 0.0848912
11.6 0.0944264
11.61 0.104091
11.62 0.113887
11.63 0.123817
11.64 0.133882
11.65 0.144081
11.66 0.154418
11.67 0.164883
11.68 0.175459
11.69 0.186131
11.7 0.196879
11.71 0.207681
11.72 0.21851
11.73 0.229329
11.74 0.240101
11.75 0.250786
11.76 0.261343
11.77 0.271727
11.78 0.281893
11.79 0.291776
11.8 0.301321
11.81 0.310497
11.82 0.319259
11.83 0.327562
11.84 0.335363
11.85 0.342622
11.86 0.349234
11.87 0.355216
11.88 0.360542
11.89 0.365181
11.9 0.369105
11.91 0.37229
11.92 0.374678
11.93 0.376222
11.94 0.37696
11.95 0.376877
11.96 0.375957
11.97 0.374189
11.98 0.371564
11.99 0.367991
12 0.363531
12.01 0.358203
12.02 0.352012
12.03 0.344964
12.04 0.337074
12.05 0.328334
12.06 0.318732
12.07 0.308367
12.08 0.29728
12.09 0.285515
12.1 0.273124
12.11 0.260166
12.12 0.246668
12.13 0.23274
12.14 0.218473
12.15 0.20395
12.16 0.189257
12.17 0.174483
12.18 0.159719
12.19 0.145074
12.2 0.130637
12.21 0.116494
12.22 0.102728
12.23 0.0894189
12.24 0.0766403
