# xPDFsuite Configuration #
[PDF]
wavelength = 0.1
dataformat = QA
inputfile = BiMsol6_insitu_700 C-00653.xy
backgroundfile = Quartz2mm-dist500-00000.xy
mode = xray
bgscale = 0.0042
composition = Bi2Fe4O9
outputtype = gr
qmaxinst = 24.998449118
qmin = 0.1
qmax = 21.4986662415
rmax = 80.0
rmin = 0.0
rstep = 0.01
rpoly = 0.9

[Misc]
inputdir = C:/Data/Seafile/CPH/Beamtime/Desy Oct 20/In situ data/Processed/BiMsol6/PDF
savedir = C:/Data/Seafile/CPH/Beamtime/Desy Oct 20/In situ data/PDF/BiMsol6
backgroundfilefull = C:/Data/Seafile/CPH/Beamtime/Desy Oct 20/In situ data/Processed/Standard_Empty_Cap/Quartz2mm-dist500-00000.xy

#### start data
#S 1
#L r($\AA$)  G($\AA^{-2}$)
0 0
0.01 0.0061048
0.02 0.0118626
0.03 0.0169765
0.04 0.0211801
0.05 0.0242499
0.06 0.0260156
0.07 0.026291
0.08 0.0250223
0.09 0.0223474
0.1 0.0183797
0.11 0.0132951
0.12 0.00732413
0.13 0.000741546
0.14 -0.00614335
0.15 -0.0129425
0.16 -0.0193283
0.17 -0.0249937
0.18 -0.0296637
0.19 -0.0331088
0.2 -0.0350938
0.21 -0.0354588
0.22 -0.0342999
0.23 -0.0316828
0.24 -0.0277484
0.25 -0.0227082
0.26 -0.0168365
0.27 -0.0104461
0.28 -0.00398355
0.29 0.00215332
0.3 0.00757861
0.31 0.011926
0.32 0.0148668
0.33 0.0160688
0.34 0.0152078
0.35 0.0123385
0.36 0.00746237
0.37 0.000681989
0.38 -0.00779782
0.39 -0.0176729
0.4 -0.028589
0.41 -0.0399446
0.42 -0.0511495
0.43 -0.0616035
0.44 -0.0706861
0.45 -0.0777801
0.46 -0.0822327
0.47 -0.0832029
0.48 -0.0805134
0.49 -0.0738269
0.5 -0.0629259
0.51 -0.0477261
0.52 -0.0282863
0.53 -0.00454674
0.54 0.0229489
0.55 0.0534879
0.56 0.086407
0.57 0.120932
0.58 0.156199
0.59 0.191266
0.6 0.224931
0.61 0.256259
0.62 0.284308
0.63 0.308195
0.64 0.327128
0.65 0.340428
0.66 0.347149
0.67 0.346916
0.68 0.339911
0.69 0.326153
0.7 0.305839
0.71 0.279346
0.72 0.247215
0.73 0.209668
0.74 0.168184
0.75 0.123728
0.76 0.077322
0.77 0.0300274
0.78 -0.0170889
0.79 -0.0628699
0.8 -0.106157
0.81 -0.146171
0.82 -0.182154
0.83 -0.213489
0.84 -0.239711
0.85 -0.260517
0.86 -0.275204
0.87 -0.284342
0.88 -0.288246
0.89 -0.287305
0.9 -0.282035
0.91 -0.273062
0.92 -0.261012
0.93 -0.246682
0.94 -0.2311
0.95 -0.215063
0.96 -0.199339
0.97 -0.18464
0.98 -0.171599
0.99 -0.160998
1 -0.153142
1.01 -0.148246
1.02 -0.146456
1.03 -0.147789
1.04 -0.152141
1.05 -0.15937
1.06 -0.169257
1.07 -0.181143
1.08 -0.194555
1.09 -0.208985
1.1 -0.223906
1.11 -0.238799
1.12 -0.253089
1.13 -0.266299
1.14 -0.278077
1.15 -0.288125
1.16 -0.29623
1.17 -0.302266
1.18 -0.306161
1.19 -0.307813
1.2 -0.307584
1.21 -0.305694
1.22 -0.30242
1.23 -0.298077
1.24 -0.293009
1.25 -0.287566
1.26 -0.282149
1.27 -0.277087
1.28 -0.272656
1.29 -0.269078
1.3 -0.266521
1.31 -0.26509
1.32 -0.264936
1.33 -0.26588
1.34 -0.267807
1.35 -0.270546
1.36 -0.273881
1.37 -0.277563
1.38 -0.281306
1.39 -0.284786
1.4 -0.28773
1.41 -0.289892
1.42 -0.291059
1.43 -0.291065
1.44 -0.289796
1.45 -0.287052
1.46 -0.282999
1.47 -0.277734
1.48 -0.271408
1.49 -0.264226
1.5 -0.256437
1.51 -0.248327
1.52 -0.24025
1.53 -0.232542
1.54 -0.225512
1.55 -0.219447
1.56 -0.214599
1.57 -0.211173
1.58 -0.209487
1.59 -0.209487
1.6 -0.211145
1.61 -0.214387
1.62 -0.219067
1.63 -0.224975
1.64 -0.231866
1.65 -0.239398
1.66 -0.247134
1.67 -0.254688
1.68 -0.261671
1.69 -0.267699
1.7 -0.272413
1.71 -0.275317
1.72 -0.276216
1.73 -0.274962
1.74 -0.271428
1.75 -0.265564
1.76 -0.257397
1.77 -0.246977
1.78 -0.234383
1.79 -0.220073
1.8 -0.204361
1.81 -0.187606
1.82 -0.170194
1.83 -0.152531
1.84 -0.135064
1.85 -0.118226
1.86 -0.102364
1.87 -0.0877872
1.88 -0.0747502
1.89 -0.0634461
1.9 -0.0540271
1.91 -0.0467105
1.92 -0.0412648
1.93 -0.0375827
1.94 -0.0354948
1.95 -0.0347783
1.96 -0.0351674
1.97 -0.0363974
1.98 -0.038092
1.99 -0.0398969
2 -0.04151
2.01 -0.0426568
2.02 -0.0431025
2.03 -0.0426582
2.04 -0.0410785
2.05 -0.0384244
2.06 -0.0347204
2.07 -0.0300592
2.08 -0.0245977
2.09 -0.0185527
2.1 -0.0121924
2.11 -0.00587869
2.12 2.81394e-05
2.13 0.00517253
2.14 0.00920092
2.15 0.0117757
2.16 0.0125888
2.17 0.0111282
2.18 0.00737911
2.19 0.00122531
2.2 -0.00739377
2.21 -0.0184644
2.22 -0.0318974
2.23 -0.047619
2.24 -0.0654048
2.25 -0.0847901
2.26 -0.105415
2.27 -0.126883
2.28 -0.148771
2.29 -0.170643
2.3 -0.191984
2.31 -0.21237
2.32 -0.231438
2.33 -0.248858
2.34 -0.264356
2.35 -0.277721
2.36 -0.288731
2.37 -0.297205
2.38 -0.303357
2.39 -0.307282
2.4 -0.309141
2.41 -0.309151
2.42 -0.307581
2.43 -0.304657
2.44 -0.30083
2.45 -0.296488
2.46 -0.291979
2.47 -0.28764
2.48 -0.283782
2.49 -0.280705
2.5 -0.278735
2.51 -0.277964
2.52 -0.278505
2.53 -0.280411
2.54 -0.283678
2.55 -0.288247
2.56 -0.294087
2.57 -0.30097
2.58 -0.308647
2.59 -0.316888
2.6 -0.325448
2.61 -0.334074
2.62 -0.342508
2.63 -0.350447
2.64 -0.357702
2.65 -0.364093
2.66 -0.369472
2.67 -0.373734
2.68 -0.376812
2.69 -0.378606
2.7 -0.37916
2.71 -0.378604
2.72 -0.37704
2.73 -0.374596
2.74 -0.371424
2.75 -0.367688
2.76 -0.363538
2.77 -0.359207
2.78 -0.354859
2.79 -0.350644
2.8 -0.346691
2.81 -0.343105
2.82 -0.339992
2.83 -0.337408
2.84 -0.335337
2.85 -0.333761
2.86 -0.33264
2.87 -0.331907
2.88 -0.331479
2.89 -0.331267
2.9 -0.331132
2.91 -0.330958
2.92 -0.330635
2.93 -0.330057
2.94 -0.329128
2.95 -0.327745
2.96 -0.325816
2.97 -0.323327
2.98 -0.320248
2.99 -0.316562
3 -0.312266
3.01 -0.307367
3.02 -0.301827
3.03 -0.295709
3.04 -0.289044
3.05 -0.281844
3.06 -0.274113
3.07 -0.265842
3.08 -0.25699
3.09 -0.24748
3.1 -0.237301
3.11 -0.226377
3.12 -0.21462
3.13 -0.201929
3.14 -0.188194
3.15 -0.173194
3.16 -0.156863
3.17 -0.139136
3.18 -0.119922
3.19 -0.0991479
3.2 -0.0767669
3.21 -0.0527256
3.22 -0.0269219
3.23 0.000428123
3.24 0.0292271
3.25 0.0593387
3.26 0.0905888
3.27 0.122767
3.28 0.15566
3.29 0.188934
3.3 0.222258
3.31 0.255318
3.32 0.28779
3.33 0.319348
3.34 0.349658
3.35 0.378229
3.36 0.404924
3.37 0.429492
3.38 0.451719
3.39 0.471427
3.4 0.488481
3.41 0.502613
3.42 0.513797
3.43 0.522192
3.44 0.527845
3.45 0.530842
3.46 0.531303
3.47 0.529376
3.48 0.525001
3.49 0.518641
3.5 0.510503
3.51 0.500795
3.52 0.489724
3.53 0.477489
3.54 0.464241
3.55 0.450167
3.56 0.435483
3.57 0.420324
3.58 0.404804
3.59 0.38902
3.6 0.373052
3.61 0.356954
3.62 0.340792
3.63 0.324607
3.64 0.308431
3.65 0.292299
3.66 0.276243
3.67 0.260311
3.68 0.244566
3.69 0.229058
3.7 0.213864
3.71 0.199071
3.72 0.184781
3.73 0.171106
3.74 0.158254
3.75 0.146323
3.76 0.135437
3.77 0.125737
3.78 0.117364
3.79 0.110451
3.8 0.105174
3.81 0.101755
3.82 0.100141
3.83 0.1004
3.84 0.102576
3.85 0.106688
3.86 0.11273
3.87 0.120819
3.88 0.130793
3.89 0.142496
3.9 0.155815
3.91 0.170617
3.92 0.186753
3.93 0.204077
3.94 0.222472
3.95 0.241645
3.96 0.261414
3.97 0.2816
3.98 0.302025
3.99 0.322522
4 0.342918
4.01 0.363049
4.02 0.382792
4.03 0.402033
4.04 0.42067
4.05 0.438617
4.06 0.455794
4.07 0.472047
4.08 0.487411
4.09 0.501844
4.1 0.51531
4.11 0.527776
4.12 0.539213
4.13 0.549525
4.14 0.558682
4.15 0.566715
4.16 0.573588
4.17 0.579266
4.18 0.583712
4.19 0.586886
4.2 0.588593
4.21 0.588932
4.22 0.58787
4.23 0.58537
4.24 0.581401
4.25 0.575937
4.26 0.568885
4.27 0.560203
4.28 0.549998
4.29 0.538279
4.3 0.52507
4.31 0.510402
4.32 0.494318
4.33 0.476738
4.34 0.457853
4.35 0.437754
4.36 0.416522
4.37 0.394244
4.38 0.371009
4.39 0.346884
4.4 0.321947
4.41 0.296362
4.42 0.270227
4.43 0.243638
4.44 0.216689
4.45 0.189473
4.46 0.162072
4.47 0.134595
4.48 0.107128
4.49 0.0797537
4.5 0.0525503
4.51 0.0255943
4.52 -0.00102886
4.53 -0.027212
4.54 -0.0529145
4.55 -0.0780674
4.56 -0.102603
4.57 -0.126457
4.58 -0.149566
4.59 -0.171801
4.6 -0.193133
4.61 -0.213543
4.62 -0.232985
4.63 -0.251421
4.64 -0.268819
4.65 -0.285137
4.66 -0.300268
4.67 -0.314315
4.68 -0.327285
4.69 -0.339192
4.7 -0.350061
4.71 -0.359926
4.72 -0.368765
4.73 -0.376657
4.74 -0.383707
4.75 -0.389976
4.76 -0.395532
4.77 -0.400445
4.78 -0.404783
4.79 -0.408568
4.8 -0.411932
4.81 -0.414938
4.82 -0.417643
4.83 -0.420103
4.84 -0.422362
4.85 -0.424453
4.86 -0.426413
4.87 -0.428274
4.88 -0.43005
4.89 -0.431751
4.9 -0.433379
4.91 -0.434932
4.92 -0.436389
4.93 -0.437746
4.94 -0.438987
4.95 -0.440093
4.96 -0.441042
4.97 -0.441815
4.98 -0.442379
4.99 -0.442702
5 -0.442778
5.01 -0.442586
5.02 -0.442104
5.03 -0.441313
5.04 -0.440193
5.05 -0.438686
5.06 -0.4368
5.07 -0.434522
5.08 -0.431831
5.09 -0.428708
5.1 -0.425134
5.11 -0.421073
5.12 -0.416482
5.13 -0.411385
5.14 -0.405768
5.15 -0.399622
5.16 -0.392942
5.17 -0.385728
5.18 -0.377939
5.19 -0.369623
5.2 -0.360817
5.21 -0.351553
5.22 -0.341869
5.23 -0.331813
5.24 -0.321436
5.25 -0.310794
5.26 -0.299989
5.27 -0.2891
5.28 -0.278212
5.29 -0.267412
5.3 -0.256788
5.31 -0.246456
5.32 -0.236503
5.33 -0.226999
5.34 -0.218017
5.35 -0.209623
5.36 -0.201873
5.37 -0.19482
5.38 -0.188567
5.39 -0.183057
5.4 -0.178294
5.41 -0.17427
5.42 -0.170964
5.43 -0.168346
5.44 -0.166412
5.45 -0.165093
5.46 -0.164299
5.47 -0.163966
5.48 -0.164029
5.49 -0.164419
5.5 -0.165072
5.51 -0.165939
5.52 -0.166931
5.53 -0.167994
5.54 -0.169079
5.55 -0.170143
5.56 -0.171149
5.57 -0.172057
5.58 -0.172838
5.59 -0.173474
5.6 -0.173946
5.61 -0.174235
5.62 -0.174321
5.63 -0.174185
5.64 -0.173773
5.65 -0.173081
5.66 -0.172076
5.67 -0.170722
5.68 -0.168974
5.69 -0.166785
5.7 -0.164077
5.71 -0.16077
5.72 -0.156842
5.73 -0.152236
5.74 -0.146896
5.75 -0.14077
5.76 -0.133815
5.77 -0.125908
5.78 -0.11709
5.79 -0.107371
5.8 -0.0967579
5.81 -0.0852723
5.82 -0.0729534
5.83 -0.0598337
5.84 -0.0459613
5.85 -0.0314917
5.86 -0.0165294
5.87 -0.00118998
5.88 0.0144021
5.89 0.0301167
5.9 0.0458083
5.91 0.0613291
5.92 0.0765533
5.93 0.0913625
5.94 0.105649
5.95 0.11932
5.96 0.132281
5.97 0.144412
5.98 0.155745
5.99 0.166264
6 0.175974
6.01 0.184897
6.02 0.193071
6.03 0.200504
6.04 0.207294
6.05 0.213548
6.06 0.219347
6.07 0.224773
6.08 0.229908
6.09 0.234823
6.1 0.239578
6.11 0.244242
6.12 0.248852
6.13 0.253425
6.14 0.257963
6.15 0.262447
6.16 0.266836
6.17 0.271066
6.18 0.275073
6.19 0.278774
6.2 0.282075
6.21 0.284879
6.22 0.287082
6.23 0.288491
6.24 0.289083
6.25 0.28877
6.26 0.287476
6.27 0.285141
6.28 0.281719
6.29 0.277124
6.3 0.271337
6.31 0.264444
6.32 0.256483
6.33 0.247505
6.34 0.237579
6.35 0.226788
6.36 0.215156
6.37 0.202868
6.38 0.190043
6.39 0.176789
6.4 0.163213
6.41 0.149417
6.42 0.135494
6.43 0.121537
6.44 0.107623
6.45 0.0938056
6.46 0.0801262
6.47 0.0666107
6.48 0.0532715
6.49 0.0401234
6.5 0.0271387
6.51 0.0142901
6.52 0.00154736
6.53 -0.0111233
6.54 -0.0237576
6.55 -0.0363906
6.56 -0.0490586
6.57 -0.0617841
6.58 -0.074582
6.59 -0.0874576
6.6 -0.100405
6.61 -0.113409
6.62 -0.126438
6.63 -0.139446
6.64 -0.15238
6.65 -0.16518
6.66 -0.177778
6.67 -0.190101
6.68 -0.202066
6.69 -0.213554
6.7 -0.224524
6.71 -0.234906
6.72 -0.244633
6.73 -0.253648
6.74 -0.261898
6.75 -0.26928
6.76 -0.27578
6.77 -0.28141
6.78 -0.286157
6.79 -0.290013
6.8 -0.292978
6.81 -0.295047
6.82 -0.296139
6.83 -0.29636
6.84 -0.295716
6.85 -0.294212
6.86 -0.291851
6.87 -0.288627
6.88 -0.284478
6.89 -0.27939
6.9 -0.273388
6.91 -0.266442
6.92 -0.258519
6.93 -0.24958
6.94 -0.239585
6.95 -0.228362
6.96 -0.21599
6.97 -0.202437
6.98 -0.187672
6.99 -0.171674
7 -0.154431
7.01 -0.135881
7.02 -0.11602
7.03 -0.0949619
7.04 -0.0727524
7.05 -0.049452
7.06 -0.025136
7.07 0.000106553
7.08 0.0262466
7.09 0.0530827
7.1 0.0804783
7.11 0.108301
7.12 0.136413
7.13 0.164675
7.14 0.192941
7.15 0.221051
7.16 0.248873
7.17 0.276281
7.18 0.30316
7.19 0.3294
7.2 0.354903
7.21 0.3795
7.22 0.403161
7.23 0.425844
7.24 0.447493
7.25 0.468063
7.26 0.487514
7.27 0.505779
7.28 0.522755
7.29 0.538518
7.3 0.553042
7.31 0.566302
7.32 0.578272
7.33 0.58892
7.34 0.598101
7.35 0.605836
7.36 0.612133
7.37 0.616948
7.38 0.620237
7.39 0.621955
7.4 0.622026
7.41 0.620265
7.42 0.616795
7.43 0.611583
7.44 0.604604
7.45 0.59584
7.46 0.585288
7.47 0.572829
7.48 0.55853
7.49 0.542513
7.5 0.524832
7.51 0.505554
7.52 0.484765
7.53 0.462555
7.54 0.438914
7.55 0.414127
7.56 0.388334
7.57 0.361685
7.58 0.334337
7.59 0.306454
7.6 0.278194
7.61 0.249752
7.62 0.221317
7.63 0.193057
7.64 0.165133
7.65 0.137702
7.66 0.110911
7.67 0.085002
7.68 0.0600291
7.69 0.0361023
7.7 0.0133222
7.71 -0.00822353
7.72 -0.0284611
7.73 -0.0472629
7.74 -0.0645478
7.75 -0.0803832
7.76 -0.0947543
7.77 -0.10766
7.78 -0.11911
7.79 -0.129129
7.8 -0.137614
7.81 -0.144734
7.82 -0.150567
7.83 -0.155178
7.84 -0.158636
7.85 -0.161018
7.86 -0.16237
7.87 -0.162746
7.88 -0.162311
7.89 -0.161147
7.9 -0.159338
7.91 -0.156964
7.92 -0.154099
7.93 -0.150784
7.94 -0.147116
7.95 -0.143163
7.96 -0.138972
7.97 -0.134587
7.98 -0.130039
7.99 -0.125352
8 -0.120539
8.01 -0.115622
8.02 -0.110606
8.03 -0.105492
8.04 -0.100278
8.05 -0.0949586
8.06 -0.0895214
8.07 -0.0839663
8.08 -0.0782971
8.09 -0.0725173
8.1 -0.0666352
8.11 -0.0606652
8.12 -0.0546276
8.13 -0.0485508
8.14 -0.0424778
8.15 -0.0364514
8.16 -0.0305202
8.17 -0.0247375
8.18 -0.0191601
8.19 -0.0138685
8.2 -0.00892509
8.21 -0.00437254
8.22 -0.000262717
8.23 0.0033587
8.24 0.00645404
8.25 0.00899328
8.26 0.0108959
8.27 0.0122243
8.28 0.01299
8.29 0.0132181
8.3 0.0129464
8.31 0.0122249
8.32 0.011097
8.33 0.00964391
8.34 0.00796831
8.35 0.00615408
8.36 0.00428686
8.37 0.00245125
8.38 0.000727967
8.39 -0.000781432
8.4 -0.00202706
8.41 -0.00296137
8.42 -0.00354977
8.43 -0.00377367
8.44 -0.00363153
8.45 -0.00312511
8.46 -0.00228708
8.47 -0.00119715
8.48 7.47398e-05
8.49 0.0014455
8.5 0.00282133
8.51 0.00410047
8.52 0.00514559
8.53 0.00585301
8.54 0.00612207
8.55 0.00585451
8.56 0.00496167
8.57 0.00336745
8.58 0.000983179
8.59 -0.00227762
8.6 -0.00637062
8.61 -0.0112957
8.62 -0.0170331
8.63 -0.0235435
8.64 -0.0307699
8.65 -0.0386871
8.66 -0.0471579
8.67 -0.0560626
8.68 -0.0652932
8.69 -0.0747382
8.7 -0.084286
8.71 -0.0938254
8.72 -0.103235
8.73 -0.112427
8.74 -0.121327
8.75 -0.129872
8.76 -0.138018
8.77 -0.145735
8.78 -0.152979
8.79 -0.159775
8.8 -0.166165
8.81 -0.172187
8.82 -0.17789
8.83 -0.183331
8.84 -0.18857
8.85 -0.193667
8.86 -0.198705
8.87 -0.203741
8.88 -0.208825
8.89 -0.213997
8.9 -0.219285
8.91 -0.224712
8.92 -0.230274
8.93 -0.235946
8.94 -0.241695
8.95 -0.247473
8.96 -0.253226
8.97 -0.258884
8.98 -0.264345
8.99 -0.269544
9 -0.2744
9.01 -0.278838
9.02 -0.282785
9.03 -0.286179
9.04 -0.288932
9.05 -0.290994
9.06 -0.292383
9.07 -0.293091
9.08 -0.293127
9.09 -0.292516
9.1 -0.291295
9.11 -0.289463
9.12 -0.287144
9.13 -0.284417
9.14 -0.281359
9.15 -0.278051
9.16 -0.274573
9.17 -0.271001
9.18 -0.267416
9.19 -0.263884
9.2 -0.260456
9.21 -0.257171
9.22 -0.254054
9.23 -0.251118
9.24 -0.248381
9.25 -0.245813
9.26 -0.243387
9.27 -0.241069
9.28 -0.23882
9.29 -0.236596
9.3 -0.234351
9.31 -0.232032
9.32 -0.229604
9.33 -0.227033
9.34 -0.224297
9.35 -0.221381
9.36 -0.218282
9.37 -0.214994
9.38 -0.211549
9.39 -0.207985
9.4 -0.204342
9.41 -0.200666
9.42 -0.19701
9.43 -0.193429
9.44 -0.189994
9.45 -0.186745
9.46 -0.183722
9.47 -0.180959
9.48 -0.178474
9.49 -0.176274
9.5 -0.174368
9.51 -0.172716
9.52 -0.17126
9.53 -0.169937
9.54 -0.168669
9.55 -0.167368
9.56 -0.165927
9.57 -0.164201
9.58 -0.16209
9.59 -0.159479
9.6 -0.156254
9.61 -0.152309
9.62 -0.147546
9.63 -0.141821
9.64 -0.135065
9.65 -0.127283
9.66 -0.11845
9.67 -0.108561
9.68 -0.0976337
9.69 -0.0857052
9.7 -0.0727321
9.71 -0.0589064
9.72 -0.0443232
9.73 -0.0290873
9.74 -0.013312
9.75 0.00288497
9.76 0.0193936
9.77 0.0360831
9.78 0.0528261
9.79 0.0695239
9.8 0.0860895
9.81 0.102451
9.82 0.11855
9.83 0.134314
9.84 0.149745
9.85 0.164845
9.86 0.179622
9.87 0.1941
9.88 0.20831
9.89 0.222284
9.9 0.236063
9.91 0.249709
9.92 0.263259
9.93 0.276747
9.94 0.290195
9.95 0.303615
9.96 0.317
9.97 0.330328
9.98 0.343564
9.99 0.356653
10 0.369527
10.01 0.382105
10.02 0.39428
10.03 0.405907
10.04 0.416916
10.05 0.427198
10.06 0.436648
10.07 0.445167
10.08 0.452666
10.09 0.458976
10.1 0.464086
10.11 0.468
10.12 0.470706
10.13 0.472215
10.14 0.472562
10.15 0.471783
10.16 0.469887
10.17 0.467087
10.18 0.463504
10.19 0.459272
10.2 0.454536
10.21 0.44945
10.22 0.444163
10.23 0.438854
10.24 0.433675
10.25 0.428757
10.26 0.424221
10.27 0.420164
10.28 0.416672
10.29 0.41387
10.3 0.411722
10.31 0.410229
10.32 0.409371
10.33 0.409102
10.34 0.409357
10.35 0.41007
10.36 0.411119
10.37 0.412362
10.38 0.413669
10.39 0.414907
10.4 0.41594
10.41 0.416635
10.42 0.416794
10.43 0.416338
10.44 0.415163
10.45 0.413174
10.46 0.410296
10.47 0.406466
10.48 0.401591
10.49 0.395625
10.5 0.388632
10.51 0.380624
10.52 0.371628
10.53 0.361683
10.54 0.350841
10.55 0.339084
10.56 0.32656
10.57 0.313355
10.58 0.299545
10.59 0.285204
10.6 0.270406
10.61 0.255211
10.62 0.239681
10.63 0.223903
10.64 0.207932
10.65 0.191815
10.66 0.175591
10.67 0.159297
10.68 0.142958
10.69 0.126603
10.7 0.110252
10.71 0.093919
10.72 0.0776165
10.73 0.0613553
10.74 0.045147
10.75 0.0290061
10.76 0.0129379
10.77 -0.00304704
10.78 -0.0189371
10.79 -0.0347197
10.8 -0.0503816
10.81 -0.0658966
10.82 -0.0812541
10.83 -0.0964451
10.84 -0.111456
10.85 -0.126274
10.86 -0.140888
10.87 -0.155286
10.88 -0.169441
10.89 -0.183371
10.9 -0.197075
10.91 -0.210553
10.92 -0.22381
10.93 -0.236849
10.94 -0.249664
10.95 -0.262267
10.96 -0.274676
10.97 -0.286898
10.98 -0.298937
10.99 -0.310798
11 -0.32248
11.01 -0.333959
11.02 -0.345247
11.03 -0.356333
11.04 -0.367198
11.05 -0.377821
11.06 -0.388175
11.07 -0.398211
11.08 -0.407884
11.09 -0.417175
11.1 -0.426041
11.11 -0.434438
11.12 -0.442319
11.13 -0.449639
11.14 -0.456281
11.15 -0.462261
11.16 -0.467541
11.17 -0.472086
11.18 -0.475861
11.19 -0.478839
11.2 -0.480958
11.21 -0.482178
11.22 -0.482547
11.23 -0.482061
11.24 -0.48072
11.25 -0.478532
11.26 -0.475507
11.27 -0.471583
11.28 -0.466849
11.29 -0.461344
11.3 -0.455096
11.31 -0.448134
11.32 -0.440488
11.33 -0.432169
11.34 -0.423184
11.35 -0.413618
11.36 -0.403501
11.37 -0.392864
11.38 -0.381735
11.39 -0.370143
11.4 -0.358077
11.41 -0.345591
11.42 -0.332723
11.43 -0.319494
11.44 -0.305929
11.45 -0.29205
11.46 -0.277872
11.47 -0.263406
11.48 -0.248703
11.49 -0.23379
11.5 -0.218695
11.51 -0.203449
11.52 -0.188086
11.53 -0.172638
11.54 -0.157152
11.55 -0.141674
11.56 -0.126248
11.57 -0.110921
11.58 -0.0957412
11.59 -0.0807626
11.6 -0.0660657
11.61 -0.0516809
11.62 -0.0376598
11.63 -0.0240532
11.64 -0.01091
11.65 0.00172349
11.66 0.0137649
11.67 0.0251785
11.68 0.0359602
11.69 0.0460826
11.7 0.0555249
11.71 0.064273
11.72 0.0723181
11.73 0.0795823
11.74 0.086156
11.75 0.092056
11.76 0.0973066
11.77 0.101938
11.78 0.105988
11.79 0.10947
11.8 0.112436
11.81 0.11497
11.82 0.117123
11.83 0.118949
11.84 0.120501
11.85 0.121829
11.86 0.122968
11.87 0.123981
11.88 0.124906
11.89 0.125772
11.9 0.1266
11.91 0.127404
11.92 0.128187
11.93 0.128939
11.94 0.129646
11.95 0.130282
11.96 0.130811
11.97 0.131191
11.98 0.131373
11.99 0.131271
12 0.130836
12.01 0.130009
12.02 0.128726
12.03 0.12692
12.04 0.124528
12.05 0.121467
12.06 0.117637
12.07 0.113045
12.08 0.107652
12.09 0.101423
12.1 0.0943373
12.11 0.0863798
12.12 0.0774729
12.13 0.0676735
12.14 0.0570285
12.15 0.0455669
12.16 0.033327
12.17 0.0203557
12.18 0.00669429
