# xPDFsuite Configuration #
[PDF]
wavelength = 0.1
dataformat = QA
inputfile = BiMsol6_insitu_700 C-00499.xy
backgroundfile = Quartz2mm-dist500-00000.xy
mode = xray
bgscale = 0.0042
composition = Bi2Fe4O9
outputtype = gr
qmaxinst = 24.998449118
qmin = 0.1
qmax = 21.4986662415
rmax = 80.0
rmin = 0.0
rstep = 0.01
rpoly = 0.9

[Misc]
inputdir = C:/Data/Seafile/CPH/Beamtime/Desy Oct 20/In situ data/Processed/BiMsol6/PDF
savedir = C:/Data/Seafile/CPH/Beamtime/Desy Oct 20/In situ data/PDF/BiMsol6
backgroundfilefull = C:/Data/Seafile/CPH/Beamtime/Desy Oct 20/In situ data/Processed/Standard_Empty_Cap/Quartz2mm-dist500-00000.xy

#### start data
#S 1
#L r($\AA$)  G($\AA^{-2}$)
0 0
0.01 0.00622029
0.02 0.0120881
0.03 0.0173017
0.04 0.0215905
0.05 0.0247272
0.06 0.0265388
0.07 0.0268357
0.08 0.0255628
0.09 0.0228599
0.1 0.0188417
0.11 0.0136864
0.12 0.00762774
0.13 0.000944303
0.14 -0.00605053
0.15 -0.0129624
0.16 -0.0194588
0.17 -0.0252276
0.18 -0.0299893
0.19 -0.0335104
0.2 -0.0355513
0.21 -0.0359487
0.22 -0.0347989
0.23 -0.0321674
0.24 -0.028196
0.25 -0.0230981
0.26 -0.0171506
0.27 -0.0106694
0.28 -0.00410701
0.29 0.00213348
0.3 0.00766087
0.31 0.0121036
0.32 0.0151279
0.33 0.0163963
0.34 0.015579
0.35 0.0127295
0.36 0.00784744
0.37 0.00103472
0.38 -0.00750324
0.39 -0.0174604
0.4 -0.028481
0.41 -0.0399575
0.42 -0.0512935
0.43 -0.0618827
0.44 -0.0710977
0.45 -0.0783141
0.46 -0.0828714
0.47 -0.0839185
0.48 -0.0812735
0.49 -0.0745933
0.5 -0.0636553
0.51 -0.0483715
0.52 -0.0287981
0.53 -0.00487082
0.54 0.0228648
0.55 0.0536914
0.56 0.0869421
0.57 0.121838
0.58 0.157507
0.59 0.193003
0.6 0.227114
0.61 0.258894
0.62 0.287392
0.63 0.311715
0.64 0.331062
0.65 0.344743
0.66 0.351804
0.67 0.351858
0.68 0.345085
0.69 0.331496
0.7 0.311287
0.71 0.284828
0.72 0.252661
0.73 0.214998
0.74 0.173326
0.75 0.128613
0.76 0.0818838
0.77 0.0342036
0.78 -0.0133559
0.79 -0.0596344
0.8 -0.103467
0.81 -0.144063
0.82 -0.18066
0.83 -0.212631
0.84 -0.239503
0.85 -0.260965
0.86 -0.276304
0.87 -0.286081
0.88 -0.290603
0.89 -0.29025
0.9 -0.285528
0.91 -0.277055
0.92 -0.265447
0.93 -0.251489
0.94 -0.236207
0.95 -0.220391
0.96 -0.204803
0.97 -0.190151
0.98 -0.177064
0.99 -0.166312
1 -0.15821
1.01 -0.152974
1.02 -0.150755
1.03 -0.151574
1.04 -0.155337
1.05 -0.161908
1.06 -0.17108
1.07 -0.182212
1.08 -0.194848
1.09 -0.208494
1.1 -0.222644
1.11 -0.236796
1.12 -0.250398
1.13 -0.262993
1.14 -0.274244
1.15 -0.28387
1.16 -0.29167
1.17 -0.297531
1.18 -0.301392
1.19 -0.303171
1.2 -0.303217
1.21 -0.301749
1.22 -0.299038
1.23 -0.295391
1.24 -0.291139
1.25 -0.286623
1.26 -0.28222
1.27 -0.278233
1.28 -0.274915
1.29 -0.272465
1.3 -0.271024
1.31 -0.270675
1.32 -0.271535
1.33 -0.273408
1.34 -0.27616
1.35 -0.279606
1.36 -0.283516
1.37 -0.287633
1.38 -0.291656
1.39 -0.295263
1.4 -0.298195
1.41 -0.300213
1.42 -0.301117
1.43 -0.300758
1.44 -0.299041
1.45 -0.295781
1.46 -0.291175
1.47 -0.285345
1.48 -0.278465
1.49 -0.27076
1.5 -0.2625
1.51 -0.253993
1.52 -0.245612
1.53 -0.237698
1.54 -0.230567
1.55 -0.224508
1.56 -0.219772
1.57 -0.21656
1.58 -0.215187
1.59 -0.215579
1.6 -0.217691
1.61 -0.221429
1.62 -0.226632
1.63 -0.233067
1.64 -0.240469
1.65 -0.248475
1.66 -0.256631
1.67 -0.264538
1.68 -0.271796
1.69 -0.278011
1.7 -0.282822
1.71 -0.285723
1.72 -0.28653
1.73 -0.285105
1.74 -0.281332
1.75 -0.275175
1.76 -0.266678
1.77 -0.25591
1.78 -0.242971
1.79 -0.22834
1.8 -0.212351
1.81 -0.195381
1.82 -0.177832
1.83 -0.160123
1.84 -0.14272
1.85 -0.126061
1.86 -0.110489
1.87 -0.0963124
1.88 -0.0837806
1.89 -0.0730772
1.9 -0.0643432
1.91 -0.0577836
1.92 -0.05314
1.93 -0.0502847
1.94 -0.0490267
1.95 -0.0491211
1.96 -0.0502803
1.97 -0.0522132
1.98 -0.0545225
1.99 -0.0568402
2 -0.05885
2.01 -0.0602661
2.02 -0.0608453
2.03 -0.0603933
2.04 -0.0586473
2.05 -0.0556866
2.06 -0.0515407
2.07 -0.0463095
2.08 -0.0401596
2.09 -0.0333189
2.1 -0.0260636
2.11 -0.0187706
2.12 -0.0118191
2.13 -0.00557809
2.14 -0.000413828
2.15 0.00332422
2.16 0.00531708
2.17 0.00504302
2.18 0.00247735
2.19 -0.002503
2.2 -0.00996455
2.21 -0.0198986
2.22 -0.0322206
2.23 -0.0468622
2.24 -0.0636047
2.25 -0.0819853
2.26 -0.101649
2.27 -0.122205
2.28 -0.143234
2.29 -0.164311
2.3 -0.184931
2.31 -0.204679
2.32 -0.223195
2.33 -0.240158
2.34 -0.255304
2.35 -0.268428
2.36 -0.279319
2.37 -0.287806
2.38 -0.294096
2.39 -0.298282
2.4 -0.30052
2.41 -0.301022
2.42 -0.300046
2.43 -0.297809
2.44 -0.294738
2.45 -0.291199
2.46 -0.287517
2.47 -0.284004
2.48 -0.280944
2.49 -0.278609
2.5 -0.277292
2.51 -0.277065
2.52 -0.278019
2.53 -0.280189
2.54 -0.283557
2.55 -0.288053
2.56 -0.293628
2.57 -0.300063
2.58 -0.307124
2.59 -0.314596
2.6 -0.322251
2.61 -0.329863
2.62 -0.337203
2.63 -0.343999
2.64 -0.350106
2.65 -0.355382
2.66 -0.359715
2.67 -0.363036
2.68 -0.365311
2.69 -0.366483
2.7 -0.36662
2.71 -0.365861
2.72 -0.364317
2.73 -0.362119
2.74 -0.359412
2.75 -0.35635
2.76 -0.353078
2.77 -0.349775
2.78 -0.34657
2.79 -0.34357
2.8 -0.340858
2.81 -0.33849
2.82 -0.336516
2.83 -0.334933
2.84 -0.333683
2.85 -0.332706
2.86 -0.331922
2.87 -0.331233
2.88 -0.330532
2.89 -0.329678
2.9 -0.328558
2.91 -0.327067
2.92 -0.325107
2.93 -0.322599
2.94 -0.319479
2.95 -0.315676
2.96 -0.311147
2.97 -0.305947
2.98 -0.300102
2.99 -0.293652
3 -0.286654
3.01 -0.279171
3.02 -0.271237
3.03 -0.262958
3.04 -0.254401
3.05 -0.245612
3.06 -0.23662
3.07 -0.227437
3.08 -0.218039
3.09 -0.20837
3.1 -0.198379
3.11 -0.187973
3.12 -0.177041
3.13 -0.165454
3.14 -0.15307
3.15 -0.139649
3.16 -0.125072
3.17 -0.109232
3.18 -0.0920033
3.19 -0.0732833
3.2 -0.0529963
3.21 -0.0310662
3.22 -0.00737152
3.23 0.0178836
3.24 0.044607
3.25 0.0726625
3.26 0.101871
3.27 0.132013
3.28 0.162862
3.29 0.194066
3.3 0.225282
3.31 0.256177
3.32 0.286415
3.33 0.315659
3.34 0.343566
3.35 0.369634
3.36 0.39374
3.37 0.415642
3.38 0.435144
3.39 0.45209
3.4 0.466373
3.41 0.477765
3.42 0.486286
3.43 0.492135
3.44 0.495409
3.45 0.496241
3.46 0.494801
3.47 0.491285
3.48 0.485724
3.49 0.478587
3.5 0.470115
3.51 0.460547
3.52 0.450113
3.53 0.439029
3.54 0.427479
3.55 0.415657
3.56 0.403734
3.57 0.391825
3.58 0.38002
3.59 0.368382
3.6 0.356952
3.61 0.345771
3.62 0.33482
3.63 0.324079
3.64 0.31353
3.65 0.303147
3.66 0.29291
3.67 0.282808
3.68 0.272841
3.69 0.263009
3.7 0.253338
3.71 0.243873
3.72 0.234672
3.73 0.225813
3.74 0.217435
3.75 0.209628
3.76 0.202495
3.77 0.196158
3.78 0.190739
3.79 0.186357
3.8 0.183163
3.81 0.181342
3.82 0.180877
3.83 0.181833
3.84 0.184253
3.85 0.188161
3.86 0.193556
3.87 0.200529
3.88 0.208952
3.89 0.218698
3.9 0.229672
3.91 0.241761
3.92 0.254837
3.93 0.268774
3.94 0.283463
3.95 0.29867
3.96 0.314243
3.97 0.330032
3.98 0.345892
3.99 0.361686
4 0.377263
4.01 0.392493
4.02 0.407284
4.03 0.421543
4.04 0.435186
4.05 0.448143
4.06 0.460344
4.07 0.471645
4.08 0.482083
4.09 0.491615
4.1 0.500201
4.11 0.507802
4.12 0.51438
4.13 0.519834
4.14 0.524122
4.15 0.527267
4.16 0.529232
4.17 0.52998
4.18 0.529476
4.19 0.527687
4.2 0.524436
4.21 0.519843
4.22 0.5139
4.23 0.506604
4.24 0.497962
4.25 0.487989
4.26 0.476651
4.27 0.463973
4.28 0.450093
4.29 0.435076
4.3 0.418993
4.31 0.401924
4.32 0.383953
4.33 0.365097
4.34 0.345527
4.35 0.325345
4.36 0.304638
4.37 0.283489
4.38 0.261975
4.39 0.240156
4.4 0.218088
4.41 0.195844
4.42 0.173462
4.43 0.150975
4.44 0.128404
4.45 0.105768
4.46 0.083073
4.47 0.0603333
4.48 0.0375583
4.49 0.0147579
4.5 -0.00805414
4.51 -0.0308585
4.52 -0.0536265
4.53 -0.0763123
4.54 -0.098872
4.55 -0.121248
4.56 -0.143372
4.57 -0.165167
4.58 -0.186549
4.59 -0.207377
4.6 -0.227563
4.61 -0.24703
4.62 -0.26568
4.63 -0.283421
4.64 -0.300166
4.65 -0.315823
4.66 -0.330223
4.67 -0.343431
4.68 -0.355421
4.69 -0.366181
4.7 -0.37572
4.71 -0.384065
4.72 -0.391189
4.73 -0.397187
4.74 -0.4022
4.75 -0.406321
4.76 -0.409656
4.77 -0.412318
4.78 -0.414421
4.79 -0.416051
4.8 -0.417381
4.81 -0.41852
4.82 -0.419565
4.83 -0.420605
4.84 -0.421714
4.85 -0.422959
4.86 -0.424389
4.87 -0.426017
4.88 -0.427849
4.89 -0.429875
4.9 -0.432071
4.91 -0.434401
4.92 -0.436822
4.93 -0.439263
4.94 -0.44166
4.95 -0.44395
4.96 -0.446067
4.97 -0.447946
4.98 -0.449512
4.99 -0.450695
5 -0.451471
5.01 -0.451801
5.02 -0.451655
5.03 -0.451014
5.04 -0.449862
5.05 -0.448141
5.06 -0.445896
5.07 -0.443142
5.08 -0.439887
5.09 -0.436145
5.1 -0.431927
5.11 -0.42723
5.12 -0.422046
5.13 -0.416421
5.14 -0.410359
5.15 -0.403865
5.16 -0.396937
5.17 -0.389574
5.18 -0.381734
5.19 -0.373437
5.2 -0.364694
5.21 -0.355504
5.22 -0.345869
5.23 -0.335798
5.24 -0.325294
5.25 -0.314355
5.26 -0.303048
5.27 -0.291414
5.28 -0.279499
5.29 -0.267357
5.3 -0.255051
5.31 -0.242646
5.32 -0.23023
5.33 -0.217883
5.34 -0.205682
5.35 -0.193706
5.36 -0.182027
5.37 -0.170721
5.38 -0.159898
5.39 -0.14957
5.4 -0.13978
5.41 -0.13056
5.42 -0.12193
5.43 -0.113902
5.44 -0.106511
5.45 -0.0997332
5.46 -0.0935146
5.47 -0.087823
5.48 -0.0826206
5.49 -0.0778649
5.5 -0.0735115
5.51 -0.0695494
5.52 -0.0658893
5.53 -0.0624904
5.54 -0.059316
5.55 -0.0563354
5.56 -0.0535238
5.57 -0.0508708
5.58 -0.048365
5.59 -0.0459935
5.6 -0.0437572
5.61 -0.0416613
5.62 -0.0397129
5.63 -0.03792
5.64 -0.0363079
5.65 -0.0348643
5.66 -0.0335862
5.67 -0.0324658
5.68 -0.0314877
5.69 -0.0306284
5.7 -0.0298576
5.71 -0.0291283
5.72 -0.028383
5.73 -0.0275631
5.74 -0.0266042
5.75 -0.0254377
5.76 -0.0239935
5.77 -0.0221609
5.78 -0.0198931
5.79 -0.0171371
5.8 -0.0138416
5.81 -0.00996579
5.82 -0.00548137
5.83 -0.000353671
5.84 0.00544541
5.85 0.011842
5.86 0.0187987
5.87 0.0262632
5.88 0.0341691
5.89 0.0424377
5.9 0.0509955
5.91 0.0597184
5.92 0.0684969
5.93 0.0772295
5.94 0.0858172
5.95 0.0941667
5.96 0.102185
5.97 0.109763
5.98 0.116877
5.99 0.123488
6 0.129574
6.01 0.135131
6.02 0.140171
6.03 0.14469
6.04 0.148754
6.05 0.152445
6.06 0.15583
6.07 0.158986
6.08 0.161989
6.09 0.16492
6.1 0.167859
6.11 0.17088
6.12 0.174034
6.13 0.177365
6.14 0.180895
6.15 0.184634
6.16 0.188583
6.17 0.192704
6.18 0.196936
6.19 0.201213
6.2 0.205454
6.21 0.209566
6.22 0.213447
6.23 0.216937
6.24 0.219956
6.25 0.222396
6.26 0.224154
6.27 0.225138
6.28 0.225265
6.29 0.224419
6.3 0.222531
6.31 0.219637
6.32 0.215728
6.33 0.210815
6.34 0.20493
6.35 0.19812
6.36 0.190368
6.37 0.181842
6.38 0.172646
6.39 0.162877
6.4 0.152641
6.41 0.142043
6.42 0.131181
6.43 0.120163
6.44 0.109097
6.45 0.0980644
6.46 0.0871344
6.47 0.076364
6.48 0.0657974
6.49 0.0554892
6.5 0.0454405
6.51 0.0356487
6.52 0.0261069
6.53 0.0167992
6.54 0.00770356
6.55 -0.0012022
6.56 -0.0099424
6.57 -0.0185615
6.58 -0.0270861
6.59 -0.0355383
6.6 -0.043935
6.61 -0.0522861
6.62 -0.0605898
6.63 -0.0688405
6.64 -0.0770236
6.65 -0.0851157
6.66 -0.0930864
6.67 -0.1009
6.68 -0.10851
6.69 -0.115847
6.7 -0.122887
6.71 -0.129581
6.72 -0.135887
6.73 -0.141761
6.74 -0.147164
6.75 -0.152025
6.76 -0.156323
6.77 -0.160058
6.78 -0.163213
6.79 -0.165775
6.8 -0.167734
6.81 -0.169079
6.82 -0.169744
6.83 -0.169794
6.84 -0.169227
6.85 -0.168039
6.86 -0.166226
6.87 -0.16378
6.88 -0.16065
6.89 -0.156825
6.9 -0.152323
6.91 -0.147124
6.92 -0.141206
6.93 -0.134547
6.94 -0.127123
6.95 -0.118821
6.96 -0.109708
6.97 -0.0997738
6.98 -0.0890098
6.99 -0.0774157
7 -0.0649991
7.01 -0.0517376
7.02 -0.0376504
7.03 -0.0228301
7.04 -0.00732596
7.05 0.00880334
7.06 0.0254904
7.07 0.0426602
7.08 0.0602634
7.09 0.0781679
7.1 0.0962784
7.11 0.114504
7.12 0.132754
7.13 0.150942
7.14 0.168976
7.15 0.186759
7.16 0.204236
7.17 0.221345
7.18 0.238034
7.19 0.254259
7.2 0.269983
7.21 0.285126
7.22 0.299699
7.23 0.313698
7.24 0.32711
7.25 0.339922
7.26 0.352123
7.27 0.363679
7.28 0.374532
7.29 0.384715
7.3 0.394196
7.31 0.402941
7.32 0.410906
7.33 0.41804
7.34 0.424208
7.35 0.429378
7.36 0.433514
7.37 0.436543
7.38 0.438392
7.39 0.43899
7.4 0.438245
7.41 0.435972
7.42 0.432251
7.43 0.427042
7.44 0.420314
7.45 0.412051
7.46 0.402253
7.47 0.390832
7.48 0.377861
7.49 0.363467
7.5 0.347718
7.51 0.3307
7.52 0.312511
7.53 0.293258
7.54 0.27298
7.55 0.251924
7.56 0.23023
7.57 0.20804
7.58 0.185497
7.59 0.162744
7.6 0.139926
7.61 0.1172
7.62 0.0946953
7.63 0.0725333
7.64 0.0508263
7.65 0.0296774
7.66 0.00918079
7.67 -0.0104878
7.68 -0.0293257
7.69 -0.0472724
7.7 -0.0642717
7.71 -0.0802752
7.72 -0.0952417
7.73 -0.109084
7.74 -0.121747
7.75 -0.133285
7.76 -0.143682
7.77 -0.15293
7.78 -0.161026
7.79 -0.16797
7.8 -0.17366
7.81 -0.178211
7.82 -0.181666
7.83 -0.184057
7.84 -0.185427
7.85 -0.185822
7.86 -0.185271
7.87 -0.183809
7.88 -0.181586
7.89 -0.178681
7.9 -0.175181
7.91 -0.171177
7.92 -0.166761
7.93 -0.162009
7.94 -0.157044
7.95 -0.151963
7.96 -0.146851
7.97 -0.141783
7.98 -0.136828
7.99 -0.132048
8 -0.127506
8.01 -0.123217
8.02 -0.119194
8.03 -0.115442
8.04 -0.111951
8.05 -0.108699
8.06 -0.105669
8.07 -0.102805
8.08 -0.100051
8.09 -0.0973576
8.1 -0.0946721
8.11 -0.0919445
8.12 -0.0891269
8.13 -0.0861647
8.14 -0.0830398
8.15 -0.079735
8.16 -0.0762449
8.17 -0.072577
8.18 -0.0687513
8.19 -0.0647949
8.2 -0.0607622
8.21 -0.0567154
8.22 -0.0527178
8.23 -0.0488377
8.24 -0.0451452
8.25 -0.0417106
8.26 -0.0386415
8.27 -0.0359626
8.28 -0.0337188
8.29 -0.0319419
8.3 -0.0306484
8.31 -0.0298386
8.32 -0.0295194
8.33 -0.0296497
8.34 -0.0301447
8.35 -0.0309326
8.36 -0.0319278
8.37 -0.0330341
8.38 -0.0341475
8.39 -0.0351365
8.4 -0.0358924
8.41 -0.0363127
8.42 -0.0363024
8.43 -0.0357789
8.44 -0.0346752
8.45 -0.0329127
8.46 -0.0304457
8.47 -0.0273207
8.48 -0.023562
8.49 -0.0192171
8.5 -0.0143555
8.51 -0.00906677
8.52 -0.00343914
8.53 0.00236436
8.54 0.00820338
8.55 0.0139383
8.56 0.0194289
8.57 0.0245391
8.58 0.0291195
8.59 0.0330115
8.6 0.036166
8.61 0.038511
8.62 0.0399972
8.63 0.0406002
8.64 0.0403206
8.65 0.039114
8.66 0.0370894
8.67 0.0343495
8.68 0.0309895
8.69 0.0271195
8.7 0.0228598
8.71 0.0183339
8.72 0.013676
8.73 0.00903091
8.74 0.0045114
8.75 0.000216807
8.76 -0.00377061
8.77 -0.00738853
8.78 -0.0105643
8.79 -0.0132975
8.8 -0.0156189
8.81 -0.0175653
8.82 -0.019195
8.83 -0.0205849
8.84 -0.0218276
8.85 -0.023038
8.86 -0.0243433
8.87 -0.0258591
8.88 -0.0276983
8.89 -0.0299661
8.9 -0.0327565
8.91 -0.036191
8.92 -0.0403272
8.93 -0.0451658
8.94 -0.0507161
8.95 -0.0569639
8.96 -0.0638717
8.97 -0.0713803
8.98 -0.0794587
8.99 -0.0879376
9 -0.0967035
9.01 -0.105634
9.02 -0.114603
9.03 -0.123484
9.04 -0.132139
9.05 -0.140436
9.06 -0.148295
9.07 -0.155638
9.08 -0.162407
9.09 -0.168563
9.1 -0.174093
9.11 -0.178938
9.12 -0.183195
9.13 -0.186921
9.14 -0.190185
9.15 -0.193068
9.16 -0.19566
9.17 -0.198053
9.18 -0.200352
9.19 -0.202661
9.2 -0.205061
9.21 -0.207622
9.22 -0.210395
9.23 -0.213415
9.24 -0.216723
9.25 -0.220288
9.26 -0.224071
9.27 -0.22802
9.28 -0.232064
9.29 -0.236117
9.3 -0.240073
9.31 -0.2438
9.32 -0.247193
9.33 -0.250141
9.34 -0.252537
9.35 -0.254283
9.36 -0.255294
9.37 -0.255428
9.38 -0.254673
9.39 -0.253032
9.4 -0.250501
9.41 -0.2471
9.42 -0.242868
9.43 -0.23785
9.44 -0.232082
9.45 -0.225729
9.46 -0.218894
9.47 -0.211686
9.48 -0.204212
9.49 -0.196579
9.5 -0.188888
9.51 -0.181238
9.52 -0.1737
9.53 -0.166324
9.54 -0.159142
9.55 -0.152164
9.56 -0.14538
9.57 -0.138767
9.58 -0.13225
9.59 -0.125755
9.6 -0.119195
9.61 -0.112473
9.62 -0.105485
9.63 -0.0980946
9.64 -0.0901855
9.65 -0.0816822
9.66 -0.072499
9.67 -0.0625645
9.68 -0.0518242
9.69 -0.0402431
9.7 -0.0277092
9.71 -0.0143326
9.72 -0.000150363
9.73 0.0147813
9.74 0.0303869
9.75 0.0465739
9.76 0.0632538
9.77 0.0802949
9.78 0.097541
9.79 0.114863
9.8 0.132133
9.81 0.149228
9.82 0.166031
9.83 0.182388
9.84 0.198234
9.85 0.213504
9.86 0.228139
9.87 0.242099
9.88 0.25536
9.89 0.267884
9.9 0.279652
9.91 0.290738
9.92 0.301168
9.93 0.310978
9.94 0.320204
9.95 0.328882
9.96 0.337005
9.97 0.344643
9.98 0.351829
9.99 0.358579
10 0.3649
10.01 0.370789
10.02 0.376219
10.03 0.381139
10.04 0.385559
10.05 0.389444
10.06 0.392757
10.07 0.395461
10.08 0.397519
10.09 0.398843
10.1 0.399438
10.11 0.399315
10.12 0.398472
10.13 0.39692
10.14 0.394684
10.15 0.391792
10.16 0.388255
10.17 0.384205
10.18 0.379721
10.19 0.374889
10.2 0.369806
10.21 0.364569
10.22 0.359283
10.23 0.354061
10.24 0.348995
10.25 0.344168
10.26 0.339654
10.27 0.335511
10.28 0.331786
10.29 0.328553
10.3 0.325771
10.31 0.323429
10.32 0.321497
10.33 0.319932
10.34 0.318674
10.35 0.31766
10.36 0.316796
10.37 0.315978
10.38 0.315112
10.39 0.314102
10.4 0.312856
10.41 0.311284
10.42 0.30925
10.43 0.306719
10.44 0.303633
10.45 0.299944
10.46 0.295617
10.47 0.290628
10.48 0.284933
10.49 0.278523
10.5 0.271458
10.51 0.263759
10.52 0.255457
10.53 0.246587
10.54 0.237186
10.55 0.227249
10.56 0.216862
10.57 0.206068
10.58 0.194903
10.59 0.183395
10.6 0.171569
10.61 0.159437
10.62 0.147002
10.63 0.134299
10.64 0.121334
10.65 0.108111
10.66 0.0946358
10.67 0.0809101
10.68 0.0669177
10.69 0.0526832
10.7 0.0382251
10.71 0.0235602
10.72 0.00871032
10.73 -0.00629713
10.74 -0.0214316
10.75 -0.0366551
10.76 -0.0519134
10.77 -0.06716
10.78 -0.0823463
10.79 -0.0974229
10.8 -0.112342
10.81 -0.127037
10.82 -0.141471
10.83 -0.155616
10.84 -0.169446
10.85 -0.182938
10.86 -0.196083
10.87 -0.208871
10.88 -0.221282
10.89 -0.233366
10.9 -0.245146
10.91 -0.256654
10.92 -0.267921
10.93 -0.278985
10.94 -0.289874
10.95 -0.300631
10.96 -0.311296
10.97 -0.321896
10.98 -0.332447
10.99 -0.34296
11 -0.353435
11.01 -0.363852
11.02 -0.37419
11.03 -0.384414
11.04 -0.394476
11.05 -0.404322
11.06 -0.413888
11.07 -0.423079
11.08 -0.431809
11.09 -0.440024
11.1 -0.447649
11.11 -0.454611
11.12 -0.460846
11.13 -0.466293
11.14 -0.470808
11.15 -0.474436
11.16 -0.47716
11.17 -0.478967
11.18 -0.47986
11.19 -0.47985
11.2 -0.478924
11.21 -0.477101
11.22 -0.474488
11.23 -0.471134
11.24 -0.467095
11.25 -0.462425
11.26 -0.457179
11.27 -0.451363
11.28 -0.44507
11.29 -0.438349
11.3 -0.431231
11.31 -0.423736
11.32 -0.415876
11.33 -0.407642
11.34 -0.399007
11.35 -0.389983
11.36 -0.380547
11.37 -0.370671
11.38 -0.360321
11.39 -0.349467
11.4 -0.338026
11.41 -0.326
11.42 -0.313385
11.43 -0.300168
11.44 -0.286345
11.45 -0.271926
11.46 -0.256916
11.47 -0.241315
11.48 -0.225223
11.49 -0.208697
11.5 -0.191806
11.51 -0.174625
11.52 -0.157238
11.53 -0.139731
11.54 -0.12221
11.55 -0.104771
11.56 -0.0875013
11.57 -0.0704826
11.58 -0.0537906
11.59 -0.0374979
11.6 -0.0217075
11.61 -0.00641914
11.62 0.00833708
11.63 0.022543
11.64 0.0361921
11.65 0.0492885
11.66 0.0618116
11.67 0.0737957
11.68 0.0852975
11.69 0.0963499
11.7 0.106988
11.71 0.117245
11.72 0.127153
11.73 0.136706
11.74 0.145964
11.75 0.15494
11.76 0.16364
11.77 0.172061
11.78 0.180191
11.79 0.187993
11.8 0.195435
11.81 0.202503
11.82 0.20916
11.83 0.215366
11.84 0.221083
11.85 0.226272
11.86 0.230833
11.87 0.234788
11.88 0.23812
11.89 0.240812
11.9 0.242857
11.91 0.244254
11.92 0.244985
11.93 0.24505
11.94 0.244519
11.95 0.243421
11.96 0.24179
11.97 0.239658
11.98 0.23706
11.99 0.233986
12 0.230501
12.01 0.226631
12.02 0.222387
12.03 0.217773
12.04 0.212779
12.05 0.207373
12.06 0.201501
12.07 0.195156
12.08 0.18829
12.09 0.180847
12.1 0.17277
12.11 0.163997
12.12 0.154397
12.13 0.143951
12.14 0.132632
12.15 0.120404
12.16 0.107239
