# xPDFsuite Configuration #
[PDF]
wavelength = 0.1
dataformat = QA
inputfile = BiMsol6_insitu_700 C-00447.xy
backgroundfile = Quartz2mm-dist500-00000.xy
mode = xray
bgscale = 0.0042
composition = Bi2Fe4O9
outputtype = gr
qmaxinst = 24.998449118
qmin = 0.1
qmax = 21.4986662415
rmax = 80.0
rmin = 0.0
rstep = 0.01
rpoly = 0.9

[Misc]
inputdir = C:/Data/Seafile/CPH/Beamtime/Desy Oct 20/In situ data/Processed/BiMsol6/PDF
savedir = C:/Data/Seafile/CPH/Beamtime/Desy Oct 20/In situ data/PDF/BiMsol6
backgroundfilefull = C:/Data/Seafile/CPH/Beamtime/Desy Oct 20/In situ data/Processed/Standard_Empty_Cap/Quartz2mm-dist500-00000.xy

#### start data
#S 1
#L r($\AA$)  G($\AA^{-2}$)
0 0
0.01 0.00602184
0.02 0.0116996
0.03 0.0167388
0.04 0.0208755
0.05 0.0238884
0.06 0.0256094
0.07 0.0258548
0.08 0.0245726
0.09 0.0219007
0.1 0.0179532
0.11 0.0129061
0.12 0.0069894
0.13 0.000477153
0.14 -0.00632142
0.15 -0.0130218
0.16 -0.019299
0.17 -0.0248489
0.18 -0.0293999
0.19 -0.0327261
0.2 -0.0345963
0.21 -0.0348557
0.22 -0.033604
0.23 -0.0309106
0.24 -0.0269203
0.25 -0.0218477
0.26 -0.0159698
0.27 -0.00960439
0.28 -0.00319744
0.29 0.00285363
0.3 0.00816345
0.31 0.0123672
0.32 0.0151387
0.33 0.0161486
0.34 0.0150766
0.35 0.0119847
0.36 0.00688049
0.37 -0.000126933
0.38 -0.0088257
0.39 -0.0189043
0.4 -0.0299988
0.41 -0.0415004
0.42 -0.052813
0.43 -0.0633299
0.44 -0.0724251
0.45 -0.0794763
0.46 -0.0838256
0.47 -0.0846239
0.48 -0.081698
0.49 -0.0747103
0.5 -0.0634437
0.51 -0.0478156
0.52 -0.0278872
0.53 -0.00359885
0.54 0.0244993
0.55 0.0556867
0.56 0.0892943
0.57 0.124542
0.58 0.160558
0.59 0.196395
0.6 0.230842
0.61 0.262957
0.62 0.291791
0.63 0.316451
0.64 0.336139
0.65 0.350169
0.66 0.357584
0.67 0.358
0.68 0.351594
0.69 0.338375
0.7 0.318534
0.71 0.292439
0.72 0.260622
0.73 0.223287
0.74 0.181913
0.75 0.137458
0.76 0.0909391
0.77 0.0434097
0.78 -0.00406685
0.79 -0.0503434
0.8 -0.094265
0.81 -0.135041
0.82 -0.171912
0.83 -0.204253
0.84 -0.23159
0.85 -0.253609
0.86 -0.269597
0.87 -0.280097
0.88 -0.285404
0.89 -0.28588
0.9 -0.282018
0.91 -0.274417
0.92 -0.263672
0.93 -0.250546
0.94 -0.236045
0.95 -0.220942
0.96 -0.205984
0.97 -0.191862
0.98 -0.179196
0.99 -0.168737
1 -0.160801
1.01 -0.155612
1.02 -0.153324
1.03 -0.153969
1.04 -0.157466
1.05 -0.163695
1.06 -0.172471
1.07 -0.183185
1.08 -0.195406
1.09 -0.20867
1.1 -0.222499
1.11 -0.236418
1.12 -0.249914
1.13 -0.262549
1.14 -0.274003
1.15 -0.284009
1.16 -0.292377
1.17 -0.298997
1.18 -0.303811
1.19 -0.306741
1.2 -0.308101
1.21 -0.308089
1.22 -0.306949
1.23 -0.304955
1.24 -0.302402
1.25 -0.29959
1.26 -0.296848
1.27 -0.294437
1.28 -0.292567
1.29 -0.291401
1.3 -0.291042
1.31 -0.29154
1.32 -0.292958
1.33 -0.295108
1.34 -0.297847
1.35 -0.300986
1.36 -0.304304
1.37 -0.307554
1.38 -0.310449
1.39 -0.3127
1.4 -0.314101
1.41 -0.314458
1.42 -0.313618
1.43 -0.311483
1.44 -0.30801
1.45 -0.303083
1.46 -0.296948
1.47 -0.289772
1.48 -0.281771
1.49 -0.27321
1.5 -0.264387
1.51 -0.255647
1.52 -0.247383
1.53 -0.239917
1.54 -0.233556
1.55 -0.228571
1.56 -0.225189
1.57 -0.223575
1.58 -0.224021
1.59 -0.226384
1.6 -0.230562
1.61 -0.236411
1.62 -0.243711
1.63 -0.252179
1.64 -0.261491
1.65 -0.271224
1.66 -0.280895
1.67 -0.290073
1.68 -0.298331
1.69 -0.305261
1.7 -0.310493
1.71 -0.313501
1.72 -0.314132
1.73 -0.312278
1.74 -0.307856
1.75 -0.300866
1.76 -0.291395
1.77 -0.27956
1.78 -0.265513
1.79 -0.249793
1.8 -0.232786
1.81 -0.214914
1.82 -0.196625
1.83 -0.178375
1.84 -0.160684
1.85 -0.144003
1.86 -0.128681
1.87 -0.115031
1.88 -0.103295
1.89 -0.0936448
1.9 -0.0861999
1.91 -0.081148
1.92 -0.0781678
1.93 -0.0770862
1.94 -0.077663
1.95 -0.0796014
1.96 -0.0825604
1.97 -0.0861857
1.98 -0.0900237
1.99 -0.0936653
2 -0.0967524
2.01 -0.0989637
2.02 -0.100028
2.03 -0.0997278
2.04 -0.0977506
2.05 -0.0942113
2.06 -0.0891458
2.07 -0.0826677
2.08 -0.0749653
2.09 -0.0662936
2.1 -0.05695
2.11 -0.0473542
2.12 -0.0379404
2.13 -0.0291195
2.14 -0.0212995
2.15 -0.0148706
2.16 -0.0101898
2.17 -0.00782117
2.18 -0.00781794
2.19 -0.0103267
2.2 -0.0154321
2.21 -0.0231379
2.22 -0.033366
2.23 -0.0460552
2.24 -0.0609846
2.25 -0.0776718
2.26 -0.095749
2.27 -0.114808
2.28 -0.134416
2.29 -0.154125
2.3 -0.17342
2.31 -0.191863
2.32 -0.209082
2.33 -0.224749
2.34 -0.238592
2.35 -0.250411
2.36 -0.259996
2.37 -0.267192
2.38 -0.27222
2.39 -0.275194
2.4 -0.276294
2.41 -0.275757
2.42 -0.27387
2.43 -0.270896
2.44 -0.267284
2.45 -0.263421
2.46 -0.259656
2.47 -0.256318
2.48 -0.253707
2.49 -0.25211
2.5 -0.251839
2.51 -0.252932
2.52 -0.255467
2.53 -0.259455
2.54 -0.26485
2.55 -0.271547
2.56 -0.279462
2.57 -0.28832
2.58 -0.297832
2.59 -0.30773
2.6 -0.317736
2.61 -0.327571
2.62 -0.336956
2.63 -0.345546
2.64 -0.35318
2.65 -0.35968
2.66 -0.364911
2.67 -0.368785
2.68 -0.371259
2.69 -0.372251
2.7 -0.371846
2.71 -0.370216
2.72 -0.367497
2.73 -0.363851
2.74 -0.359458
2.75 -0.35451
2.76 -0.349182
2.77 -0.343717
2.78 -0.338286
2.79 -0.333036
2.8 -0.328085
2.81 -0.323522
2.82 -0.319425
2.83 -0.315813
2.84 -0.312633
2.85 -0.309827
2.86 -0.307307
2.87 -0.304966
2.88 -0.302675
2.89 -0.300269
2.9 -0.297598
2.91 -0.294522
2.92 -0.290909
2.93 -0.286643
2.94 -0.281626
2.95 -0.275746
2.96 -0.268928
2.97 -0.26122
2.98 -0.252635
2.99 -0.243214
3 -0.233019
3.01 -0.22213
3.02 -0.210594
3.03 -0.198572
3.04 -0.186184
3.05 -0.173531
3.06 -0.160708
3.07 -0.147793
3.08 -0.134847
3.09 -0.121914
3.1 -0.109003
3.11 -0.0961005
3.12 -0.0831666
3.13 -0.0701406
3.14 -0.0569428
3.15 -0.0434469
3.16 -0.0295482
3.17 -0.0151467
3.18 -0.000136975
3.19 0.0155767
3.2 0.0320744
3.21 0.0494337
3.22 0.0677537
3.23 0.0869462
3.24 0.106971
3.25 0.127753
3.26 0.149183
3.27 0.171115
3.28 0.193384
3.29 0.215745
3.3 0.237954
3.31 0.259768
3.32 0.280935
3.33 0.301201
3.34 0.320311
3.35 0.337872
3.36 0.353812
3.37 0.367961
3.38 0.380181
3.39 0.390376
3.4 0.398492
3.41 0.404389
3.42 0.40813
3.43 0.409916
3.44 0.409875
3.45 0.408168
3.46 0.404989
3.47 0.400552
3.48 0.395001
3.49 0.38872
3.5 0.381958
3.51 0.374953
3.52 0.367931
3.53 0.361102
3.54 0.354677
3.55 0.348839
3.56 0.343676
3.57 0.339272
3.58 0.335675
3.59 0.332901
3.6 0.330937
3.61 0.329814
3.62 0.329386
3.63 0.329555
3.64 0.330219
3.65 0.331272
3.66 0.332605
3.67 0.334115
3.68 0.335696
3.69 0.337256
3.7 0.338734
3.71 0.340086
3.72 0.341291
3.73 0.342349
3.74 0.343272
3.75 0.344118
3.76 0.344953
3.77 0.345852
3.78 0.346902
3.79 0.348192
3.8 0.34983
3.81 0.351941
3.82 0.354573
3.83 0.357794
3.84 0.361656
3.85 0.366191
3.86 0.371411
3.87 0.377361
3.88 0.383966
3.89 0.391143
3.9 0.39881
3.91 0.406865
3.92 0.415191
3.93 0.423656
3.94 0.4321
3.95 0.440363
3.96 0.448294
3.97 0.455744
3.98 0.462572
3.99 0.468644
4 0.473767
4.01 0.477846
4.02 0.480834
4.03 0.482665
4.04 0.483288
4.05 0.482674
4.06 0.480799
4.07 0.477544
4.08 0.473069
4.09 0.467411
4.1 0.460619
4.11 0.45275
4.12 0.443868
4.13 0.433988
4.14 0.423196
4.15 0.411616
4.16 0.399317
4.17 0.386366
4.18 0.372826
4.19 0.358752
4.2 0.344151
4.21 0.329124
4.22 0.313715
4.23 0.297959
4.24 0.281889
4.25 0.265534
4.26 0.248906
4.27 0.23203
4.28 0.214944
4.29 0.197669
4.3 0.180225
4.31 0.162634
4.32 0.144915
4.33 0.127082
4.34 0.109166
4.35 0.0911911
4.36 0.0731769
4.37 0.0551439
4.38 0.0371115
4.39 0.0190995
4.4 0.00112879
4.41 -0.0167869
4.42 -0.0346331
4.43 -0.0523966
4.44 -0.070065
4.45 -0.0876259
4.46 -0.105055
4.47 -0.122346
4.48 -0.139486
4.49 -0.15646
4.5 -0.173248
4.51 -0.189828
4.52 -0.206166
4.53 -0.222212
4.54 -0.237953
4.55 -0.25335
4.56 -0.268364
4.57 -0.282948
4.58 -0.297058
4.59 -0.3106
4.6 -0.323545
4.61 -0.335865
4.62 -0.34752
4.63 -0.35847
4.64 -0.368684
4.65 -0.378121
4.66 -0.386697
4.67 -0.394479
4.68 -0.401471
4.69 -0.407682
4.7 -0.413132
4.71 -0.417853
4.72 -0.421837
4.73 -0.425153
4.74 -0.42789
4.75 -0.430107
4.76 -0.43187
4.77 -0.433245
4.78 -0.434299
4.79 -0.435079
4.8 -0.435684
4.81 -0.436174
4.82 -0.436605
4.83 -0.437024
4.84 -0.437473
4.85 -0.437993
4.86 -0.438613
4.87 -0.439346
4.88 -0.440199
4.89 -0.441175
4.9 -0.44227
4.91 -0.443471
4.92 -0.444773
4.93 -0.446141
4.94 -0.447553
4.95 -0.44898
4.96 -0.450395
4.97 -0.451769
4.98 -0.453067
4.99 -0.454253
5 -0.4553
5.01 -0.456178
5.02 -0.456856
5.03 -0.457303
5.04 -0.457485
5.05 -0.457335
5.06 -0.456836
5.07 -0.455957
5.08 -0.454655
5.09 -0.452887
5.1 -0.450608
5.11 -0.447749
5.12 -0.444227
5.13 -0.440037
5.14 -0.435131
5.15 -0.42946
5.16 -0.422981
5.17 -0.41565
5.18 -0.407352
5.19 -0.398107
5.2 -0.387921
5.21 -0.376784
5.22 -0.364696
5.23 -0.351666
5.24 -0.337692
5.25 -0.322754
5.26 -0.306979
5.27 -0.290423
5.28 -0.273152
5.29 -0.255235
5.3 -0.236751
5.31 -0.217753
5.32 -0.198356
5.33 -0.178665
5.34 -0.158765
5.35 -0.138739
5.36 -0.118663
5.37 -0.0986119
5.38 -0.0786645
5.39 -0.0588727
5.4 -0.0392835
5.41 -0.0199364
5.42 -0.000863508
5.43 0.0179097
5.44 0.0363408
5.45 0.0544166
5.46 0.0721404
5.47 0.0894988
5.48 0.106477
5.49 0.123058
5.5 0.139217
5.51 0.154871
5.52 0.170031
5.53 0.184651
5.54 0.198677
5.55 0.212047
5.56 0.224692
5.57 0.236489
5.58 0.247341
5.59 0.257216
5.6 0.266032
5.61 0.273712
5.62 0.280183
5.63 0.285381
5.64 0.289104
5.65 0.291443
5.66 0.292389
5.67 0.291939
5.68 0.290108
5.69 0.286929
5.7 0.282402
5.71 0.276575
5.72 0.269635
5.73 0.261689
5.74 0.252856
5.75 0.243266
5.76 0.233055
5.77 0.222329
5.78 0.211281
5.79 0.200052
5.8 0.188771
5.81 0.177552
5.82 0.166499
5.83 0.15571
5.84 0.145281
5.85 0.135238
5.86 0.125611
5.87 0.116415
5.88 0.107645
5.89 0.0992874
5.9 0.0913407
5.91 0.08374
5.92 0.0764275
5.93 0.0693548
5.94 0.0624744
5.95 0.0557429
5.96 0.0491256
5.97 0.0426001
5.98 0.036145
5.99 0.029763
6 0.0234716
6.01 0.0173036
6.02 0.0113063
6.03 0.0055639
6.04 0.000154038
6.05 -0.0048481
6.06 -0.00935089
6.07 -0.0132597
6.08 -0.0164801
6.09 -0.0189123
6.1 -0.020382
6.11 -0.0209055
6.12 -0.020429
6.13 -0.0189165
6.14 -0.0163516
6.15 -0.0127389
6.16 -0.00804329
6.17 -0.00233571
6.18 0.00425314
6.19 0.0116265
6.2 0.0196696
6.21 0.0282523
6.22 0.037232
6.23 0.0464676
6.24 0.0557588
6.25 0.0649485
6.26 0.0738832
6.27 0.0824172
6.28 0.0904163
6.29 0.0977199
6.3 0.104204
6.31 0.109834
6.32 0.114554
6.33 0.11833
6.34 0.121149
6.35 0.123023
6.36 0.12389
6.37 0.123896
6.38 0.123122
6.39 0.121654
6.4 0.119588
6.41 0.117028
6.42 0.114073
6.43 0.110839
6.44 0.107462
6.45 0.104047
6.46 0.10069
6.47 0.0974798
6.48 0.0944929
6.49 0.0918274
6.5 0.0895192
6.51 0.0875983
6.52 0.0860889
6.53 0.0850034
6.54 0.0843433
6.55 0.0841123
6.56 0.084313
6.57 0.0848841
6.58 0.0857955
6.59 0.0870138
6.6 0.0885035
6.61 0.0902288
6.62 0.0921678
6.63 0.0942726
6.64 0.0965058
6.65 0.098839
6.66 0.101247
6.67 0.103708
6.68 0.106204
6.69 0.108716
6.7 0.11123
6.71 0.113733
6.72 0.116215
6.73 0.118666
6.74 0.121077
6.75 0.123434
6.76 0.125727
6.77 0.127949
6.78 0.130089
6.79 0.132137
6.8 0.134082
6.81 0.135912
6.82 0.137603
6.83 0.13916
6.84 0.140574
6.85 0.14184
6.86 0.142954
6.87 0.143912
6.88 0.144707
6.89 0.145341
6.9 0.145827
6.91 0.14617
6.92 0.146377
6.93 0.146455
6.94 0.14641
6.95 0.146234
6.96 0.145946
6.97 0.145547
6.98 0.145035
6.99 0.144408
7 0.143657
7.01 0.142763
7.02 0.141708
7.03 0.140483
7.04 0.139066
7.05 0.137436
7.06 0.13557
7.07 0.133445
7.08 0.131008
7.09 0.128262
7.1 0.125197
7.11 0.121801
7.12 0.11807
7.13 0.114006
7.14 0.109603
7.15 0.104869
7.16 0.0998533
7.17 0.0945879
7.18 0.0891107
7.19 0.0834657
7.2 0.0777013
7.21 0.0718678
7.22 0.0660299
7.23 0.0602426
7.24 0.0545574
7.25 0.0490218
7.26 0.0436784
7.27 0.0385696
7.28 0.0337403
7.29 0.0291844
7.3 0.0249057
7.31 0.020897
7.32 0.0171399
7.33 0.0136047
7.34 0.0102616
7.35 0.00704453
7.36 0.00388646
7.37 0.000720418
7.38 -0.00252536
7.39 -0.0059254
7.4 -0.00956018
7.41 -0.0135377
7.42 -0.0179023
7.43 -0.0227169
7.44 -0.028036
7.45 -0.033905
7.46 -0.0403581
7.47 -0.0474606
7.48 -0.0552072
7.49 -0.063562
7.5 -0.0725043
7.51 -0.0820009
7.52 -0.092006
7.53 -0.102465
7.54 -0.113343
7.55 -0.124514
7.56 -0.135893
7.57 -0.14739
7.58 -0.158915
7.59 -0.170372
7.6 -0.181652
7.61 -0.19265
7.62 -0.203287
7.63 -0.21348
7.64 -0.223151
7.65 -0.232229
7.66 -0.240649
7.67 -0.24827
7.68 -0.255117
7.69 -0.261155
7.7 -0.266355
7.71 -0.270697
7.72 -0.274167
7.73 -0.276718
7.74 -0.278335
7.75 -0.279092
7.76 -0.279007
7.77 -0.278105
7.78 -0.27642
7.79 -0.273989
7.8 -0.27079
7.81 -0.266941
7.82 -0.262507
7.83 -0.257551
7.84 -0.252137
7.85 -0.246334
7.86 -0.240206
7.87 -0.233827
7.88 -0.227297
7.89 -0.220693
7.9 -0.214089
7.91 -0.207558
7.92 -0.201172
7.93 -0.195022
7.94 -0.189161
7.95 -0.183636
7.96 -0.178494
7.97 -0.173772
7.98 -0.169499
7.99 -0.165705
8 -0.162433
8.01 -0.159638
8.02 -0.15731
8.03 -0.155428
8.04 -0.153967
8.05 -0.152894
8.06 -0.152194
8.07 -0.151805
8.08 -0.151667
8.09 -0.151736
8.1 -0.151966
8.11 -0.152312
8.12 -0.152737
8.13 -0.153202
8.14 -0.153673
8.15 -0.154124
8.16 -0.154538
8.17 -0.154903
8.18 -0.15521
8.19 -0.155454
8.2 -0.155637
8.21 -0.155765
8.22 -0.155842
8.23 -0.155873
8.24 -0.155857
8.25 -0.155792
8.26 -0.155662
8.27 -0.155457
8.28 -0.155155
8.29 -0.154723
8.3 -0.154123
8.31 -0.153307
8.32 -0.152201
8.33 -0.150734
8.34 -0.148854
8.35 -0.14649
8.36 -0.143571
8.37 -0.140024
8.38 -0.135782
8.39 -0.130692
8.4 -0.124772
8.41 -0.117985
8.42 -0.110299
8.43 -0.101697
8.44 -0.0921764
8.45 -0.0817086
8.46 -0.0703046
8.47 -0.0580762
8.48 -0.0450848
8.49 -0.0314044
8.5 -0.0171203
8.51 -0.00232707
8.52 0.0129038
8.53 0.0284226
8.54 0.0441157
8.55 0.059879
8.56 0.0756136
8.57 0.0912279
8.58 0.106631
8.59 0.12173
8.6 0.136491
8.61 0.150873
8.62 0.164851
8.63 0.178414
8.64 0.191563
8.65 0.204278
8.66 0.216611
8.67 0.228605
8.68 0.240299
8.69 0.251731
8.7 0.262939
8.71 0.273954
8.72 0.284794
8.73 0.295492
8.74 0.306052
8.75 0.316465
8.76 0.326708
8.77 0.336741
8.78 0.346487
8.79 0.355876
8.8 0.364836
8.81 0.373272
8.82 0.38108
8.83 0.388152
8.84 0.394364
8.85 0.399501
8.86 0.403547
8.87 0.4064
8.88 0.407969
8.89 0.408176
8.9 0.406957
8.91 0.404165
8.92 0.399786
8.93 0.393892
8.94 0.386493
8.95 0.377618
8.96 0.367311
8.97 0.355633
8.98 0.342518
8.99 0.32821
9 0.312807
9.01 0.296407
9.02 0.279115
9.03 0.261035
9.04 0.242236
9.05 0.222825
9.06 0.202934
9.07 0.182646
9.08 0.162036
9.09 0.14117
9.1 0.120107
9.11 0.0988867
9.12 0.0775727
9.13 0.0562046
9.14 0.0348185
9.15 0.0134491
9.16 -0.0078679
9.17 -0.0290886
9.18 -0.0501596
9.19 -0.071038
9.2 -0.091667
9.21 -0.111981
9.22 -0.131909
9.23 -0.151367
9.24 -0.170207
9.25 -0.188361
9.26 -0.205743
9.27 -0.222248
9.28 -0.237772
9.29 -0.252214
9.3 -0.265435
9.31 -0.277264
9.32 -0.287725
9.33 -0.296748
9.34 -0.304282
9.35 -0.310286
9.36 -0.314736
9.37 -0.317495
9.38 -0.318658
9.39 -0.318306
9.4 -0.316482
9.41 -0.313245
9.42 -0.308665
9.43 -0.302795
9.44 -0.295644
9.45 -0.287421
9.46 -0.278219
9.47 -0.268127
9.48 -0.257231
9.49 -0.24561
9.5 -0.233295
9.51 -0.220376
9.52 -0.20693
9.53 -0.193
9.54 -0.178616
9.55 -0.163801
9.56 -0.148563
9.57 -0.132872
9.58 -0.116773
9.59 -0.100267
9.6 -0.0833553
9.61 -0.0660401
9.62 -0.0483299
9.63 -0.0302173
9.64 -0.0117341
9.65 0.0070629
9.66 0.0261264
9.67 0.0453976
9.68 0.0648064
9.69 0.084272
9.7 0.103689
9.71 0.122951
9.72 0.141954
9.73 0.160587
9.74 0.178741
9.75 0.196308
9.76 0.213144
9.77 0.229129
9.78 0.244226
9.79 0.258364
9.8 0.271486
9.81 0.283551
9.82 0.294534
9.83 0.304311
9.84 0.312993
9.85 0.32062
9.86 0.327231
9.87 0.332876
9.88 0.337615
9.89 0.341483
9.9 0.344534
9.91 0.346904
9.92 0.34866
9.93 0.34987
9.94 0.35059
9.95 0.35087
9.96 0.350713
9.97 0.350177
9.98 0.349282
9.99 0.348028
10 0.346403
10.01 0.344385
10.02 0.341931
10.03 0.338971
10.04 0.335498
10.05 0.33147
10.06 0.326844
10.07 0.32158
10.08 0.315647
10.09 0.308963
10.1 0.301547
10.11 0.293428
10.12 0.284623
10.13 0.275163
10.14 0.265093
10.15 0.254466
10.16 0.243327
10.17 0.231817
10.18 0.220032
10.19 0.208077
10.2 0.19606
10.21 0.184091
10.22 0.172296
10.23 0.160792
10.24 0.149666
10.25 0.139003
10.26 0.128878
10.27 0.119352
10.28 0.110473
10.29 0.102344
10.3 0.0949011
10.31 0.0881371
10.32 0.0820298
10.33 0.0765424
10.34 0.0716256
10.35 0.0672451
10.36 0.0633181
10.37 0.0597382
10.38 0.056424
10.39 0.0532925
10.4 0.050261
10.41 0.0472497
10.42 0.044169
10.43 0.0409498
10.44 0.0375323
10.45 0.0338644
10.46 0.0299029
10.47 0.0256133
10.48 0.0209517
10.49 0.0158917
10.5 0.0104495
10.51 0.00462325
10.52 -0.00158375
10.53 -0.00816404
10.54 -0.0151072
10.55 -0.0224349
10.56 -0.030102
10.57 -0.0380898
10.58 -0.0463852
10.59 -0.0549766
10.6 -0.0638535
10.61 -0.0730165
10.62 -0.0824672
10.63 -0.0921764
10.64 -0.102136
10.65 -0.112338
10.66 -0.122772
10.67 -0.133426
10.68 -0.144302
10.69 -0.155365
10.7 -0.166588
10.71 -0.177942
10.72 -0.189396
10.73 -0.200915
10.74 -0.21246
10.75 -0.223981
10.76 -0.235434
10.77 -0.246773
10.78 -0.257954
10.79 -0.268934
10.8 -0.279672
10.81 -0.290109
10.82 -0.300223
10.83 -0.310001
10.84 -0.319428
10.85 -0.328496
10.86 -0.337207
10.87 -0.345563
10.88 -0.353554
10.89 -0.361242
10.9 -0.368656
10.91 -0.375832
10.92 -0.382809
10.93 -0.389626
10.94 -0.396317
10.95 -0.402927
10.96 -0.409493
10.97 -0.416041
10.98 -0.422589
10.99 -0.429147
11 -0.435714
11.01 -0.442275
11.02 -0.448803
11.03 -0.455261
11.04 -0.461601
11.05 -0.467766
11.06 -0.473689
11.07 -0.479274
11.08 -0.484428
11.09 -0.489087
11.1 -0.493169
11.11 -0.49659
11.12 -0.499274
11.13 -0.501147
11.14 -0.502043
11.15 -0.501995
11.16 -0.500969
11.17 -0.498938
11.18 -0.495889
11.19 -0.491822
11.2 -0.486707
11.21 -0.480552
11.22 -0.473473
11.23 -0.465523
11.24 -0.456764
11.25 -0.447268
11.26 -0.43711
11.27 -0.426318
11.28 -0.415028
11.29 -0.403327
11.3 -0.391288
11.31 -0.378979
11.32 -0.366457
11.33 -0.353769
11.34 -0.340952
11.35 -0.328046
11.36 -0.315064
11.37 -0.302011
11.38 -0.288878
11.39 -0.27565
11.4 -0.262288
11.41 -0.248762
11.42 -0.235036
11.43 -0.221069
11.44 -0.206819
11.45 -0.192243
11.46 -0.177294
11.47 -0.161905
11.48 -0.146084
11.49 -0.129814
11.5 -0.113085
11.51 -0.0958963
11.52 -0.0782588
11.53 -0.0601617
11.54 -0.041657
11.55 -0.0228035
11.56 -0.00365119
11.57 0.0157429
11.58 0.0353162
11.59 0.0550022
11.6 0.0747267
11.61 0.0944092
11.62 0.113981
11.63 0.133375
11.64 0.152529
11.65 0.171386
11.66 0.18987
11.67 0.207937
11.68 0.22557
11.69 0.242744
11.7 0.259439
11.71 0.275644
11.72 0.291351
11.73 0.306506
11.74 0.321171
11.75 0.335354
11.76 0.349066
11.77 0.362315
11.78 0.37511
11.79 0.387434
11.8 0.399283
11.81 0.410683
11.82 0.421622
11.83 0.432084
11.84 0.442045
11.85 0.451476
11.86 0.460272
11.87 0.468441
11.88 0.475937
11.89 0.482706
11.9 0.488689
11.91 0.493825
11.92 0.498012
11.93 0.501152
11.94 0.503254
11.95 0.504267
11.96 0.504142
11.97 0.502838
11.98 0.500322
11.99 0.496448
12 0.491295
12.01 0.484885
12.02 0.477225
12.03 0.46833
12.04 0.458228
12.05 0.446915
12.06 0.434384
12.07 0.420784
12.08 0.406174
12.09 0.390617
12.1 0.374179
12.11 0.35693
12.12 0.338883
12.13 0.32016
12.14 0.300855
12.15 0.281038
12.16 0.260777
12.17 0.240138
12.18 0.219181
12.19 0.197957
12.2 0.176555
12.21 0.155032
12.22 0.133446
