# xPDFsuite Configuration #
[PDF]
wavelength = 0.1
dataformat = QA
inputfile = BiMsol6_insitu_700 C-00036.xy
backgroundfile = Quartz2mm-dist500-00000.xy
mode = xray
bgscale = 0.0042
composition = Bi2Fe4O9
outputtype = gr
qmaxinst = 24.998449118
qmin = 0.1
qmax = 21.4986662415
rmax = 80.0
rmin = 0.0
rstep = 0.01
rpoly = 0.9

[Misc]
inputdir = C:/Data/Seafile/CPH/Beamtime/Desy Oct 20/In situ data/Processed/BiMsol6/PDF
savedir = C:/Data/Seafile/CPH/Beamtime/Desy Oct 20/In situ data/PDF/BiMsol6
backgroundfilefull = C:/Data/Seafile/CPH/Beamtime/Desy Oct 20/In situ data/Processed/Standard_Empty_Cap/Quartz2mm-dist500-00000.xy

#### start data
#S 1
#L r($\AA$)  G($\AA^{-2}$)
0 0
0.01 0.00635306
0.02 0.0123512
0.03 0.0176907
0.04 0.0220987
0.05 0.025346
0.06 0.0272578
0.07 0.0276423
0.08 0.0264426
0.09 0.0237983
0.1 0.0198234
0.11 0.0146959
0.12 0.00864982
0.13 0.00196443
0.14 -0.00504689
0.15 -0.0119865
0.16 -0.0185192
0.17 -0.0243301
0.18 -0.0291363
0.19 -0.0327004
0.2 -0.0347786
0.21 -0.0352025
0.22 -0.0340647
0.23 -0.0314267
0.24 -0.0274268
0.25 -0.0222753
0.26 -0.0162467
0.27 -0.00965245
0.28 -0.00294675
0.29 0.00346596
0.3 0.00919257
0.31 0.0138585
0.32 0.0171257
0.33 0.0186518
0.34 0.0181004
0.35 0.0155163
0.36 0.0108915
0.37 0.00432012
0.38 -0.00400065
0.39 -0.0137725
0.4 -0.0246507
0.41 -0.0360325
0.42 -0.0473253
0.43 -0.0579261
0.44 -0.0672093
0.45 -0.0745505
0.46 -0.0792886
0.47 -0.0805723
0.48 -0.0782081
0.49 -0.0718458
0.5 -0.0612541
0.51 -0.046335
0.52 -0.0271341
0.53 -0.00357496
0.54 0.0238091
0.55 0.0543108
0.56 0.0872727
0.57 0.121924
0.58 0.157399
0.59 0.192755
0.6 0.226789
0.61 0.258549
0.62 0.287079
0.63 0.311481
0.64 0.330944
0.65 0.344772
0.66 0.351996
0.67 0.352217
0.68 0.345598
0.69 0.332138
0.7 0.312019
0.71 0.285599
0.72 0.253409
0.73 0.215643
0.74 0.17379
0.75 0.128815
0.76 0.0817422
0.77 0.03364
0.78 -0.0144136
0.79 -0.0612516
0.8 -0.105696
0.81 -0.146937
0.82 -0.184195
0.83 -0.216824
0.84 -0.244334
0.85 -0.266392
0.86 -0.28226
0.87 -0.292483
0.88 -0.297354
0.89 -0.297236
0.9 -0.292627
0.91 -0.284136
0.92 -0.272365
0.93 -0.258095
0.94 -0.242361
0.95 -0.22596
0.96 -0.209661
0.97 -0.194181
0.98 -0.180161
0.99 -0.168378
1 -0.159168
1.01 -0.152767
1.02 -0.149338
1.03 -0.148919
1.04 -0.151429
1.05 -0.156745
1.06 -0.164672
1.07 -0.174582
1.08 -0.186023
1.09 -0.19851
1.1 -0.211542
1.11 -0.22462
1.12 -0.2372
1.13 -0.248827
1.14 -0.259164
1.15 -0.267933
1.16 -0.274939
1.17 -0.280072
1.18 -0.283279
1.19 -0.28449
1.2 -0.284058
1.21 -0.282208
1.22 -0.279221
1.23 -0.275413
1.24 -0.271124
1.25 -0.266713
1.26 -0.26256
1.27 -0.258966
1.28 -0.256183
1.29 -0.25441
1.3 -0.253779
1.31 -0.254364
1.32 -0.256275
1.33 -0.259283
1.34 -0.263228
1.35 -0.267896
1.36 -0.273026
1.37 -0.278326
1.38 -0.283455
1.39 -0.288047
1.4 -0.291814
1.41 -0.294484
1.42 -0.29583
1.43 -0.295678
1.44 -0.293915
1.45 -0.290317
1.46 -0.285107
1.47 -0.278418
1.48 -0.27044
1.49 -0.261424
1.5 -0.251676
1.51 -0.24154
1.52 -0.231445
1.53 -0.221798
1.54 -0.212974
1.55 -0.205322
1.56 -0.199155
1.57 -0.194732
1.58 -0.192455
1.59 -0.192281
1.6 -0.194195
1.61 -0.198132
1.62 -0.203946
1.63 -0.21141
1.64 -0.220261
1.65 -0.230125
1.66 -0.240477
1.67 -0.250867
1.68 -0.260832
1.69 -0.269908
1.7 -0.277654
1.71 -0.283474
1.72 -0.287087
1.73 -0.28827
1.74 -0.286827
1.75 -0.282646
1.76 -0.275703
1.77 -0.266
1.78 -0.253553
1.79 -0.238863
1.8 -0.222254
1.81 -0.204109
1.82 -0.184854
1.83 -0.164942
1.84 -0.144864
1.85 -0.125149
1.86 -0.106232
1.87 -0.0885056
1.88 -0.0723079
1.89 -0.0579118
1.9 -0.0455482
1.91 -0.0355287
1.92 -0.0276609
1.93 -0.0218809
1.94 -0.0180491
1.95 -0.0159583
1.96 -0.0153429
1.97 -0.0159459
1.98 -0.0173491
1.99 -0.0191352
2 -0.0209454
2.01 -0.0224392
2.02 -0.023309
2.03 -0.0232886
2.04 -0.0220365
2.05 -0.0195394
2.06 -0.0157508
2.07 -0.0106999
2.08 -0.00449054
2.09 0.00270224
2.1 0.0106628
2.11 0.0190436
2.12 0.0274518
2.13 0.0355096
2.14 0.0428268
2.15 0.0490152
2.16 0.0537043
2.17 0.0563213
2.18 0.0567424
2.19 0.0547639
2.2 0.0502375
2.21 0.043091
2.22 0.0333318
2.23 0.020941
2.24 0.00605995
2.25 -0.0108719
2.26 -0.0295307
2.27 -0.0495395
2.28 -0.0704803
2.29 -0.0919073
2.3 -0.113319
2.31 -0.134207
2.32 -0.154141
2.33 -0.172723
2.34 -0.189602
2.35 -0.204486
2.36 -0.217064
2.37 -0.227059
2.38 -0.234598
2.39 -0.239702
2.4 -0.242465
2.41 -0.243047
2.42 -0.241674
2.43 -0.238504
2.44 -0.233997
2.45 -0.228555
2.46 -0.222545
2.47 -0.216333
2.48 -0.210273
2.49 -0.204715
2.5 -0.200041
2.51 -0.196438
2.52 -0.194091
2.53 -0.193126
2.54 -0.193611
2.55 -0.195554
2.56 -0.199005
2.57 -0.203786
2.58 -0.209678
2.59 -0.216479
2.6 -0.223958
2.61 -0.231865
2.62 -0.239939
2.63 -0.24788
2.64 -0.255431
2.65 -0.262367
2.66 -0.268492
2.67 -0.273645
2.68 -0.277702
2.69 -0.280503
2.7 -0.282024
2.71 -0.282341
2.72 -0.281508
2.73 -0.279611
2.74 -0.276768
2.75 -0.273118
2.76 -0.268763
2.77 -0.263962
2.78 -0.258882
2.79 -0.253685
2.8 -0.248519
2.81 -0.243516
2.82 -0.238804
2.83 -0.234478
2.84 -0.230567
2.85 -0.22709
2.86 -0.22404
2.87 -0.221384
2.88 -0.219067
2.89 -0.217033
2.9 -0.21516
2.91 -0.213345
2.92 -0.21149
2.93 -0.209497
2.94 -0.207275
2.95 -0.204729
2.96 -0.201775
2.97 -0.198397
2.98 -0.194571
2.99 -0.190294
3 -0.185581
3.01 -0.180466
3.02 -0.174968
3.03 -0.169182
3.04 -0.163186
3.05 -0.157052
3.06 -0.150852
3.07 -0.144652
3.08 -0.138516
3.09 -0.132497
3.1 -0.126617
3.11 -0.120883
3.12 -0.115287
3.13 -0.109801
3.14 -0.104377
3.15 -0.0989475
3.16 -0.0934242
3.17 -0.0877177
3.18 -0.0817322
3.19 -0.0753698
3.2 -0.0685339
3.21 -0.0611205
3.22 -0.0529911
3.23 -0.0441379
3.24 -0.0345139
3.25 -0.0240911
3.26 -0.0128615
3.27 -0.000837335
3.28 0.0120009
3.29 0.0255683
3.3 0.0397594
3.31 0.054488
3.32 0.0696581
3.33 0.0851671
3.34 0.100912
3.35 0.116789
3.36 0.13268
3.37 0.148501
3.38 0.164178
3.39 0.179655
3.4 0.19489
3.41 0.209845
3.42 0.224519
3.43 0.238943
3.44 0.253148
3.45 0.267176
3.46 0.28108
3.47 0.294916
3.48 0.308747
3.49 0.322633
3.5 0.336618
3.51 0.350734
3.52 0.364999
3.53 0.37941
3.54 0.393948
3.55 0.408558
3.56 0.423158
3.57 0.437651
3.58 0.45192
3.59 0.465829
3.6 0.479225
3.61 0.491856
3.62 0.503596
3.63 0.514281
3.64 0.523741
3.65 0.531817
3.66 0.538361
3.67 0.543175
3.68 0.546077
3.69 0.547124
3.7 0.546272
3.71 0.543509
3.72 0.538855
3.73 0.532358
3.74 0.523944
3.75 0.513863
3.76 0.502296
3.77 0.489404
3.78 0.475364
3.79 0.460366
3.8 0.444591
3.81 0.428233
3.82 0.411554
3.83 0.394742
3.84 0.377973
3.85 0.361411
3.86 0.345197
3.87 0.329502
3.88 0.314415
3.89 0.299988
3.9 0.28627
3.91 0.273287
3.92 0.261042
3.93 0.249533
3.94 0.238778
3.95 0.228655
3.96 0.219102
3.97 0.210049
3.98 0.201421
3.99 0.193141
4 0.185144
4.01 0.17734
4.02 0.169647
4.03 0.162002
4.04 0.154352
4.05 0.146651
4.06 0.13886
4.07 0.130939
4.08 0.122882
4.09 0.114682
4.1 0.106339
4.11 0.0978604
4.12 0.0892609
4.13 0.0805544
4.14 0.0717692
4.15 0.0629388
4.16 0.0540937
4.17 0.0452662
4.18 0.0364901
4.19 0.0277996
4.2 0.0192476
4.21 0.010859
4.22 0.00266823
4.23 -0.00529058
4.24 -0.012984
4.25 -0.0203797
4.26 -0.0274291
4.27 -0.0340925
4.28 -0.0403666
4.29 -0.0462285
4.3 -0.0516589
4.31 -0.056643
4.32 -0.0611707
4.33 -0.0651908
4.34 -0.0687468
4.35 -0.0718559
4.36 -0.0745356
4.37 -0.0768107
4.38 -0.0787131
4.39 -0.0802706
4.4 -0.0815237
4.41 -0.0825505
4.42 -0.083407
4.43 -0.0841524
4.44 -0.0848473
4.45 -0.0855522
4.46 -0.0863367
4.47 -0.0872569
4.48 -0.0883584
4.49 -0.089681
4.5 -0.091256
4.51 -0.0931042
4.52 -0.095243
4.53 -0.0976865
4.54 -0.100392
4.55 -0.103331
4.56 -0.106464
4.57 -0.109741
4.58 -0.113105
4.59 -0.116487
4.6 -0.119807
4.61 -0.122992
4.62 -0.12597
4.63 -0.128673
4.64 -0.131038
4.65 -0.133
4.66 -0.134471
4.67 -0.135459
4.68 -0.135945
4.69 -0.135922
4.7 -0.135397
4.71 -0.134393
4.72 -0.132916
4.73 -0.131032
4.74 -0.128823
4.75 -0.126357
4.76 -0.123712
4.77 -0.120967
4.78 -0.118204
4.79 -0.115523
4.8 -0.113
4.81 -0.110707
4.82 -0.108708
4.83 -0.107058
4.84 -0.105801
4.85 -0.104993
4.86 -0.104658
4.87 -0.104772
4.88 -0.105329
4.89 -0.10631
4.9 -0.107684
4.91 -0.109415
4.92 -0.111487
4.93 -0.11381
4.94 -0.116329
4.95 -0.118989
4.96 -0.121734
4.97 -0.124513
4.98 -0.127273
4.99 -0.129963
5 -0.132549
5.01 -0.135
5.02 -0.137292
5.03 -0.139409
5.04 -0.14134
5.05 -0.143059
5.06 -0.144584
5.07 -0.145921
5.08 -0.147079
5.09 -0.148065
5.1 -0.14889
5.11 -0.149558
5.12 -0.150072
5.13 -0.150452
5.14 -0.150702
5.15 -0.150826
5.16 -0.150827
5.17 -0.150703
5.18 -0.150444
5.19 -0.150055
5.2 -0.14954
5.21 -0.148899
5.22 -0.148134
5.23 -0.147251
5.24 -0.146255
5.25 -0.145153
5.26 -0.143971
5.27 -0.142727
5.28 -0.141444
5.29 -0.140147
5.3 -0.138861
5.31 -0.137619
5.32 -0.136449
5.33 -0.135373
5.34 -0.134411
5.35 -0.13358
5.36 -0.13289
5.37 -0.132346
5.38 -0.131958
5.39 -0.131696
5.4 -0.131538
5.41 -0.131456
5.42 -0.131412
5.43 -0.131366
5.44 -0.13126
5.45 -0.131039
5.46 -0.13065
5.47 -0.130043
5.48 -0.129167
5.49 -0.127979
5.5 -0.126438
5.51 -0.12447
5.52 -0.1221
5.53 -0.119322
5.54 -0.116143
5.55 -0.112583
5.56 -0.108673
5.57 -0.104443
5.58 -0.0999535
5.59 -0.095288
5.6 -0.0905174
5.61 -0.0857164
5.62 -0.0809612
5.63 -0.0763269
5.64 -0.0719125
5.65 -0.0677684
5.66 -0.0639455
5.67 -0.0604849
5.68 -0.0574143
5.69 -0.0547467
5.7 -0.0524972
5.71 -0.0506545
5.72 -0.0491532
5.73 -0.0479434
5.74 -0.0469637
5.75 -0.0461428
5.76 -0.0454024
5.77 -0.0446514
5.78 -0.0437971
5.79 -0.042759
5.8 -0.0414627
5.81 -0.0398423
5.82 -0.0378435
5.83 -0.035411
5.84 -0.0324957
5.85 -0.0291292
5.86 -0.0253247
5.87 -0.0211118
5.88 -0.0165362
5.89 -0.0116578
5.9 -0.00653605
5.91 -0.00127696
5.92 0.00402315
5.93 0.00927247
5.94 0.0143804
5.95 0.0192607
5.96 0.0238269
5.97 0.0279774
5.98 0.0316932
5.99 0.0349412
6 0.0377063
6.01 0.0399915
6.02 0.0418188
6.03 0.0432012
6.04 0.0442194
6.05 0.0449659
6.06 0.045527
6.07 0.0459974
6.08 0.0464766
6.09 0.0470675
6.1 0.0478991
6.11 0.0490467
6.12 0.0505883
6.13 0.052588
6.14 0.0550931
6.15 0.0581325
6.16 0.0617487
6.17 0.0659187
6.18 0.0705753
6.19 0.0756607
6.2 0.0810993
6.21 0.0868003
6.22 0.0926603
6.23 0.0985583
6.24 0.104359
6.25 0.109945
6.26 0.115198
6.27 0.120013
6.28 0.12429
6.29 0.127912
6.3 0.130798
6.31 0.132946
6.32 0.134338
6.33 0.134973
6.34 0.134875
6.35 0.134085
6.36 0.132607
6.37 0.130589
6.38 0.128133
6.39 0.125343
6.4 0.12233
6.41 0.119205
6.42 0.116084
6.43 0.113091
6.44 0.110319
6.45 0.107848
6.46 0.105747
6.47 0.104063
6.48 0.102831
6.49 0.102105
6.5 0.101843
6.51 0.102006
6.52 0.10255
6.53 0.103415
6.54 0.104532
6.55 0.105823
6.56 0.107196
6.57 0.108548
6.58 0.109792
6.59 0.110847
6.6 0.111635
6.61 0.112092
6.62 0.112126
6.63 0.111714
6.64 0.110845
6.65 0.109513
6.66 0.107723
6.67 0.105496
6.68 0.10286
6.69 0.0998382
6.7 0.0965257
6.71 0.0929859
6.72 0.0892859
6.73 0.0854948
6.74 0.0816809
6.75 0.0779175
6.76 0.0742712
6.77 0.0707914
6.78 0.0675212
6.79 0.0644942
6.8 0.0617342
6.81 0.0592568
6.82 0.0570931
6.83 0.0552041
6.84 0.053573
6.85 0.0521764
6.86 0.0509853
6.87 0.0499665
6.88 0.0490909
6.89 0.0483159
6.9 0.0475993
6.91 0.0469086
6.92 0.0462146
6.93 0.0454926
6.94 0.0447229
6.95 0.0438826
6.96 0.0429695
6.97 0.0419806
6.98 0.0409171
6.99 0.0397838
7 0.0385881
7.01 0.0373366
7.02 0.0360399
7.03 0.0347102
7.04 0.0333548
7.05 0.0319784
7.06 0.0305829
7.07 0.0291664
7.08 0.0277198
7.09 0.0262346
7.1 0.0246978
7.11 0.0230932
7.12 0.0214028
7.13 0.0196073
7.14 0.017682
7.15 0.0156012
7.16 0.0133598
7.17 0.0109469
7.18 0.00835602
7.19 0.00558658
7.2 0.00264427
7.21 -0.000471246
7.22 -0.00372583
7.23 -0.00708682
7.24 -0.0105188
7.25 -0.0139804
7.26 -0.0174251
7.27 -0.0207987
7.28 -0.0240331
7.29 -0.0270805
7.3 -0.029887
7.31 -0.0324009
7.32 -0.0345745
7.33 -0.0363658
7.34 -0.037703
7.35 -0.0385756
7.36 -0.0389834
7.37 -0.0389207
7.38 -0.0383925
7.39 -0.0374139
7.4 -0.0360043
7.41 -0.0341726
7.42 -0.0320078
7.43 -0.0295649
7.44 -0.0269052
7.45 -0.0240951
7.46 -0.0212044
7.47 -0.0183093
7.48 -0.0154917
7.49 -0.0128206
7.5 -0.0103613
7.51 -0.00817379
7.52 -0.0063113
7.53 -0.00482166
7.54 -0.0037875
7.55 -0.00319084
7.56 -0.00304571
7.57 -0.0033558
7.58 -0.00411461
7.59 -0.00530581
7.6 -0.00692555
7.61 -0.00893284
7.62 -0.0112607
7.63 -0.0138596
7.64 -0.0166753
7.65 -0.0196503
7.66 -0.022725
7.67 -0.0258374
7.68 -0.0289189
7.69 -0.0319138
7.7 -0.0347704
7.71 -0.0374423
7.72 -0.0398893
7.73 -0.0420646
7.74 -0.043934
7.75 -0.0455008
7.76 -0.0467582
7.77 -0.0477083
7.78 -0.048361
7.79 -0.0487342
7.8 -0.0488302
7.81 -0.0487063
7.82 -0.0484046
7.83 -0.0479665
7.84 -0.0474364
7.85 -0.0468596
7.86 -0.0462831
7.87 -0.0457582
7.88 -0.0453239
7.89 -0.045015
7.9 -0.0448607
7.91 -0.0448831
7.92 -0.0450967
7.93 -0.045525
7.94 -0.0461512
7.95 -0.0469558
7.96 -0.0479164
7.97 -0.0490022
7.98 -0.0501751
7.99 -0.0513905
8 -0.0525916
8.01 -0.0537216
8.02 -0.0547257
8.03 -0.0555493
8.04 -0.0561404
8.05 -0.0564512
8.06 -0.0564118
8.07 -0.0559979
8.08 -0.0552004
8.09 -0.0540082
8.1 -0.0524221
8.11 -0.050455
8.12 -0.048128
8.13 -0.0454573
8.14 -0.0425315
8.15 -0.0394134
8.16 -0.0361745
8.17 -0.0328935
8.18 -0.0296535
8.19 -0.0265545
8.2 -0.0236917
8.21 -0.0211391
8.22 -0.0189715
8.23 -0.0172548
8.24 -0.0160436
8.25 -0.0153815
8.26 -0.0153596
8.27 -0.0159206
8.28 -0.0170531
8.29 -0.0187285
8.3 -0.0209015
8.31 -0.0235109
8.32 -0.0264961
8.33 -0.0297547
8.34 -0.0331655
8.35 -0.0366215
8.36 -0.0400128
8.37 -0.0432293
8.38 -0.0461644
8.39 -0.0486658
8.4 -0.0506752
8.41 -0.0521213
8.42 -0.0529455
8.43 -0.0531063
8.44 -0.0525812
8.45 -0.0513362
8.46 -0.0493752
8.47 -0.0467875
8.48 -0.0436309
8.49 -0.039978
8.5 -0.035915
8.51 -0.0315379
8.52 -0.02694
8.53 -0.0222573
8.54 -0.0176002
8.55 -0.0130711
8.56 -0.008765
8.57 -0.00476657
8.58 -0.00116254
8.59 0.00196377
8.6 0.00460971
8.61 0.00675797
8.62 0.00840911
8.63 0.00958104
8.64 0.0103079
8.65 0.0106095
8.66 0.0105789
8.67 0.0103009
8.68 0.00985419
8.69 0.00932032
8.7 0.00878016
8.71 0.0083143
8.72 0.00801119
8.73 0.00792069
8.74 0.00808833
8.75 0.00854568
8.76 0.00930925
8.77 0.0103801
8.78 0.011764
8.79 0.0134153
8.8 0.0152767
8.81 0.0172921
8.82 0.0193971
8.83 0.0215219
8.84 0.0235924
8.85 0.0255169
8.86 0.0272357
8.87 0.0286897
8.88 0.0298297
8.89 0.0306184
8.9 0.0310322
8.91 0.0310381
8.92 0.0306509
8.93 0.0299167
8.94 0.0288754
8.95 0.0275797
8.96 0.0260927
8.97 0.0244857
8.98 0.0228398
8.99 0.0212461
9 0.0197818
9.01 0.0185189
9.02 0.0175219
9.03 0.0168443
9.04 0.016548
9.05 0.0166642
9.06 0.0171756
9.07 0.0180715
9.08 0.0193248
9.09 0.0208931
9.1 0.0227202
9.11 0.0247499
9.12 0.0268768
9.13 0.0290142
9.14 0.0310747
9.15 0.0329722
9.16 0.0346249
9.17 0.0359424
9.18 0.0368418
9.19 0.0373014
9.2 0.0372908
9.21 0.0367964
9.22 0.0358223
9.23 0.0343902
9.24 0.032504
9.25 0.0302582
9.26 0.0277329
9.27 0.0250098
9.28 0.0221783
9.29 0.0193315
9.3 0.0165691
9.31 0.014003
9.32 0.0117078
9.33 0.00975581
9.34 0.00820651
9.35 0.00710436
9.36 0.00647715
9.37 0.0063754
9.38 0.0067617
9.39 0.00759019
9.4 0.00881465
9.41 0.0103746
9.42 0.0121978
9.43 0.0142046
9.44 0.0163031
9.45 0.0183872
9.46 0.020369
9.47 0.0221655
9.48 0.0237023
9.49 0.0249158
9.5 0.0257258
9.51 0.0261065
9.52 0.0260605
9.53 0.0255907
9.54 0.0247168
9.55 0.0234737
9.56 0.0219082
9.57 0.0200643
9.58 0.0180477
9.59 0.0159362
9.6 0.0138099
9.61 0.0117478
9.62 0.00982489
9.63 0.00812594
9.64 0.00671438
9.65 0.00562081
9.66 0.0048735
9.67 0.00448561
9.68 0.00445482
9.69 0.00476361
9.7 0.00541048
9.71 0.00630919
9.72 0.00740122
9.73 0.00862095
9.74 0.00989806
9.75 0.0111605
9.76 0.0123296
9.77 0.013328
9.78 0.0141058
9.79 0.014617
9.8 0.0148282
9.81 0.0147202
9.82 0.0142882
9.83 0.0135129
9.84 0.0124537
9.85 0.0111573
9.86 0.00967823
9.87 0.00808051
9.88 0.00643514
9.89 0.00482167
9.9 0.00333077
9.91 0.00203229
9.92 0.000993221
9.93 0.000271779
9.94 -8.49643e-05
9.95 -4.30862e-05
9.96 0.000456037
9.97 0.00138451
9.98 0.00271581
9.99 0.0044181
10 0.00644542
10.01 0.00873927
10.02 0.0112342
10.03 0.0138494
10.04 0.0164865
10.05 0.0190622
10.06 0.0214954
10.07 0.0237102
10.08 0.0256387
10.09 0.0271914
10.1 0.0283364
10.11 0.029059
10.12 0.0293479
10.13 0.029207
10.14 0.0286553
10.15 0.0277198
10.16 0.0264266
10.17 0.0248711
10.18 0.0231193
10.19 0.0212419
10.2 0.0193111
10.21 0.0173983
10.22 0.0155811
10.23 0.0139252
10.24 0.0124748
10.25 0.0112673
10.26 0.0103275
10.27 0.00966674
10.28 0.00928483
10.29 0.00919031
10.3 0.00932247
10.31 0.0096409
10.32 0.0100971
10.33 0.0106371
10.34 0.0112033
10.35 0.0117328
10.36 0.0121622
10.37 0.0124447
10.38 0.0125393
10.39 0.0124144
10.4 0.0120493
10.41 0.0114354
10.42 0.0105506
10.43 0.00944146
10.44 0.00813915
10.45 0.00668375
10.46 0.00512313
10.47 0.00351083
10.48 0.00190684
10.49 0.000377908
10.5 -0.00102301
10.51 -0.00224755
10.52 -0.00325531
10.53 -0.00401583
10.54 -0.00451023
10.55 -0.00470533
10.56 -0.00463523
10.57 -0.00432808
10.58 -0.00382022
10.59 -0.00315897
10.6 -0.00240075
10.61 -0.00161026
10.62 -0.000866005
10.63 -0.000238024
10.64 0.000208242
10.65 0.00041319
10.66 0.000325889
10.67 -9.33707e-05
10.68 -0.000904487
10.69 -0.00209393
10.7 -0.00364268
10.71 -0.00552468
10.72 -0.00769779
10.73 -0.010105
10.74 -0.012678
10.75 -0.0153292
10.76 -0.0179544
10.77 -0.0204596
10.78 -0.0227508
10.79 -0.0247378
10.8 -0.0263378
10.81 -0.0274375
10.82 -0.0279939
10.83 -0.0279887
10.84 -0.0274054
10.85 -0.0262482
10.86 -0.0245425
10.87 -0.0223276
10.88 -0.0196426
10.89 -0.0166253
10.9 -0.0133783
10.91 -0.0100148
10.92 -0.00665533
10.93 -0.00342308
10.94 -0.000465297
10.95 0.00209191
10.96 0.00415945
10.97 0.00565059
10.98 0.00649728
10.99 0.00665289
11 0.00609097
11.01 0.00473923
11.02 0.00271193
11.03 6.67687e-05
11.04 -0.00311606
11.05 -0.00673632
11.06 -0.0106769
11.07 -0.0148102
11.08 -0.0189749
11.09 -0.0230177
11.1 -0.0267978
11.11 -0.0301813
11.12 -0.0330458
11.13 -0.0352846
11.14 -0.0367244
11.15 -0.0373728
11.16 -0.0372015
11.17 -0.0362034
11.18 -0.0343981
11.19 -0.0318306
11.2 -0.0285425
11.21 -0.0246262
11.22 -0.0202439
11.23 -0.015523
11.24 -0.0106001
11.25 -0.00561658
11.26 -0.00071365
11.27 0.00393769
11.28 0.00821622
11.29 0.0120165
11.3 0.0152466
11.31 0.0178353
11.32 0.0197334
11.33 0.0208898
11.34 0.0212727
11.35 0.0209684
11.36 0.0200258
11.37 0.0185128
11.38 0.0165133
11.39 0.0141239
11.4 0.011435
11.41 0.00858752
11.42 0.00569994
11.43 0.00287843
11.44 0.000221204
11.45 -0.00218465
11.46 -0.00425661
11.47 -0.00590616
11.48 -0.00713008
11.49 -0.00791215
11.5 -0.00825422
11.51 -0.00817539
11.52 -0.0077105
11.53 -0.00688678
11.54 -0.00578611
11.55 -0.0044912
11.56 -0.00307579
11.57 -0.00161454
11.58 -0.000179983
11.59 0.00115836
11.6 0.00232059
11.61 0.00327123
11.62 0.00397575
11.63 0.00441274
11.64 0.00457422
11.65 0.00446557
11.66 0.00409009
11.67 0.00348687
11.68 0.00270971
11.69 0.00180652
11.7 0.000829572
11.71 -0.000167061
11.72 -0.00112986
11.73 -0.00199397
11.74 -0.00272189
11.75 -0.00327904
11.76 -0.00364032
11.77 -0.00379115
11.78 -0.0037279
11.79 -0.00344764
11.8 -0.0029712
11.81 -0.002341
11.82 -0.00159424
11.83 -0.000773725
