# xPDFsuite Configuration #
[PDF]
wavelength = 0.1
dataformat = QA
inputfile = BiMsol6_insitu_700 C-00405.xy
backgroundfile = Quartz2mm-dist500-00000.xy
mode = xray
bgscale = 0.0042
composition = Bi2Fe4O9
outputtype = gr
qmaxinst = 24.998449118
qmin = 0.1
qmax = 21.4986662415
rmax = 80.0
rmin = 0.0
rstep = 0.01
rpoly = 0.9

[Misc]
inputdir = C:/Data/Seafile/CPH/Beamtime/Desy Oct 20/In situ data/Processed/BiMsol6/PDF
savedir = C:/Data/Seafile/CPH/Beamtime/Desy Oct 20/In situ data/PDF/BiMsol6
backgroundfilefull = C:/Data/Seafile/CPH/Beamtime/Desy Oct 20/In situ data/Processed/Standard_Empty_Cap/Quartz2mm-dist500-00000.xy

#### start data
#S 1
#L r($\AA$)  G($\AA^{-2}$)
0 0
0.01 0.00639467
0.02 0.0124272
0.03 0.0177877
0.04 0.0221982
0.05 0.0254254
0.06 0.0272918
0.07 0.027603
0.08 0.0263033
0.09 0.0235364
0.1 0.019421
0.11 0.014141
0.12 0.00793689
0.13 0.0010958
0.14 -0.00605921
0.15 -0.0131231
0.16 -0.0197541
0.17 -0.0256316
0.18 -0.0304688
0.19 -0.0340264
0.2 -0.0360591
0.21 -0.0364005
0.22 -0.0351514
0.23 -0.032381
0.24 -0.028237
0.25 -0.0229411
0.26 -0.0167802
0.27 -0.0100821
0.28 -0.00331383
0.29 0.00310867
0.3 0.00878158
0.31 0.0133216
0.32 0.0163848
0.33 0.0176231
0.34 0.0166968
0.35 0.0136629
0.36 0.00852269
0.37 0.00138271
0.38 -0.00754335
0.39 -0.0179379
0.4 -0.0294317
0.41 -0.0413952
0.42 -0.0532108
0.43 -0.06425
0.44 -0.073863
0.45 -0.0814023
0.46 -0.0861829
0.47 -0.0873216
0.48 -0.0846281
0.49 -0.0777446
0.5 -0.0664374
0.51 -0.0506112
0.52 -0.0303193
0.53 -0.00548727
0.54 0.0233263
0.55 0.0553839
0.56 0.0900021
0.57 0.126381
0.58 0.163627
0.59 0.200764
0.6 0.236555
0.61 0.270016
0.62 0.300167
0.63 0.326085
0.64 0.34694
0.65 0.36202
0.66 0.370333
0.67 0.371475
0.68 0.365615
0.69 0.352756
0.7 0.333083
0.71 0.306967
0.72 0.274947
0.73 0.23722
0.74 0.195304
0.75 0.150177
0.76 0.102877
0.77 0.0544843
0.78 0.00608573
0.79 -0.0411471
0.8 -0.086033
0.81 -0.127759
0.82 -0.165548
0.83 -0.198761
0.84 -0.226914
0.85 -0.249687
0.86 -0.266361
0.87 -0.277487
0.88 -0.283367
0.89 -0.284377
0.9 -0.281021
0.91 -0.273913
0.92 -0.263665
0.93 -0.25106
0.94 -0.237117
0.95 -0.222622
0.96 -0.20833
0.97 -0.194941
0.98 -0.183075
0.99 -0.173487
1 -0.166481
1.01 -0.162265
1.02 -0.160976
1.03 -0.162627
1.04 -0.167111
1.05 -0.17428
1.06 -0.183913
1.07 -0.195375
1.08 -0.208211
1.09 -0.221928
1.1 -0.236027
1.11 -0.250015
1.12 -0.263347
1.13 -0.275588
1.14 -0.286427
1.15 -0.295603
1.16 -0.302943
1.17 -0.308357
1.18 -0.311813
1.19 -0.313262
1.2 -0.313073
1.21 -0.311487
1.22 -0.308792
1.23 -0.305311
1.24 -0.301385
1.25 -0.297372
1.26 -0.293644
1.27 -0.29049
1.28 -0.28815
1.29 -0.286807
1.3 -0.28658
1.31 -0.287527
1.32 -0.289738
1.33 -0.292977
1.34 -0.297078
1.35 -0.301822
1.36 -0.30695
1.37 -0.312174
1.38 -0.31716
1.39 -0.321562
1.4 -0.325114
1.41 -0.32757
1.42 -0.328727
1.43 -0.328438
1.44 -0.326622
1.45 -0.323096
1.46 -0.318101
1.47 -0.311789
1.48 -0.304366
1.49 -0.296096
1.5 -0.287289
1.51 -0.278295
1.52 -0.269533
1.53 -0.261378
1.54 -0.254175
1.55 -0.248243
1.56 -0.243853
1.57 -0.241218
1.58 -0.240688
1.59 -0.242164
1.6 -0.245585
1.61 -0.250841
1.62 -0.25774
1.63 -0.266021
1.64 -0.275379
1.65 -0.285404
1.66 -0.295587
1.67 -0.305483
1.68 -0.31464
1.69 -0.322621
1.7 -0.329019
1.71 -0.333271
1.72 -0.335173
1.73 -0.334571
1.74 -0.331337
1.75 -0.325434
1.76 -0.316913
1.77 -0.305855
1.78 -0.292378
1.79 -0.277025
1.8 -0.260177
1.81 -0.242267
1.82 -0.223757
1.83 -0.20513
1.84 -0.186933
1.85 -0.169673
1.86 -0.153752
1.87 -0.139535
1.88 -0.127323
1.89 -0.117342
1.9 -0.109771
1.91 -0.104875
1.92 -0.102355
1.93 -0.102072
1.94 -0.10381
1.95 -0.107285
1.96 -0.112158
1.97 -0.118083
1.98 -0.124569
1.99 -0.131146
2 -0.1374
2.01 -0.142942
2.02 -0.147425
2.03 -0.150547
2.04 -0.15188
2.05 -0.151448
2.06 -0.149189
2.07 -0.145126
2.08 -0.139357
2.09 -0.132058
2.1 -0.123418
2.11 -0.113789
2.12 -0.103605
2.13 -0.0932567
2.14 -0.0831468
2.15 -0.0736791
2.16 -0.0652425
2.17 -0.0583844
2.18 -0.0533019
2.19 -0.0502316
2.2 -0.0493559
2.21 -0.0507864
2.22 -0.0545605
2.23 -0.0607403
2.24 -0.069246
2.25 -0.0797168
2.26 -0.0918982
2.27 -0.105487
2.28 -0.120141
2.29 -0.135496
2.3 -0.151167
2.31 -0.166713
2.32 -0.181771
2.33 -0.196018
2.34 -0.209167
2.35 -0.220983
2.36 -0.231228
2.37 -0.239696
2.38 -0.246476
2.39 -0.25159
2.4 -0.25512
2.41 -0.257202
2.42 -0.258019
2.43 -0.257723
2.44 -0.256659
2.45 -0.255131
2.46 -0.253413
2.47 -0.251776
2.48 -0.250475
2.49 -0.249756
2.5 -0.24989
2.51 -0.250964
2.52 -0.25308
2.53 -0.256289
2.54 -0.260598
2.55 -0.265966
2.56 -0.272376
2.57 -0.27965
2.58 -0.28759
2.59 -0.296011
2.6 -0.304718
2.61 -0.313506
2.62 -0.322167
2.63 -0.330456
2.64 -0.338216
2.65 -0.345297
2.66 -0.351575
2.67 -0.356958
2.68 -0.361383
2.69 -0.364756
2.7 -0.367096
2.71 -0.36849
2.72 -0.368995
2.73 -0.368688
2.74 -0.367658
2.75 -0.365998
2.76 -0.363754
2.77 -0.361085
2.78 -0.358066
2.79 -0.354759
2.8 -0.351204
2.81 -0.347421
2.82 -0.343391
2.83 -0.339077
2.84 -0.334441
2.85 -0.329409
2.86 -0.323895
2.87 -0.3178
2.88 -0.31102
2.89 -0.303358
2.9 -0.294781
2.91 -0.285215
2.92 -0.274592
2.93 -0.262866
2.94 -0.250014
2.95 -0.235994
2.96 -0.220814
2.97 -0.204625
2.98 -0.187522
2.99 -0.169623
3 -0.151069
3.01 -0.132015
3.02 -0.112614
3.03 -0.0930861
3.04 -0.0736099
3.05 -0.0543522
3.06 -0.0354671
3.07 -0.0170916
3.08 0.000635848
3.09 0.0175779
3.1 0.0337342
3.11 0.0490783
3.12 0.0636126
3.13 0.0773673
3.14 0.0903977
3.15 0.102735
3.16 0.114524
3.17 0.125898
3.18 0.136976
3.19 0.147877
3.2 0.158719
3.21 0.169612
3.22 0.180669
3.23 0.191953
3.24 0.20351
3.25 0.215364
3.26 0.227509
3.27 0.239916
3.28 0.252539
3.29 0.265278
3.3 0.278021
3.31 0.290647
3.32 0.303024
3.33 0.315013
3.34 0.326468
3.35 0.33717
3.36 0.347053
3.37 0.356005
3.38 0.363932
3.39 0.370763
3.4 0.376449
3.41 0.380894
3.42 0.384118
3.43 0.386221
3.44 0.387266
3.45 0.387338
3.46 0.386544
3.47 0.385006
3.48 0.382808
3.49 0.38018
3.5 0.377275
3.51 0.374244
3.52 0.371235
3.53 0.36839
3.54 0.365859
3.55 0.363782
3.56 0.362234
3.57 0.361298
3.58 0.361036
3.59 0.361495
3.6 0.362704
3.61 0.364757
3.62 0.367581
3.63 0.371152
3.64 0.375443
3.65 0.380422
3.66 0.38605
3.67 0.392306
3.68 0.399159
3.69 0.406517
3.7 0.414333
3.71 0.422562
3.72 0.431159
3.73 0.440079
3.74 0.449301
3.75 0.458754
3.76 0.468383
3.77 0.478137
3.78 0.487961
3.79 0.497793
3.8 0.507561
3.81 0.51717
3.82 0.526543
3.83 0.535587
3.84 0.544202
3.85 0.552282
3.86 0.559717
3.87 0.566318
3.88 0.571991
3.89 0.576647
3.9 0.580173
3.91 0.582462
3.92 0.583415
3.93 0.582914
3.94 0.580754
3.95 0.577018
3.96 0.571663
3.97 0.56466
3.98 0.556
3.99 0.545689
4 0.533637
4.01 0.519935
4.02 0.504714
4.03 0.488043
4.04 0.470006
4.05 0.450692
4.06 0.430191
4.07 0.408507
4.08 0.385874
4.09 0.362397
4.1 0.33818
4.11 0.313327
4.12 0.287935
4.13 0.26208
4.14 0.235865
4.15 0.2094
4.16 0.182765
4.17 0.156036
4.18 0.129286
4.19 0.102587
4.2 0.0760291
4.21 0.0496757
4.22 0.0235953
4.23 -0.00214183
4.24 -0.0274644
4.25 -0.0523
4.26 -0.0765435
4.27 -0.100098
4.28 -0.122929
4.29 -0.144964
4.3 -0.166134
4.31 -0.186375
4.32 -0.205627
4.33 -0.223729
4.34 -0.240726
4.35 -0.256604
4.36 -0.271346
4.37 -0.284949
4.38 -0.297419
4.39 -0.308738
4.4 -0.318905
4.41 -0.328058
4.42 -0.336258
4.43 -0.343578
4.44 -0.350098
4.45 -0.355904
4.46 -0.361036
4.47 -0.365637
4.48 -0.369812
4.49 -0.373645
4.5 -0.377215
4.51 -0.380592
4.52 -0.383835
4.53 -0.386993
4.54 -0.390111
4.55 -0.39321
4.56 -0.3963
4.57 -0.399378
4.58 -0.402432
4.59 -0.405434
4.6 -0.408348
4.61 -0.411141
4.62 -0.413773
4.63 -0.416201
4.64 -0.418385
4.65 -0.420285
4.66 -0.421837
4.67 -0.423048
4.68 -0.423903
4.69 -0.424397
4.7 -0.424533
4.71 -0.424326
4.72 -0.42378
4.73 -0.422939
4.74 -0.421863
4.75 -0.420598
4.76 -0.4192
4.77 -0.417726
4.78 -0.416234
4.79 -0.414795
4.8 -0.413466
4.81 -0.412298
4.82 -0.411341
4.83 -0.410635
4.84 -0.410215
4.85 -0.410128
4.86 -0.410396
4.87 -0.411011
4.88 -0.411974
4.89 -0.413282
4.9 -0.414923
4.91 -0.41688
4.92 -0.419162
4.93 -0.421707
4.94 -0.424484
4.95 -0.427458
4.96 -0.430592
4.97 -0.433849
4.98 -0.437189
4.99 -0.440563
5 -0.443919
5.01 -0.44721
5.02 -0.450382
5.03 -0.45338
5.04 -0.456145
5.05 -0.458576
5.06 -0.46062
5.07 -0.462207
5.08 -0.463258
5.09 -0.463688
5.1 -0.46341
5.11 -0.462303
5.12 -0.460218
5.13 -0.457131
5.14 -0.452949
5.15 -0.447586
5.16 -0.440959
5.17 -0.432991
5.18 -0.423486
5.19 -0.412466
5.2 -0.399932
5.21 -0.385853
5.22 -0.370217
5.23 -0.353025
5.24 -0.334255
5.25 -0.31384
5.26 -0.291972
5.27 -0.26871
5.28 -0.244127
5.29 -0.218304
5.3 -0.191329
5.31 -0.163224
5.32 -0.134139
5.33 -0.104215
5.34 -0.0735514
5.35 -0.0422446
5.36 -0.0103873
5.37 0.0219371
5.38 0.0546695
5.39 0.0876864
5.4 0.120915
5.41 0.154285
5.42 0.18773
5.43 0.221181
5.44 0.254559
5.45 0.287782
5.46 0.320772
5.47 0.353439
5.48 0.385684
5.49 0.417394
5.5 0.448444
5.51 0.478587
5.52 0.507746
5.53 0.535754
5.54 0.562431
5.55 0.587589
5.56 0.611032
5.57 0.632447
5.58 0.651591
5.59 0.668394
5.6 0.682676
5.61 0.694272
5.62 0.703035
5.63 0.708843
5.64 0.711261
5.65 0.710527
5.66 0.706644
5.67 0.699626
5.68 0.689518
5.69 0.676405
5.7 0.660283
5.71 0.641251
5.72 0.619705
5.73 0.595858
5.74 0.569944
5.75 0.54221
5.76 0.512916
5.77 0.482225
5.78 0.45053
5.79 0.418111
5.8 0.385208
5.81 0.352048
5.82 0.318837
5.83 0.285767
5.84 0.25303
5.85 0.220737
5.86 0.188989
5.87 0.15786
5.88 0.127404
5.89 0.0976557
5.9 0.068695
5.91 0.0404872
5.92 0.013006
5.93 -0.0137544
5.94 -0.0397977
5.95 -0.0651219
5.96 -0.0896984
5.97 -0.113443
5.98 -0.13638
5.99 -0.158451
6 -0.179577
6.01 -0.199664
6.02 -0.218603
6.03 -0.236168
6.04 -0.252248
6.05 -0.26676
6.06 -0.279567
6.07 -0.290534
6.08 -0.299539
6.09 -0.306447
6.1 -0.310954
6.11 -0.313222
6.12 -0.313219
6.13 -0.310944
6.14 -0.306426
6.15 -0.299732
6.16 -0.290833
6.17 -0.279905
6.18 -0.267227
6.19 -0.252989
6.2 -0.237408
6.21 -0.220713
6.22 -0.203148
6.23 -0.184916
6.24 -0.166362
6.25 -0.147723
6.26 -0.129226
6.27 -0.111077
6.28 -0.0934613
6.29 -0.0765777
6.3 -0.0605771
6.31 -0.0454989
6.32 -0.0313946
6.33 -0.0182827
6.34 -0.00614908
6.35 0.00505029
6.36 0.0153061
6.37 0.0248095
6.38 0.03369
6.39 0.0420816
6.4 0.0501273
6.41 0.0579743
6.42 0.0657736
6.43 0.073689
6.44 0.0818522
6.45 0.0903788
6.46 0.0993683
6.47 0.108902
6.48 0.119041
6.49 0.129891
6.5 0.141423
6.51 0.153621
6.52 0.166464
6.53 0.179915
6.54 0.193927
6.55 0.208454
6.56 0.223444
6.57 0.238783
6.58 0.2544
6.59 0.270223
6.6 0.286186
6.61 0.302225
6.62 0.318283
6.63 0.334306
6.64 0.350253
6.65 0.366092
6.66 0.381796
6.67 0.397344
6.68 0.412715
6.69 0.427874
6.7 0.442821
6.71 0.457536
6.72 0.471995
6.73 0.486167
6.74 0.500012
6.75 0.513452
6.76 0.526431
6.77 0.538897
6.78 0.550769
6.79 0.56196
6.8 0.572374
6.81 0.581898
6.82 0.590313
6.83 0.597604
6.84 0.60366
6.85 0.608371
6.86 0.611629
6.87 0.613335
6.88 0.613291
6.89 0.611413
6.9 0.607726
6.91 0.602175
6.92 0.59472
6.93 0.585334
6.94 0.574005
6.95 0.560514
6.96 0.545099
6.97 0.527797
6.98 0.508651
6.99 0.487718
7 0.465062
7.01 0.440678
7.02 0.414634
7.03 0.387129
7.04 0.358258
7.05 0.328119
7.06 0.296816
7.07 0.264455
7.08 0.231061
7.09 0.196842
7.1 0.161929
7.11 0.126441
7.12 0.0905004
7.13 0.0542322
7.14 0.0177623
7.15 -0.0187622
7.16 -0.0551939
7.17 -0.0913975
7.18 -0.127237
7.19 -0.162575
7.2 -0.197278
7.21 -0.231128
7.22 -0.264035
7.23 -0.295895
7.24 -0.326594
7.25 -0.356027
7.26 -0.384097
7.27 -0.41068
7.28 -0.435606
7.29 -0.458953
7.3 -0.480687
7.31 -0.500788
7.32 -0.519253
7.33 -0.536093
7.34 -0.551211
7.35 -0.564728
7.36 -0.576759
7.37 -0.587374
7.38 -0.596651
7.39 -0.604673
7.4 -0.611514
7.41 -0.617187
7.42 -0.6219
7.43 -0.625741
7.44 -0.628795
7.45 -0.631141
7.46 -0.632849
7.47 -0.633943
7.48 -0.634495
7.49 -0.634569
7.5 -0.634191
7.51 -0.63338
7.52 -0.632142
7.53 -0.630472
7.54 -0.628312
7.55 -0.625692
7.56 -0.622589
7.57 -0.618975
7.58 -0.614823
7.59 -0.610105
7.6 -0.604755
7.61 -0.598746
7.62 -0.592093
7.63 -0.584779
7.64 -0.576794
7.65 -0.568134
7.66 -0.5588
7.67 -0.548728
7.68 -0.538006
7.69 -0.52666
7.7 -0.514716
7.71 -0.502209
7.72 -0.489175
7.73 -0.475638
7.74 -0.46164
7.75 -0.447266
7.76 -0.432569
7.77 -0.417605
7.78 -0.402432
7.79 -0.387112
7.8 -0.371705
7.81 -0.356291
7.82 -0.340938
7.83 -0.325713
7.84 -0.310688
7.85 -0.295933
7.86 -0.281534
7.87 -0.267591
7.88 -0.254146
7.89 -0.241269
7.9 -0.229027
7.91 -0.217483
7.92 -0.206699
7.93 -0.196805
7.94 -0.187804
7.95 -0.179712
7.96 -0.17256
7.97 -0.166368
7.98 -0.161147
7.99 -0.156922
8 -0.153744
8.01 -0.1515
8.02 -0.150156
8.03 -0.149668
8.04 -0.149985
8.05 -0.151048
8.06 -0.152838
8.07 -0.155248
8.08 -0.158178
8.09 -0.161555
8.1 -0.165304
8.11 -0.169354
8.12 -0.17364
8.13 -0.178109
8.14 -0.182683
8.15 -0.187314
8.16 -0.191964
8.17 -0.196599
8.18 -0.201192
8.19 -0.205718
8.2 -0.21016
8.21 -0.21451
8.22 -0.218757
8.23 -0.222889
8.24 -0.226893
8.25 -0.23075
8.26 -0.234415
8.27 -0.237869
8.28 -0.241071
8.29 -0.243967
8.3 -0.246493
8.31 -0.248577
8.32 -0.250097
8.33 -0.250942
8.34 -0.251043
8.35 -0.250291
8.36 -0.248573
8.37 -0.245778
8.38 -0.241794
8.39 -0.236364
8.4 -0.229514
8.41 -0.221167
8.42 -0.211255
8.43 -0.199722
8.44 -0.186532
8.45 -0.171589
8.46 -0.154855
8.47 -0.136478
8.48 -0.116504
8.49 -0.0949992
8.5 -0.072045
8.51 -0.0477388
8.52 -0.02208
8.53 0.00469887
8.54 0.032448
8.55 0.0610379
8.56 0.0903398
8.57 0.120229
8.58 0.150597
8.59 0.181338
8.6 0.212318
8.61 0.243452
8.62 0.274667
8.63 0.305905
8.64 0.337118
8.65 0.368261
8.66 0.399308
8.67 0.430241
8.68 0.461045
8.69 0.491704
8.7 0.5222
8.71 0.552504
8.72 0.582562
8.73 0.612344
8.74 0.641788
8.75 0.670817
8.76 0.699334
8.77 0.727226
8.78 0.754294
8.79 0.780394
8.8 0.805391
8.81 0.829106
8.82 0.851352
8.83 0.871934
8.84 0.890633
8.85 0.907039
8.86 0.921167
8.87 0.932844
8.88 0.941911
8.89 0.948231
8.9 0.951685
8.91 0.951987
8.92 0.949103
8.93 0.943162
8.94 0.934162
8.95 0.922134
8.96 0.907134
8.97 0.889242
8.98 0.868258
8.99 0.844648
9 0.818561
9.01 0.790158
9.02 0.75961
9.03 0.727096
9.04 0.692707
9.05 0.656636
9.06 0.619166
9.07 0.580466
9.08 0.540693
9.09 0.499999
9.1 0.458524
9.11 0.416342
9.12 0.373649
9.13 0.330564
9.14 0.287196
9.15 0.243648
9.16 0.200024
9.17 0.156435
9.18 0.11301
9.19 0.0698621
9.2 0.0271155
9.21 -0.0150956
9.22 -0.0566268
9.23 -0.0973228
9.24 -0.136905
9.25 -0.175251
9.26 -0.212197
9.27 -0.247553
9.28 -0.281124
9.29 -0.312718
9.3 -0.34207
9.31 -0.368848
9.32 -0.393072
9.33 -0.41459
9.34 -0.43327
9.35 -0.448999
9.36 -0.461692
9.37 -0.471024
9.38 -0.477125
9.39 -0.480102
9.4 -0.47999
9.41 -0.476849
9.42 -0.470771
9.43 -0.461813
9.44 -0.449928
9.45 -0.435547
9.46 -0.418844
9.47 -0.400005
9.48 -0.379223
9.49 -0.356693
9.5 -0.332513
9.51 -0.306948
9.52 -0.280247
9.53 -0.252585
9.54 -0.224126
9.55 -0.195018
9.56 -0.165396
9.57 -0.135358
9.58 -0.105065
9.59 -0.074611
9.6 -0.0440832
9.61 -0.0135595
9.62 0.0168881
9.63 0.0471772
9.64 0.0772312
9.65 0.106989
9.66 0.136379
9.67 0.165322
9.68 0.193734
9.69 0.221523
9.7 0.248494
9.71 0.27461
9.72 0.299758
9.73 0.323816
9.74 0.346662
9.75 0.368168
9.76 0.38813
9.77 0.406388
9.78 0.422926
9.79 0.437646
9.8 0.450457
9.81 0.461288
9.82 0.470082
9.83 0.476586
9.84 0.480977
9.85 0.483292
9.86 0.483564
9.87 0.481847
9.88 0.478215
9.89 0.472693
9.9 0.465343
9.91 0.456432
9.92 0.446096
9.93 0.43448
9.94 0.421731
9.95 0.408001
9.96 0.393374
9.97 0.378065
9.98 0.362229
9.99 0.345987
10 0.32945
10.01 0.312716
10.02 0.295866
10.03 0.278972
10.04 0.262092
10.05 0.245261
10.06 0.228501
10.07 0.211822
10.08 0.195226
10.09 0.17871
10.1 0.162257
10.11 0.145847
10.12 0.129462
10.13 0.113087
10.14 0.0967086
10.15 0.0803187
10.16 0.0639148
10.17 0.0475054
10.18 0.0311057
10.19 0.0147389
10.2 -0.00156385
10.21 -0.0177639
10.22 -0.0338019
10.23 -0.0496226
10.24 -0.0651773
10.25 -0.0804075
10.26 -0.0952544
10.27 -0.10966
10.28 -0.123564
10.29 -0.136854
10.3 -0.149542
10.31 -0.161589
10.32 -0.172969
10.33 -0.18366
10.34 -0.193654
10.35 -0.202907
10.36 -0.211434
10.37 -0.219297
10.38 -0.226526
10.39 -0.233159
10.4 -0.239242
10.41 -0.244828
10.42 -0.24993
10.43 -0.254664
10.44 -0.259095
10.45 -0.26329
10.46 -0.267313
10.47 -0.271227
10.48 -0.275094
10.49 -0.278981
10.5 -0.282943
10.51 -0.287026
10.52 -0.291274
10.53 -0.295721
10.54 -0.300399
10.55 -0.305356
10.56 -0.31059
10.57 -0.316105
10.58 -0.321903
10.59 -0.32798
10.6 -0.334328
10.61 -0.340941
10.62 -0.347804
10.63 -0.354873
10.64 -0.362117
10.65 -0.369504
10.66 -0.376997
10.67 -0.384559
10.68 -0.392147
10.69 -0.399712
10.7 -0.407213
10.71 -0.414605
10.72 -0.42185
10.73 -0.428906
10.74 -0.435729
10.75 -0.442263
10.76 -0.448498
10.77 -0.45441
10.78 -0.459975
10.79 -0.465177
10.8 -0.470004
10.81 -0.474421
10.82 -0.478443
10.83 -0.482091
10.84 -0.485378
10.85 -0.488319
10.86 -0.490937
10.87 -0.493251
10.88 -0.495269
10.89 -0.497053
10.9 -0.498632
10.91 -0.500037
10.92 -0.501299
10.93 -0.502443
10.94 -0.503489
10.95 -0.504457
10.96 -0.505366
10.97 -0.506218
10.98 -0.507013
10.99 -0.507741
11 -0.508382
11.01 -0.508897
11.02 -0.509259
11.03 -0.509426
11.04 -0.509349
11.05 -0.508973
11.06 -0.508239
11.07 -0.507057
11.08 -0.505351
11.09 -0.503083
11.1 -0.500191
11.11 -0.496614
11.12 -0.492299
11.13 -0.487196
11.14 -0.48117
11.15 -0.474275
11.16 -0.466496
11.17 -0.457825
11.18 -0.448266
11.19 -0.437833
11.2 -0.426515
11.21 -0.414338
11.22 -0.40141
11.23 -0.387794
11.24 -0.373557
11.25 -0.358775
11.26 -0.343528
11.27 -0.327873
11.28 -0.311936
11.29 -0.29581
11.3 -0.279577
11.31 -0.263318
11.32 -0.247106
11.33 -0.231012
11.34 -0.215108
11.35 -0.199429
11.36 -0.184007
11.37 -0.168864
11.38 -0.15401
11.39 -0.13944
11.4 -0.125164
11.41 -0.111134
11.42 -0.0973043
11.43 -0.0836281
11.44 -0.0700508
11.45 -0.0565118
11.46 -0.042944
11.47 -0.0292648
11.48 -0.0154097
11.49 -0.00131233
11.5 0.0130904
11.51 0.0278568
11.52 0.0430389
11.53 0.0587195
11.54 0.0749202
11.55 0.0916461
11.56 0.10891
11.57 0.126715
11.58 0.145054
11.59 0.163913
11.6 0.183306
11.61 0.203139
11.62 0.223364
11.63 0.243928
11.64 0.264771
11.65 0.285828
11.66 0.307035
11.67 0.328312
11.68 0.349579
11.69 0.370768
11.7 0.391811
11.71 0.412642
11.72 0.433199
11.73 0.453377
11.74 0.473156
11.75 0.492485
11.76 0.511317
11.77 0.529609
11.78 0.547319
11.79 0.564371
11.8 0.580716
11.81 0.596354
11.82 0.611247
11.83 0.625353
11.84 0.63863
11.85 0.651032
11.86 0.662403
11.87 0.672778
11.88 0.682107
11.89 0.690329
11.9 0.697382
11.91 0.7032
11.92 0.707657
11.93 0.710637
11.94 0.712171
11.95 0.712198
11.96 0.710661
11.97 0.70751
11.98 0.702703
11.99 0.696041
12 0.687631
12.01 0.6775
12.02 0.665656
12.03 0.65212
12.04 0.636928
12.05 0.62008
12.06 0.601575
12.07 0.581631
12.08 0.560347
12.09 0.537833
12.1 0.514213
12.11 0.489616
12.12 0.464125
12.13 0.437952
12.14 0.411272
12.15 0.384241
12.16 0.35701
12.17 0.329732
12.18 0.30256
12.19 0.275672
12.2 0.249189
12.21 0.223237
12.22 0.19793
12.23 0.173376
12.24 0.14967
12.25 0.126972
12.26 0.105334
12.27 0.0847779
12.28 0.0653537
