# xPDFsuite Configuration #
[PDF]
wavelength = 0.1
dataformat = QA
inputfile = BiMsol6_insitu_700 C-00081.xy
backgroundfile = Quartz2mm-dist500-00000.xy
mode = xray
bgscale = 0.0042
composition = Bi2Fe4O9
outputtype = gr
qmaxinst = 24.998449118
qmin = 0.1
qmax = 21.4986662415
rmax = 80.0
rmin = 0.0
rstep = 0.01
rpoly = 0.9

[Misc]
inputdir = C:/Data/Seafile/CPH/Beamtime/Desy Oct 20/In situ data/Processed/BiMsol6/PDF
savedir = C:/Data/Seafile/CPH/Beamtime/Desy Oct 20/In situ data/PDF/BiMsol6
backgroundfilefull = C:/Data/Seafile/CPH/Beamtime/Desy Oct 20/In situ data/Processed/Standard_Empty_Cap/Quartz2mm-dist500-00000.xy

#### start data
#S 1
#L r($\AA$)  G($\AA^{-2}$)
0 0
0.01 0.00706447
0.02 0.0137372
0.03 0.0196828
0.04 0.0246
0.05 0.0282358
0.06 0.0303966
0.07 0.0308702
0.08 0.0295931
0.09 0.0267185
0.1 0.0223713
0.11 0.016747
0.12 0.0101025
0.13 0.00274521
0.14 -0.00498123
0.15 -0.0126381
0.16 -0.019856
0.17 -0.0262876
0.18 -0.0316205
0.19 -0.0355922
0.2 -0.0379324
0.21 -0.0384532
0.22 -0.0372532
0.23 -0.0343968
0.24 -0.0300321
0.25 -0.0243863
0.26 -0.0177568
0.27 -0.0104784
0.28 -0.00304722
0.29 0.00409609
0.3 0.0105235
0.31 0.0158266
0.32 0.0196365
0.33 0.0215795
0.34 0.021288
0.35 0.0188051
0.36 0.0141175
0.37 0.00732171
0.38 -0.00137463
0.39 -0.0116555
0.4 -0.0231583
0.41 -0.03524
0.42 -0.047269
0.43 -0.0586044
0.44 -0.0685825
0.45 -0.0765412
0.46 -0.0817823
0.47 -0.0834102
0.48 -0.0812213
0.49 -0.0748508
0.5 -0.0640615
0.51 -0.0487586
0.52 -0.029
0.53 -0.00472153
0.54 0.0235045
0.55 0.0549261
0.56 0.088842
0.57 0.124434
0.58 0.160789
0.59 0.196914
0.6 0.231538
0.61 0.263684
0.62 0.292363
0.63 0.316654
0.64 0.335731
0.65 0.348895
0.66 0.35517
0.67 0.354183
0.68 0.346147
0.69 0.331104
0.7 0.309286
0.71 0.281113
0.72 0.247177
0.73 0.207754
0.74 0.164396
0.75 0.118128
0.76 0.0700324
0.77 0.0212231
0.78 -0.027184
0.79 -0.0739766
0.8 -0.117958
0.81 -0.158347
0.82 -0.194384
0.83 -0.225456
0.84 -0.251113
0.85 -0.271082
0.86 -0.284676
0.87 -0.292537
0.88 -0.295035
0.89 -0.292613
0.9 -0.285843
0.91 -0.275404
0.92 -0.261977
0.93 -0.246416
0.94 -0.229772
0.95 -0.21287
0.96 -0.19649
0.97 -0.181347
0.98 -0.168065
0.99 -0.157421
1 -0.149675
1.01 -0.144997
1.02 -0.143486
1.03 -0.145109
1.04 -0.149712
1.05 -0.157094
1.06 -0.166976
1.07 -0.178665
1.08 -0.191656
1.09 -0.205416
1.1 -0.219407
1.11 -0.23311
1.12 -0.245944
1.13 -0.257474
1.14 -0.267398
1.15 -0.275468
1.16 -0.28153
1.17 -0.285525
1.18 -0.287452
1.19 -0.287301
1.2 -0.285497
1.21 -0.282322
1.22 -0.278108
1.23 -0.273219
1.24 -0.268031
1.25 -0.262945
1.26 -0.258353
1.27 -0.254549
1.28 -0.251776
1.29 -0.250211
1.3 -0.24996
1.31 -0.251059
1.32 -0.253579
1.33 -0.257229
1.34 -0.261802
1.35 -0.267037
1.36 -0.272629
1.37 -0.278248
1.38 -0.283511
1.39 -0.288031
1.4 -0.291522
1.41 -0.293715
1.42 -0.294397
1.43 -0.293417
1.44 -0.290696
1.45 -0.286049
1.46 -0.279762
1.47 -0.272019
1.48 -0.263066
1.49 -0.253208
1.5 -0.242798
1.51 -0.232238
1.52 -0.222002
1.53 -0.212502
1.54 -0.204124
1.55 -0.197218
1.56 -0.192079
1.57 -0.188942
1.58 -0.188186
1.59 -0.189693
1.6 -0.193384
1.61 -0.199129
1.62 -0.20671
1.63 -0.215829
1.64 -0.226144
1.65 -0.237197
1.66 -0.248424
1.67 -0.259329
1.68 -0.269413
1.69 -0.278195
1.7 -0.285226
1.71 -0.289885
1.72 -0.291947
1.73 -0.29124
1.74 -0.287624
1.75 -0.281052
1.76 -0.271573
1.77 -0.259267
1.78 -0.244247
1.79 -0.227098
1.8 -0.208222
1.81 -0.188073
1.82 -0.16714
1.83 -0.145928
1.84 -0.124999
1.85 -0.104889
1.86 -0.0860231
1.87 -0.0687835
1.88 -0.0534827
1.89 -0.0403557
1.9 -0.0295874
1.91 -0.0214442
1.92 -0.0156333
1.93 -0.0120185
1.94 -0.0103869
1.95 -0.0104596
1.96 -0.0119035
1.97 -0.0143867
1.98 -0.0174364
1.99 -0.0206065
2 -0.0235131
2.01 -0.0258032
2.02 -0.02717
2.03 -0.0273595
2.04 -0.0260305
2.05 -0.0232391
2.06 -0.0189841
2.07 -0.013345
2.08 -0.00647934
2.09 0.00138357
2.1 0.00997093
2.11 0.0188804
2.12 0.0276827
2.13 0.0359696
2.14 0.0433306
2.15 0.0493679
2.16 0.0537129
2.17 0.0557886
2.18 0.0555174
2.19 0.0527318
2.2 0.0473259
2.21 0.0392748
2.22 0.0286361
2.23 0.0154478
2.24 -9.01271e-05
2.25 -0.0175014
2.26 -0.0364267
2.27 -0.0564623
2.28 -0.077174
2.29 -0.0981116
2.3 -0.118758
2.31 -0.13865
2.32 -0.157395
2.33 -0.17464
2.34 -0.190087
2.35 -0.203502
2.36 -0.214644
2.37 -0.223309
2.38 -0.229689
2.39 -0.233858
2.4 -0.235963
2.41 -0.236205
2.42 -0.234838
2.43 -0.232068
2.44 -0.228333
2.45 -0.22401
2.46 -0.219432
2.47 -0.214922
2.48 -0.210777
2.49 -0.207281
2.5 -0.204738
2.51 -0.20324
2.52 -0.202893
2.53 -0.203743
2.54 -0.205785
2.55 -0.208961
2.56 -0.213234
2.57 -0.218397
2.58 -0.224222
2.59 -0.230503
2.6 -0.237021
2.61 -0.243556
2.62 -0.249886
2.63 -0.255753
2.64 -0.261013
2.65 -0.265527
2.66 -0.269188
2.67 -0.271932
2.68 -0.273727
2.69 -0.274525
2.7 -0.274394
2.71 -0.273466
2.72 -0.271848
2.73 -0.269668
2.74 -0.267064
2.75 -0.26418
2.76 -0.261156
2.77 -0.25815
2.78 -0.255275
2.79 -0.25262
2.8 -0.250252
2.81 -0.248209
2.82 -0.246515
2.83 -0.245148
2.84 -0.244034
2.85 -0.243096
2.86 -0.24224
2.87 -0.241357
2.88 -0.240332
2.89 -0.239005
2.9 -0.237278
2.91 -0.235052
2.92 -0.232242
2.93 -0.228782
2.94 -0.224633
2.95 -0.219749
2.96 -0.214126
2.97 -0.207861
2.98 -0.201024
2.99 -0.193704
3 -0.186011
3.01 -0.178063
3.02 -0.16999
3.03 -0.161944
3.04 -0.154049
3.05 -0.146416
3.06 -0.139138
3.07 -0.132288
3.08 -0.12593
3.09 -0.120111
3.1 -0.114772
3.11 -0.109871
3.12 -0.105336
3.13 -0.101072
3.14 -0.0969619
3.15 -0.0928619
3.16 -0.0886074
3.17 -0.0840477
3.18 -0.0790347
3.19 -0.0734278
3.2 -0.0670996
3.21 -0.0599218
3.22 -0.0517307
3.23 -0.0425547
3.24 -0.032369
3.25 -0.0211781
3.26 -0.00901504
3.27 0.00405979
3.28 0.0180143
3.29 0.0326993
3.3 0.0479534
3.31 0.0636403
3.32 0.0796191
3.33 0.0957501
3.34 0.111899
3.35 0.12792
3.36 0.143714
3.37 0.159201
3.38 0.174323
3.39 0.18905
3.4 0.203373
3.41 0.217287
3.42 0.230844
3.43 0.244128
3.44 0.257214
3.45 0.270188
3.46 0.283142
3.47 0.296163
3.48 0.309359
3.49 0.322785
3.5 0.336489
3.51 0.350495
3.52 0.364802
3.53 0.379381
3.54 0.394182
3.55 0.409103
3.56 0.424011
3.57 0.438762
3.58 0.453192
3.59 0.467119
3.6 0.480355
3.61 0.492589
3.62 0.503692
3.63 0.513491
3.64 0.52182
3.65 0.528531
3.66 0.533503
3.67 0.536567
3.68 0.537591
3.69 0.536701
3.7 0.533917
3.71 0.529292
3.72 0.522913
3.73 0.514897
3.74 0.505262
3.75 0.494299
3.76 0.482229
3.77 0.469246
3.78 0.455548
3.79 0.441332
3.8 0.426784
3.81 0.412096
3.82 0.397449
3.83 0.38298
3.84 0.368803
3.85 0.355006
3.86 0.341654
3.87 0.328827
3.88 0.316517
3.89 0.304696
3.9 0.293335
3.91 0.282392
3.92 0.271812
3.93 0.261538
3.94 0.251516
3.95 0.241655
3.96 0.231895
3.97 0.222184
3.98 0.212481
3.99 0.202753
4 0.192978
4.01 0.18315
4.02 0.17328
4.03 0.163386
4.04 0.153495
4.05 0.143641
4.06 0.133864
4.07 0.12422
4.08 0.114742
4.09 0.105466
4.1 0.0964232
4.11 0.0876388
4.12 0.0791292
4.13 0.0709193
4.14 0.0630048
4.15 0.055357
4.16 0.0479556
4.17 0.0407736
4.18 0.0337796
4.19 0.026939
4.2 0.0202265
4.21 0.0135931
4.22 0.00701014
4.23 0.000455483
4.24 -0.00608499
4.25 -0.0126164
4.26 -0.0191324
4.27 -0.0256136
4.28 -0.0320334
4.29 -0.038355
4.3 -0.0445342
4.31 -0.0505208
4.32 -0.0562611
4.33 -0.0616634
4.34 -0.0666949
4.35 -0.0713116
4.36 -0.075472
4.37 -0.0791439
4.38 -0.0823062
4.39 -0.0849309
4.4 -0.0870052
4.41 -0.0885935
4.42 -0.0897333
4.43 -0.0904747
4.44 -0.09088
4.45 -0.0910207
4.46 -0.0909669
4.47 -0.0908249
4.48 -0.0906844
4.49 -0.0906284
4.5 -0.0907346
4.51 -0.0910725
4.52 -0.0917097
4.53 -0.0927171
4.54 -0.0940942
4.55 -0.0958509
4.56 -0.0979806
4.57 -0.10046
4.58 -0.103252
4.59 -0.106316
4.6 -0.109568
4.61 -0.11292
4.62 -0.11629
4.63 -0.11959
4.64 -0.122734
4.65 -0.125636
4.66 -0.128182
4.67 -0.130336
4.68 -0.132044
4.69 -0.133272
4.7 -0.133996
4.71 -0.134211
4.72 -0.133897
4.73 -0.133097
4.74 -0.131881
4.75 -0.130307
4.76 -0.128445
4.77 -0.126371
4.78 -0.124166
4.79 -0.121921
4.8 -0.11973
4.81 -0.117672
4.82 -0.115819
4.83 -0.114233
4.84 -0.112965
4.85 -0.112077
4.86 -0.111596
4.87 -0.111508
4.88 -0.11181
4.89 -0.112484
4.9 -0.1135
4.91 -0.114821
4.92 -0.116423
4.93 -0.118223
4.94 -0.120163
4.95 -0.122187
4.96 -0.124242
4.97 -0.126277
4.98 -0.128243
4.99 -0.130096
5 -0.131811
5.01 -0.133369
5.02 -0.134761
5.03 -0.135982
5.04 -0.137039
5.05 -0.137929
5.06 -0.138685
5.07 -0.139331
5.08 -0.13989
5.09 -0.140389
5.1 -0.140849
5.11 -0.141291
5.12 -0.141736
5.13 -0.142196
5.14 -0.142677
5.15 -0.143182
5.16 -0.143705
5.17 -0.144238
5.18 -0.144766
5.19 -0.145271
5.2 -0.145734
5.21 -0.146134
5.22 -0.146453
5.23 -0.146672
5.24 -0.146775
5.25 -0.146738
5.26 -0.146568
5.27 -0.146263
5.28 -0.145827
5.29 -0.145267
5.3 -0.144598
5.31 -0.143827
5.32 -0.14298
5.33 -0.142079
5.34 -0.141144
5.35 -0.140192
5.36 -0.139237
5.37 -0.13829
5.38 -0.137356
5.39 -0.136432
5.4 -0.13551
5.41 -0.134574
5.42 -0.133603
5.43 -0.132572
5.44 -0.13144
5.45 -0.13017
5.46 -0.128732
5.47 -0.127091
5.48 -0.125215
5.49 -0.123077
5.5 -0.120653
5.51 -0.117895
5.52 -0.114836
5.53 -0.111481
5.54 -0.10785
5.55 -0.103972
5.56 -0.0998869
5.57 -0.0956369
5.58 -0.0912886
5.59 -0.0869157
5.6 -0.0825862
5.61 -0.0783694
5.62 -0.0743327
5.63 -0.0705398
5.64 -0.067085
5.65 -0.0639887
5.66 -0.0612807
5.67 -0.0589799
5.68 -0.0570901
5.69 -0.0555999
5.7 -0.0544961
5.71 -0.0537371
5.72 -0.0532355
5.73 -0.052919
5.74 -0.0527052
5.75 -0.0525054
5.76 -0.0522268
5.77 -0.0517506
5.78 -0.0509909
5.79 -0.0498699
5.8 -0.0483171
5.81 -0.0462752
5.82 -0.0437026
5.83 -0.0405572
5.84 -0.0368078
5.85 -0.0325214
5.86 -0.0277373
5.87 -0.0225132
5.88 -0.0169227
5.89 -0.0110536
5.9 -0.00499879
5.91 0.00111148
5.92 0.00716153
5.93 0.0130422
5.94 0.0186495
5.95 0.0238886
5.96 0.0286657
5.97 0.03287
5.98 0.0365028
5.99 0.0395419
6 0.0419865
6.01 0.0438576
6.02 0.0451972
6.03 0.0460381
6.04 0.0464887
6.05 0.0466659
6.06 0.0466775
6.07 0.0466377
6.08 0.0466629
6.09 0.0468706
6.1 0.0474084
6.11 0.0483488
6.12 0.0497709
6.13 0.0517356
6.14 0.0542836
6.15 0.0574333
6.16 0.0612169
6.17 0.0655928
6.18 0.070474
6.19 0.0757853
6.2 0.0814341
6.21 0.0873137
6.22 0.0933066
6.23 0.0992728
6.24 0.105076
6.25 0.110593
6.26 0.115708
6.27 0.120318
6.28 0.124334
6.29 0.127645
6.3 0.130188
6.31 0.131982
6.32 0.133025
6.33 0.133339
6.34 0.132965
6.35 0.131964
6.36 0.130364
6.37 0.128323
6.38 0.125949
6.39 0.123352
6.4 0.120643
6.41 0.117932
6.42 0.115328
6.43 0.112943
6.44 0.110843
6.45 0.10909
6.46 0.107725
6.47 0.106772
6.48 0.106236
6.49 0.106138
6.5 0.106411
6.51 0.106993
6.52 0.107819
6.53 0.108816
6.54 0.109901
6.55 0.110984
6.56 0.111964
6.57 0.112758
6.58 0.113293
6.59 0.113501
6.6 0.113328
6.61 0.112734
6.62 0.111654
6.63 0.110102
6.64 0.108101
6.65 0.105677
6.66 0.102866
6.67 0.099718
6.68 0.0962876
6.69 0.0926341
6.7 0.0888556
6.71 0.0850254
6.72 0.0812158
6.73 0.0774952
6.74 0.0739257
6.75 0.0705803
6.76 0.0675024
6.77 0.0647134
6.78 0.0622329
6.79 0.0600687
6.8 0.0582173
6.81 0.056667
6.82 0.0554182
6.83 0.0544057
6.84 0.0535905
6.85 0.0529297
6.86 0.0523785
6.87 0.0518922
6.88 0.0514262
6.89 0.0509352
6.9 0.0503846
6.91 0.0497467
6.92 0.0490005
6.93 0.0481317
6.94 0.0471333
6.95 0.0459903
6.96 0.0447241
6.97 0.0433468
6.98 0.0418735
6.99 0.0403218
7 0.0387104
7.01 0.0370566
7.02 0.035379
7.03 0.033694
7.04 0.0320112
7.05 0.0303365
7.06 0.0286707
7.07 0.0270104
7.08 0.0253457
7.09 0.023663
7.1 0.0219462
7.11 0.0201771
7.12 0.0183367
7.13 0.0164062
7.14 0.0143633
7.15 0.0121872
7.16 0.00987703
7.17 0.00742831
7.18 0.00484248
7.19 0.00212728
7.2 -0.000702953
7.21 -0.00363343
7.22 -0.00662636
7.23 -0.00964521
7.24 -0.0126512
7.25 -0.015602
7.26 -0.0184532
7.27 -0.0211544
7.28 -0.0236437
7.29 -0.0258933
7.3 -0.0278658
7.31 -0.0295291
7.32 -0.0308577
7.33 -0.031833
7.34 -0.0324151
7.35 -0.0326197
7.36 -0.0324691
7.37 -0.0319806
7.38 -0.0311793
7.39 -0.0300977
7.4 -0.0287709
7.41 -0.027232
7.42 -0.0255527
7.43 -0.0237833
7.44 -0.0219746
7.45 -0.0201768
7.46 -0.0184384
7.47 -0.0168148
7.48 -0.0153496
7.49 -0.0140721
7.5 -0.0130109
7.51 -0.0121885
7.52 -0.011621
7.53 -0.0113195
7.54 -0.0113155
7.55 -0.0115755
7.56 -0.0120906
7.57 -0.0128473
7.58 -0.0138285
7.59 -0.0150139
7.6 -0.0163904
7.61 -0.0179298
7.62 -0.0195969
7.63 -0.0213666
7.64 -0.0232144
7.65 -0.0251166
7.66 -0.0270505
7.67 -0.0289939
7.68 -0.0309244
7.69 -0.0328243
7.7 -0.0346773
7.71 -0.036469
7.72 -0.0381861
7.73 -0.0398123
7.74 -0.0413338
7.75 -0.0427479
7.76 -0.0440472
7.77 -0.0452258
7.78 -0.0462791
7.79 -0.0472042
7.8 -0.0479866
7.81 -0.0486383
7.82 -0.0491644
7.83 -0.0495699
7.84 -0.0498619
7.85 -0.0500495
7.86 -0.0501408
7.87 -0.0501468
7.88 -0.0500895
7.89 -0.049984
7.9 -0.0498462
7.91 -0.0496914
7.92 -0.0495345
7.93 -0.049391
7.94 -0.0492723
7.95 -0.049186
7.96 -0.0491366
7.97 -0.0491249
7.98 -0.0491477
7.99 -0.049198
8 -0.0492634
8.01 -0.0493252
8.02 -0.0493637
8.03 -0.0493567
8.04 -0.0492801
8.05 -0.0491091
8.06 -0.0488076
8.07 -0.0483545
8.08 -0.0477349
8.09 -0.0469331
8.1 -0.0459389
8.11 -0.0447479
8.12 -0.0433602
8.13 -0.0417719
8.14 -0.0400228
8.15 -0.0381404
8.16 -0.0361596
8.17 -0.0341216
8.18 -0.032073
8.19 -0.0300713
8.2 -0.0281771
8.21 -0.0264424
8.22 -0.0249196
8.23 -0.0236577
8.24 -0.0227004
8.25 -0.0220851
8.26 -0.0218815
8.27 -0.022064
8.28 -0.0226342
8.29 -0.0235816
8.3 -0.0248829
8.31 -0.0265022
8.32 -0.0284037
8.33 -0.030519
8.34 -0.0327623
8.35 -0.0350566
8.36 -0.0373205
8.37 -0.0394707
8.38 -0.0414242
8.39 -0.0430629
8.4 -0.0443353
8.41 -0.0451811
8.42 -0.0455489
8.43 -0.0454005
8.44 -0.0447122
8.45 -0.0434515
8.46 -0.0416154
8.47 -0.0392711
8.48 -0.0364616
8.49 -0.0332434
8.5 -0.0296847
8.51 -0.0258633
8.52 -0.021856
8.53 -0.0177763
8.54 -0.0137178
8.55 -0.00976813
8.56 -0.00600964
8.57 -0.00251636
8.58 0.000635118
8.59 0.00337046
8.6 0.0056854
8.61 0.007563
8.62 0.00900215
8.63 0.0100172
8.64 0.0106374
8.65 0.0108792
8.66 0.0108253
8.67 0.0105516
8.68 0.0101293
8.69 0.00963263
8.7 0.00913595
8.71 0.00871411
8.72 0.00845034
8.73 0.00839166
8.74 0.00858209
8.75 0.00905302
8.76 0.00982211
8.77 0.0108927
8.78 0.012274
8.79 0.0139252
8.8 0.0157937
8.81 0.0178283
8.82 0.0199692
8.83 0.0221506
8.84 0.0243026
8.85 0.0263382
8.86 0.0281962
8.87 0.0298167
8.88 0.0311483
8.89 0.03215
8.9 0.0327928
8.91 0.0330366
8.92 0.0328867
8.93 0.0323787
8.94 0.0315421
8.95 0.0304185
8.96 0.02906
8.97 0.0275269
8.98 0.0258814
8.99 0.0242127
9 0.0225909
9.01 0.0210829
9.02 0.01975
9.03 0.0186458
9.04 0.0178296
9.05 0.0173385
9.06 0.0171695
9.07 0.0173232
9.08 0.0177866
9.09 0.0185337
9.1 0.0195263
9.11 0.0207308
9.12 0.0220643
9.13 0.0234607
9.14 0.0248537
9.15 0.0261769
9.16 0.027367
9.17 0.0283558
9.18 0.02908
9.19 0.0295181
9.2 0.0296454
9.21 0.0294506
9.22 0.028936
9.23 0.0281173
9.24 0.0270007
9.25 0.0256541
9.26 0.0241362
9.27 0.0225075
9.28 0.0208335
9.29 0.0191819
9.3 0.0176249
9.31 0.0162426
9.32 0.0150822
9.33 0.0141906
9.34 0.0136035
9.35 0.0133444
9.36 0.013423
9.37 0.0138619
9.38 0.0146205
9.39 0.015653
9.4 0.0169127
9.41 0.0183427
9.42 0.0198786
9.43 0.0214498
9.44 0.0229717
9.45 0.0243708
9.46 0.0255797
9.47 0.0265378
9.48 0.0271933
9.49 0.0275055
9.5 0.027418
9.51 0.0269284
9.52 0.0260573
9.53 0.0248233
9.54 0.0232588
9.55 0.0214082
9.56 0.0193253
9.57 0.0170662
9.58 0.0147255
9.59 0.0123769
9.6 0.0100937
9.61 0.00794624
9.62 0.00599908
9.63 0.00432779
9.64 0.00298168
9.65 0.00197703
9.66 0.00133122
9.67 0.00104779
9.68 0.00111649
9.69 0.00151387
9.7 0.00223289
9.71 0.00318793
9.72 0.00432207
9.73 0.00557346
9.74 0.00687738
9.75 0.00816899
9.76 0.00937904
9.77 0.0104409
9.78 0.0113128
9.79 0.0119574
9.8 0.0123491
9.81 0.0124744
9.82 0.0123328
9.83 0.0119128
9.84 0.0112675
9.85 0.0104388
9.86 0.00947476
9.87 0.00843028
9.88 0.00736517
9.89 0.00634576
9.9 0.00544585
9.91 0.00471868
9.92 0.00421528
9.93 0.00397828
9.94 0.0040401
9.95 0.00442151
9.96 0.00516071
9.97 0.00622687
9.98 0.00759055
9.99 0.00921795
10 0.0110643
10.01 0.0130753
10.02 0.0151905
10.03 0.0173359
10.04 0.0194342
10.05 0.0214168
10.06 0.0232186
10.07 0.0247802
10.08 0.0260502
10.09 0.026957
10.1 0.0274846
10.11 0.0276305
10.12 0.0273934
10.13 0.0267851
10.14 0.0258297
10.15 0.0245575
10.16 0.0229993
10.17 0.02124
10.18 0.0193402
10.19 0.0173628
10.2 0.0153718
10.21 0.0134288
10.22 0.0116031
10.23 0.00994957
10.24 0.00850405
10.25 0.00729789
10.26 0.00635184
10.27 0.00567558
10.28 0.00526955
10.29 0.00514547
10.3 0.00524961
10.31 0.00554959
10.32 0.00600654
10.33 0.006577
10.34 0.00721481
10.35 0.00787156
10.36 0.00849522
10.37 0.00904415
10.38 0.00948288
10.39 0.00978262
10.4 0.00992228
10.41 0.00988906
10.42 0.00965913
10.43 0.00925786
10.44 0.00869982
10.45 0.00800541
10.46 0.00720027
10.47 0.00631378
10.48 0.00537664
10.49 0.00442496
10.5 0.00349156
10.51 0.00260277
10.52 0.00178008
10.53 0.00103905
10.54 0.000388437
10.55 -0.000161463
10.56 -0.000626502
10.57 -0.00102285
10.58 -0.00137143
10.59 -0.0016982
10.6 -0.00203278
10.61 -0.00240966
10.62 -0.00286814
10.63 -0.00343433
10.64 -0.00413399
10.65 -0.00498732
10.66 -0.00600745
10.67 -0.00719931
10.68 -0.00857264
10.69 -0.0100993
10.7 -0.011749
10.71 -0.0134864
10.72 -0.0152683
10.73 -0.0170448
10.74 -0.0187574
10.75 -0.0203324
10.76 -0.0217176
10.77 -0.0228564
10.78 -0.0236969
10.79 -0.0241943
10.8 -0.0243128
10.81 -0.0239943
10.82 -0.0232444
10.83 -0.0220834
10.84 -0.020531
10.85 -0.0186206
10.86 -0.0163997
10.87 -0.0139252
10.88 -0.0112623
10.89 -0.00851669
10.9 -0.00577518
10.91 -0.0031273
10.92 -0.000662245
10.93 0.00153415
10.94 0.00335352
10.95 0.00472447
10.96 0.00560991
10.97 0.00597004
10.98 0.00578136
10.99 0.00503777
11 0.0037488
11.01 0.00189436
11.02 -0.000413407
11.03 -0.00310769
11.04 -0.00610838
11.05 -0.00932449
11.06 -0.012657
11.07 -0.0159963
11.08 -0.0192204
11.09 -0.0222272
11.1 -0.0249203
11.11 -0.0272128
11.12 -0.0290295
11.13 -0.03031
11.14 -0.0309426
11.15 -0.0309622
11.16 -0.0303694
11.17 -0.0291796
11.18 -0.027426
11.19 -0.0251582
11.2 -0.0224236
11.21 -0.0193029
11.22 -0.0159161
11.23 -0.0123581
11.24 -0.00872691
11.25 -0.0051199
11.26 -0.00163128
11.27 0.00162266
11.28 0.00457333
11.29 0.00716059
11.3 0.00933406
11.31 0.0110582
11.32 0.0123127
11.33 0.0130769
11.34 0.0133433
11.35 0.0131792
11.36 0.0126255
11.37 0.0117335
11.38 0.0105627
11.39 0.00917839
11.4 0.00764274
11.41 0.00604196
11.42 0.0044465
11.43 0.00291816
11.44 0.00151199
11.45 0.000274617
11.46 -0.000751363
11.47 -0.00152173
11.48 -0.00204403
11.49 -0.00231706
11.5 -0.00235007
11.51 -0.00216181
11.52 -0.00177932
11.53 -0.00122718
11.54 -0.000556186
11.55 0.000184799
11.56 0.000952325
11.57 0.00170399
11.58 0.00240012
11.59 0.00300372
11.6 0.00347108
11.61 0.00379112
11.62 0.00394999
11.63 0.00394154
11.64 0.00376723
11.65 0.00343572
11.66 0.00295434
11.67 0.00235002
11.68 0.00165631
11.69 0.000902509
11.7 0.000119384
11.71 -0.000662168
11.72 -0.00141233
11.73 -0.00209441
11.74 -0.00269011
11.75 -0.00318141
11.76 -0.00355548
11.77 -0.00380495
11.78 -0.00392797
11.79 -0.0039218
11.8 -0.00379605
11.81 -0.00357208
11.82 -0.00326682
11.83 -0.00289947
