# xPDFsuite Configuration #
[PDF]
wavelength = 0.1
dataformat = QA
inputfile = BiMsol6_insitu_700 C-00477.xy
backgroundfile = Quartz2mm-dist500-00000.xy
mode = xray
bgscale = 0.0042
composition = Bi2Fe4O9
outputtype = gr
qmaxinst = 24.998449118
qmin = 0.1
qmax = 21.4986662415
rmax = 80.0
rmin = 0.0
rstep = 0.01
rpoly = 0.9

[Misc]
inputdir = C:/Data/Seafile/CPH/Beamtime/Desy Oct 20/In situ data/Processed/BiMsol6/PDF
savedir = C:/Data/Seafile/CPH/Beamtime/Desy Oct 20/In situ data/PDF/BiMsol6
backgroundfilefull = C:/Data/Seafile/CPH/Beamtime/Desy Oct 20/In situ data/Processed/Standard_Empty_Cap/Quartz2mm-dist500-00000.xy

#### start data
#S 1
#L r($\AA$)  G($\AA^{-2}$)
0 0
0.01 0.00675989
0.02 0.01314
0.03 0.0188151
0.04 0.0234934
0.05 0.0269298
0.06 0.0289371
0.07 0.0293102
0.08 0.0279886
0.09 0.0251216
0.1 0.0208315
0.11 0.015309
0.12 0.00880431
0.13 0.00161642
0.14 -0.00591944
0.15 -0.0133782
0.16 -0.0204015
0.17 -0.0266529
0.18 -0.0318302
0.19 -0.0356804
0.2 -0.037943
0.21 -0.0384387
0.22 -0.0372669
0.23 -0.0344936
0.24 -0.0302667
0.25 -0.0248109
0.26 -0.0184192
0.27 -0.0114236
0.28 -0.00430819
0.29 0.00249633
0.3 0.00857171
0.31 0.0135197
0.32 0.0169814
0.33 0.0185934
0.34 0.0179992
0.35 0.0152476
0.36 0.0103309
0.37 0.00334995
0.38 -0.00548525
0.39 -0.0158578
0.4 -0.0274021
0.41 -0.03948
0.42 -0.051465
0.43 -0.0627206
0.44 -0.0725875
0.45 -0.0804089
0.46 -0.0854904
0.47 -0.0869398
0.48 -0.084558
0.49 -0.077982
0.5 -0.0669749
0.51 -0.0514409
0.52 -0.0314352
0.53 -0.00688821
0.54 0.021633
0.55 0.0533813
0.56 0.0876619
0.57 0.123663
0.58 0.160476
0.59 0.197115
0.6 0.232318
0.61 0.265102
0.62 0.294478
0.63 0.31952
0.64 0.339399
0.65 0.353403
0.66 0.360547
0.67 0.360441
0.68 0.353278
0.69 0.339082
0.7 0.318066
0.71 0.290627
0.72 0.257337
0.73 0.218439
0.74 0.175476
0.75 0.129458
0.76 0.0814552
0.77 0.0325725
0.78 -0.016079
0.79 -0.063296
0.8 -0.107879
0.81 -0.149027
0.82 -0.185964
0.83 -0.218061
0.84 -0.244846
0.85 -0.266023
0.86 -0.28088
0.87 -0.290025
0.88 -0.2938
0.89 -0.292621
0.9 -0.287036
0.91 -0.277703
0.92 -0.26528
0.93 -0.250602
0.94 -0.234721
0.95 -0.218458
0.96 -0.202597
0.97 -0.187861
0.98 -0.174886
0.99 -0.164462
1 -0.156877
1.01 -0.152328
1.02 -0.15094
1.03 -0.152705
1.04 -0.157496
1.05 -0.165139
1.06 -0.175381
1.07 -0.187542
1.08 -0.201125
1.09 -0.215605
1.1 -0.230442
1.11 -0.245111
1.12 -0.259024
1.13 -0.271721
1.14 -0.282869
1.15 -0.292192
1.16 -0.299501
1.17 -0.304702
1.18 -0.307756
1.19 -0.308605
1.2 -0.307646
1.21 -0.305134
1.22 -0.301375
1.23 -0.296714
1.24 -0.291515
1.25 -0.28616
1.26 -0.281051
1.27 -0.276508
1.28 -0.272797
1.29 -0.270126
1.3 -0.268636
1.31 -0.268408
1.32 -0.269561
1.33 -0.271864
1.34 -0.275162
1.35 -0.279242
1.36 -0.283851
1.37 -0.288699
1.38 -0.293459
1.39 -0.297776
1.4 -0.301367
1.41 -0.303974
1.42 -0.305379
1.43 -0.305421
1.44 -0.303998
1.45 -0.300913
1.46 -0.296378
1.47 -0.290525
1.48 -0.28354
1.49 -0.275666
1.5 -0.267192
1.51 -0.258446
1.52 -0.249824
1.53 -0.241692
1.54 -0.234382
1.55 -0.228201
1.56 -0.223412
1.57 -0.220226
1.58 -0.218972
1.59 -0.219569
1.6 -0.221967
1.61 -0.226063
1.62 -0.231681
1.63 -0.238576
1.64 -0.246464
1.65 -0.254957
1.66 -0.263583
1.67 -0.27192
1.68 -0.27955
1.69 -0.286063
1.7 -0.291082
1.71 -0.294084
1.72 -0.294885
1.73 -0.293346
1.74 -0.289359
1.75 -0.282893
1.76 -0.274006
1.77 -0.262782
1.78 -0.249338
1.79 -0.234183
1.8 -0.217673
1.81 -0.200207
1.82 -0.182211
1.83 -0.164125
1.84 -0.146442
1.85 -0.129612
1.86 -0.113987
1.87 -0.0998793
1.88 -0.087541
1.89 -0.0771518
1.9 -0.0688453
1.91 -0.0628201
1.92 -0.0587884
1.93 -0.0566007
1.94 -0.0560421
1.95 -0.0568415
1.96 -0.0586845
1.97 -0.061248
1.98 -0.0641065
1.99 -0.0668714
2 -0.0692063
2.01 -0.0708088
2.02 -0.0714234
2.03 -0.0708478
2.04 -0.0687991
2.05 -0.0653783
2.06 -0.0606237
2.07 -0.0546481
2.08 -0.0476356
2.09 -0.0398347
2.1 -0.0315424
2.11 -0.0231651
2.12 -0.0151133
2.13 -0.0077828
2.14 -0.00156591
2.15 0.00316343
2.16 0.00606417
2.17 0.00658259
2.18 0.00468822
2.19 0.000248467
2.2 -0.00680919
2.21 -0.0164776
2.22 -0.0286695
2.23 -0.043315
2.24 -0.0601856
2.25 -0.0787945
2.26 -0.0987692
2.27 -0.119698
2.28 -0.141143
2.29 -0.162655
2.3 -0.183707
2.31 -0.203858
2.32 -0.222732
2.33 -0.23999
2.34 -0.255351
2.35 -0.268602
2.36 -0.279516
2.37 -0.287914
2.38 -0.294008
2.39 -0.297896
2.4 -0.299739
2.41 -0.299758
2.42 -0.298221
2.43 -0.295357
2.44 -0.291614
2.45 -0.287376
2.46 -0.282988
2.47 -0.27878
2.48 -0.275056
2.49 -0.272107
2.5 -0.27025
2.51 -0.269569
2.52 -0.270166
2.53 -0.272089
2.54 -0.275329
2.55 -0.279822
2.56 -0.285533
2.57 -0.292238
2.58 -0.299696
2.59 -0.307686
2.6 -0.315973
2.61 -0.324318
2.62 -0.332481
2.63 -0.340178
2.64 -0.347241
2.65 -0.353506
2.66 -0.358844
2.67 -0.363162
2.68 -0.366408
2.69 -0.368498
2.7 -0.36948
2.71 -0.369476
2.72 -0.368579
2.73 -0.366906
2.74 -0.36459
2.75 -0.361773
2.76 -0.358574
2.77 -0.355186
2.78 -0.351737
2.79 -0.348335
2.8 -0.345069
2.81 -0.342004
2.82 -0.339192
2.83 -0.336646
2.84 -0.334331
2.85 -0.332202
2.86 -0.330199
2.87 -0.328241
2.88 -0.326239
2.89 -0.324071
2.9 -0.321643
2.91 -0.318863
2.92 -0.315648
2.93 -0.311927
2.94 -0.307645
2.95 -0.302739
2.96 -0.297173
2.97 -0.290995
2.98 -0.28423
2.99 -0.276916
3 -0.269102
3.01 -0.260846
3.02 -0.25218
3.03 -0.2432
3.04 -0.233968
3.05 -0.224526
3.06 -0.214904
3.07 -0.205111
3.08 -0.195133
3.09 -0.184921
3.1 -0.174432
3.11 -0.16359
3.12 -0.152297
3.13 -0.140445
3.14 -0.127911
3.15 -0.114488
3.16 -0.100078
3.17 -0.0845882
3.18 -0.0679125
3.19 -0.0499647
3.2 -0.0306827
3.21 -0.010005
3.22 0.0121669
3.23 0.0356551
3.24 0.0603756
3.25 0.0862066
3.26 0.11299
3.27 0.140533
3.28 0.168632
3.29 0.196982
3.3 0.225289
3.31 0.253265
3.32 0.280618
3.33 0.307059
3.34 0.332294
3.35 0.355887
3.36 0.377737
3.37 0.39764
3.38 0.415429
3.39 0.43097
3.4 0.444174
3.41 0.454842
3.42 0.46299
3.43 0.468792
3.44 0.472328
3.45 0.473711
3.46 0.473083
3.47 0.47061
3.48 0.466304
3.49 0.460571
3.5 0.453617
3.51 0.445643
3.52 0.436844
3.53 0.427408
3.54 0.417488
3.55 0.407258
3.56 0.396874
3.57 0.386447
3.58 0.376066
3.59 0.3658
3.6 0.355701
3.61 0.345829
3.62 0.336188
3.63 0.326785
3.64 0.317625
3.65 0.308711
3.66 0.300045
3.67 0.291644
3.68 0.283532
3.69 0.275711
3.7 0.268212
3.71 0.261076
3.72 0.254354
3.73 0.248104
3.74 0.242451
3.75 0.237439
3.76 0.233133
3.77 0.229609
3.78 0.226943
3.79 0.225205
3.8 0.22449
3.81 0.224915
3.82 0.22643
3.83 0.229059
3.84 0.23281
3.85 0.237674
3.86 0.243627
3.87 0.250711
3.88 0.258812
3.89 0.267822
3.9 0.277657
3.91 0.288225
3.92 0.299424
3.93 0.311155
3.94 0.323328
3.95 0.335782
3.96 0.348406
3.97 0.361094
3.98 0.373741
3.99 0.386248
4 0.398498
4.01 0.410396
4.02 0.421874
4.03 0.432855
4.04 0.443267
4.05 0.453044
4.06 0.462116
4.07 0.470339
4.08 0.477732
4.09 0.48424
4.1 0.489809
4.11 0.494386
4.12 0.49792
4.13 0.500295
4.14 0.501463
4.15 0.501447
4.16 0.500212
4.17 0.497731
4.18 0.493984
4.19 0.488959
4.2 0.482512
4.21 0.474794
4.22 0.465834
4.23 0.455667
4.24 0.444338
4.25 0.431904
4.26 0.418385
4.27 0.403847
4.28 0.388444
4.29 0.372263
4.3 0.355391
4.31 0.337919
4.32 0.319932
4.33 0.301475
4.34 0.282668
4.35 0.263582
4.36 0.244271
4.37 0.224778
4.38 0.205135
4.39 0.185358
4.4 0.165453
4.41 0.145426
4.42 0.125267
4.43 0.104963
4.44 0.0844929
4.45 0.0638382
4.46 0.0429612
4.47 0.0218616
4.48 0.000541181
4.49 -0.0209938
4.5 -0.0427249
4.51 -0.0646207
4.52 -0.0866367
4.53 -0.108706
4.54 -0.13074
4.55 -0.152648
4.56 -0.174324
4.57 -0.195658
4.58 -0.21653
4.59 -0.236759
4.6 -0.256231
4.61 -0.274849
4.62 -0.292502
4.63 -0.309089
4.64 -0.324523
4.65 -0.338715
4.66 -0.3515
4.67 -0.362978
4.68 -0.373147
4.69 -0.382027
4.7 -0.389658
4.71 -0.396102
4.72 -0.401369
4.73 -0.405595
4.74 -0.408945
4.75 -0.411542
4.76 -0.413514
4.77 -0.414989
4.78 -0.416095
4.79 -0.416944
4.8 -0.417684
4.81 -0.418416
4.82 -0.419226
4.83 -0.420184
4.84 -0.421341
4.85 -0.422748
4.86 -0.424424
4.87 -0.42635
4.88 -0.428507
4.89 -0.430864
4.9 -0.433377
4.91 -0.435994
4.92 -0.438655
4.93 -0.441286
4.94 -0.443823
4.95 -0.446204
4.96 -0.448371
4.97 -0.450271
4.98 -0.451841
4.99 -0.453028
5 -0.453826
5.01 -0.454211
5.02 -0.454168
5.03 -0.453687
5.04 -0.452765
5.05 -0.451354
5.06 -0.449492
5.07 -0.447188
5.08 -0.44444
5.09 -0.441246
5.1 -0.4376
5.11 -0.433474
5.12 -0.428829
5.13 -0.423685
5.14 -0.418017
5.15 -0.411802
5.16 -0.405014
5.17 -0.397626
5.18 -0.389559
5.19 -0.38083
5.2 -0.371445
5.21 -0.361401
5.22 -0.350703
5.23 -0.339369
5.24 -0.327412
5.25 -0.314841
5.26 -0.301766
5.27 -0.288255
5.28 -0.274383
5.29 -0.260234
5.3 -0.245901
5.31 -0.23148
5.32 -0.217085
5.33 -0.202816
5.34 -0.188765
5.35 -0.175017
5.36 -0.161648
5.37 -0.148731
5.38 -0.136368
5.39 -0.124548
5.4 -0.113289
5.41 -0.1026
5.42 -0.0924698
5.43 -0.0828795
5.44 -0.0738276
5.45 -0.0652579
5.46 -0.0570962
5.47 -0.0492904
5.48 -0.0417885
5.49 -0.0345408
5.5 -0.0275032
5.51 -0.020655
5.52 -0.0139491
5.53 -0.00737296
5.54 -0.000926537
5.55 0.00537737
5.56 0.0115135
5.57 0.0174312
5.58 0.0230736
5.59 0.0283974
5.6 0.0333419
5.61 0.0378448
5.62 0.0418454
5.63 0.0452881
5.64 0.0480553
5.65 0.0501696
5.66 0.0516175
5.67 0.0523966
5.68 0.0525224
5.69 0.0520288
5.7 0.0509467
5.71 0.0493453
5.72 0.0473564
5.73 0.0450852
5.74 0.0426473
5.75 0.0401661
5.76 0.0377682
5.77 0.0356125
5.78 0.0338168
5.79 0.0324865
5.8 0.0317178
5.81 0.0315899
5.82 0.0321624
5.83 0.0334977
5.84 0.0356467
5.85 0.0385305
5.86 0.042109
5.87 0.0463203
5.88 0.0510821
5.89 0.0562955
5.9 0.0618661
5.91 0.0676364
5.92 0.0734688
5.93 0.0792361
5.94 0.084817
5.95 0.0900997
5.96 0.0949759
5.97 0.0993227
5.98 0.103126
5.99 0.106354
6 0.109002
6.01 0.111085
6.02 0.112647
6.03 0.11372
6.04 0.114418
6.05 0.11486
6.06 0.115159
6.07 0.115435
6.08 0.11581
6.09 0.116404
6.1 0.117373
6.11 0.118783
6.12 0.120712
6.13 0.123216
6.14 0.126327
6.15 0.130051
6.16 0.134406
6.17 0.139328
6.18 0.144711
6.19 0.150455
6.2 0.156441
6.21 0.162536
6.22 0.168593
6.23 0.174419
6.24 0.179864
6.25 0.184778
6.26 0.189017
6.27 0.192452
6.28 0.194967
6.29 0.196413
6.3 0.196701
6.31 0.195858
6.32 0.193872
6.33 0.190757
6.34 0.18655
6.35 0.181315
6.36 0.175044
6.37 0.167941
6.38 0.160135
6.39 0.151753
6.4 0.142926
6.41 0.133789
6.42 0.124468
6.43 0.115101
6.44 0.105809
6.45 0.0966859
6.46 0.0878118
6.47 0.0792475
6.48 0.0710361
6.49 0.0632388
6.5 0.0558328
6.51 0.0487961
6.52 0.0421009
6.53 0.035708
6.54 0.0295693
6.55 0.0236349
6.56 0.0178479
6.57 0.0121356
6.58 0.00644537
6.59 0.000730935
6.6 -0.0050455
6.61 -0.0109116
6.62 -0.0168926
6.63 -0.0229855
6.64 -0.0291745
6.65 -0.0354357
6.66 -0.0417338
6.67 -0.0480237
6.68 -0.0542494
6.69 -0.0603334
6.7 -0.0662177
6.71 -0.0718355
6.72 -0.0771208
6.73 -0.0820099
6.74 -0.0864437
6.75 -0.0903282
6.76 -0.0936264
6.77 -0.0963255
6.78 -0.0983989
6.79 -0.0998285
6.8 -0.100605
6.81 -0.100723
6.82 -0.100125
6.83 -0.0988981
6.84 -0.0970612
6.85 -0.0946385
6.86 -0.0916561
6.87 -0.0881419
6.88 -0.0840944
6.89 -0.0795474
6.9 -0.0745536
6.91 -0.0691354
6.92 -0.0633126
6.93 -0.0571021
6.94 -0.0505179
6.95 -0.0435317
6.96 -0.0361938
6.97 -0.0285132
6.98 -0.0204968
6.99 -0.0121517
7 -0.00348546
7.01 0.00550835
7.02 0.0148225
7.03 0.0244234
7.04 0.0342957
7.05 0.0444221
7.06 0.0547828
7.07 0.0653561
7.08 0.0761357
7.09 0.0870773
7.1 0.098153
7.11 0.109337
7.12 0.120604
7.13 0.13193
7.14 0.143291
7.15 0.154661
7.16 0.166018
7.17 0.17734
7.18 0.188607
7.19 0.199799
7.2 0.210892
7.21 0.221852
7.22 0.232656
7.23 0.243276
7.24 0.253678
7.25 0.26382
7.26 0.273655
7.27 0.28312
7.28 0.29212
7.29 0.300619
7.3 0.308544
7.31 0.315817
7.32 0.322353
7.33 0.328066
7.34 0.33279
7.35 0.336468
7.36 0.339051
7.37 0.34046
7.38 0.340628
7.39 0.339492
7.4 0.336982
7.41 0.332943
7.42 0.327494
7.43 0.320634
7.44 0.312378
7.45 0.302757
7.46 0.291819
7.47 0.279546
7.48 0.266057
7.49 0.251505
7.5 0.235995
7.51 0.219639
7.52 0.202558
7.53 0.184872
7.54 0.16667
7.55 0.14814
7.56 0.1294
7.57 0.110565
7.58 0.0917407
7.59 0.0730252
7.6 0.0545238
7.61 0.036326
7.62 0.0184857
7.63 0.00105968
7.64 -0.0159038
7.65 -0.0323642
7.66 -0.0482875
7.67 -0.0635784
7.68 -0.0782696
7.69 -0.0923408
7.7 -0.105769
7.71 -0.118531
7.72 -0.1306
7.73 -0.141913
7.74 -0.152417
7.75 -0.16213
7.76 -0.171015
7.77 -0.179035
7.78 -0.186153
7.79 -0.192334
7.8 -0.197444
7.81 -0.201536
7.82 -0.204608
7.83 -0.20665
7.84 -0.207663
7.85 -0.20766
7.86 -0.206633
7.87 -0.204586
7.88 -0.201656
7.89 -0.197912
7.9 -0.193438
7.91 -0.188328
7.92 -0.182685
7.93 -0.176592
7.94 -0.170205
7.95 -0.163654
7.96 -0.157053
7.97 -0.150515
7.98 -0.144144
7.99 -0.138043
8 -0.132326
8.01 -0.12703
8.02 -0.122204
8.03 -0.117879
8.04 -0.114067
8.05 -0.110766
8.06 -0.107993
8.07 -0.105687
8.08 -0.10378
8.09 -0.102212
8.1 -0.100916
8.11 -0.0998213
8.12 -0.0988569
8.13 -0.0979485
8.14 -0.0970197
8.15 -0.0960134
8.16 -0.0948823
8.17 -0.09359
8.18 -0.0921126
8.19 -0.0904259
8.2 -0.0885376
8.21 -0.0864747
8.22 -0.084265
8.23 -0.0819455
8.24 -0.0795597
8.25 -0.0771558
8.26 -0.0747927
8.27 -0.0725192
8.28 -0.0703784
8.29 -0.0684066
8.3 -0.0666304
8.31 -0.0650655
8.32 -0.0637264
8.33 -0.0625999
8.34 -0.0616449
8.35 -0.0608203
8.36 -0.0600727
8.37 -0.0593382
8.38 -0.0585443
8.39 -0.0575882
8.4 -0.0563941
8.41 -0.0548816
8.42 -0.0529735
8.43 -0.0505993
8.44 -0.0476986
8.45 -0.0441957
8.46 -0.0400388
8.47 -0.0352578
8.48 -0.0298584
8.49 -0.0238649
8.5 -0.0173194
8.51 -0.010281
8.52 -0.0027925
8.53 0.00501235
8.54 0.0130238
8.55 0.0211325
8.56 0.0292252
8.57 0.0371878
8.58 0.044897
8.59 0.0522173
8.6 0.0590771
8.61 0.0653958
8.62 0.0711072
8.63 0.0761614
8.64 0.0805254
8.65 0.0841227
8.66 0.086999
8.67 0.089198
8.68 0.0907571
8.69 0.091726
8.7 0.0921645
8.71 0.0921308
8.72 0.0916786
8.73 0.0909231
8.74 0.0899346
8.75 0.0887787
8.76 0.0875132
8.77 0.0861864
8.78 0.0848356
8.79 0.0834872
8.8 0.0821501
8.81 0.0808191
8.82 0.0794769
8.83 0.0780946
8.84 0.076632
8.85 0.0750245
8.86 0.0732274
8.87 0.0711843
8.88 0.0688386
8.89 0.0661354
8.9 0.0630241
8.91 0.0594283
8.92 0.0553135
8.93 0.050679
8.94 0.0455105
8.95 0.0398045
8.96 0.0335682
8.97 0.0268185
8.98 0.0195301
8.99 0.0117988
9 0.00366757
9.01 -0.0048161
9.02 -0.0136021
9.03 -0.0226392
9.04 -0.0318853
9.05 -0.0412869
9.06 -0.0507886
9.07 -0.0603524
9.08 -0.0699455
9.09 -0.0795413
9.1 -0.0891188
9.11 -0.0986573
9.12 -0.108149
9.13 -0.117587
9.14 -0.126967
9.15 -0.136285
9.16 -0.145535
9.17 -0.154706
9.18 -0.163781
9.19 -0.172749
9.2 -0.181585
9.21 -0.19026
9.22 -0.198735
9.23 -0.206968
9.24 -0.214874
9.25 -0.222412
9.26 -0.22953
9.27 -0.236165
9.28 -0.242254
9.29 -0.247737
9.3 -0.252535
9.31 -0.256551
9.32 -0.2598
9.33 -0.26225
9.34 -0.26388
9.35 -0.264679
9.36 -0.264648
9.37 -0.263735
9.38 -0.262012
9.39 -0.259546
9.4 -0.256384
9.41 -0.252582
9.42 -0.248202
9.43 -0.2433
9.44 -0.237915
9.45 -0.232161
9.46 -0.226095
9.47 -0.219772
9.48 -0.213234
9.49 -0.206517
9.5 -0.199632
9.51 -0.192596
9.52 -0.185411
9.53 -0.17806
9.54 -0.170518
9.55 -0.162748
9.56 -0.154702
9.57 -0.146294
9.58 -0.1375
9.59 -0.128266
9.6 -0.118541
9.61 -0.108279
9.62 -0.0974398
9.63 -0.0859557
9.64 -0.0738118
9.65 -0.0610392
9.66 -0.0476494
9.67 -0.0336679
9.68 -0.0191341
9.69 -0.00410047
9.7 0.0114101
9.71 0.0272641
9.72 0.0433754
9.73 0.059653
9.74 0.0760027
9.75 0.0923295
9.76 0.10853
9.77 0.124499
9.78 0.140165
9.79 0.155457
9.8 0.170314
9.81 0.184685
9.82 0.198532
9.83 0.21177
9.84 0.224434
9.85 0.236531
9.86 0.248066
9.87 0.259056
9.88 0.269521
9.89 0.279465
9.9 0.288901
9.91 0.297892
9.92 0.306458
9.93 0.314617
9.94 0.32238
9.95 0.329751
9.96 0.336689
9.97 0.343205
9.98 0.34929
9.99 0.354914
10 0.360044
10.01 0.364643
10.02 0.368651
10.03 0.371987
10.04 0.374663
10.05 0.376644
10.06 0.377902
10.07 0.378414
10.08 0.37817
10.09 0.377106
10.1 0.375273
10.11 0.37272
10.12 0.369485
10.13 0.365615
10.14 0.361169
10.15 0.356207
10.16 0.350777
10.17 0.34501
10.18 0.33899
10.19 0.332802
10.2 0.326527
10.21 0.320246
10.22 0.31404
10.23 0.307983
10.24 0.302124
10.25 0.296508
10.26 0.291166
10.27 0.28612
10.28 0.281383
10.29 0.276982
10.3 0.272872
10.31 0.26903
10.32 0.265425
10.33 0.262025
10.34 0.258788
10.35 0.255677
10.36 0.252643
10.37 0.249637
10.38 0.246618
10.39 0.243549
10.4 0.240395
10.41 0.237127
10.42 0.233698
10.43 0.230101
10.44 0.226316
10.45 0.222328
10.46 0.218122
10.47 0.213684
10.48 0.208986
10.49 0.204006
10.5 0.198741
10.51 0.193171
10.52 0.187272
10.53 0.181016
10.54 0.174373
10.55 0.167263
10.56 0.159684
10.57 0.151607
10.58 0.142997
10.59 0.133821
10.6 0.124051
10.61 0.11364
10.62 0.102544
10.63 0.0908078
10.64 0.0784365
10.65 0.0654463
10.66 0.0518649
10.67 0.0377322
10.68 0.0230596
10.69 0.00795142
10.7 -0.00750461
10.71 -0.0232254
10.72 -0.0391217
10.73 -0.0551
10.74 -0.0710623
10.75 -0.0868952
10.76 -0.102512
10.77 -0.11783
10.78 -0.132776
10.79 -0.147286
10.8 -0.161311
10.81 -0.174772
10.82 -0.187669
10.83 -0.200022
10.84 -0.211845
10.85 -0.223164
10.86 -0.234021
10.87 -0.244463
10.88 -0.254529
10.89 -0.264326
10.9 -0.273927
10.91 -0.2834
10.92 -0.292814
10.93 -0.30223
10.94 -0.311707
10.95 -0.321289
10.96 -0.330999
10.97 -0.340846
10.98 -0.350826
10.99 -0.360919
11 -0.371088
11.01 -0.38128
11.02 -0.39142
11.03 -0.401432
11.04 -0.411232
11.05 -0.42073
11.06 -0.429833
11.07 -0.438416
11.08 -0.446376
11.09 -0.453662
11.1 -0.460203
11.11 -0.465936
11.12 -0.470815
11.13 -0.474804
11.14 -0.477781
11.15 -0.479837
11.16 -0.48099
11.17 -0.481263
11.18 -0.48069
11.19 -0.479316
11.2 -0.477158
11.21 -0.474262
11.22 -0.470737
11.23 -0.466639
11.24 -0.462018
11.25 -0.456921
11.26 -0.451386
11.27 -0.445403
11.28 -0.439025
11.29 -0.432265
11.3 -0.425119
11.31 -0.417573
11.32 -0.409606
11.33 -0.401169
11.34 -0.392201
11.35 -0.3827
11.36 -0.372629
11.37 -0.36195
11.38 -0.350632
11.39 -0.33865
11.4 -0.325925
11.41 -0.312494
11.42 -0.298383
11.43 -0.283613
11.44 -0.268217
11.45 -0.252238
11.46 -0.235723
11.47 -0.218716
11.48 -0.201343
11.49 -0.183687
11.5 -0.165835
11.51 -0.147877
11.52 -0.129901
11.53 -0.112004
11.54 -0.0942728
11.55 -0.076775
11.56 -0.0595716
11.57 -0.0427128
11.58 -0.0262376
11.59 -0.010179
11.6 0.00540831
11.61 0.0205658
11.62 0.0353015
11.63 0.0496319
11.64 0.06358
11.65 0.0771734
11.66 0.0904229
11.67 0.103369
11.68 0.116055
11.69 0.128505
11.7 0.140738
11.71 0.152766
11.72 0.164589
11.73 0.176177
11.74 0.187537
11.75 0.198642
11.76 0.209457
11.77 0.219944
11.78 0.230054
11.79 0.239711
11.8 0.248852
11.81 0.257453
11.82 0.265462
11.83 0.272836
11.84 0.279535
11.85 0.285526
11.86 0.290705
11.87 0.29513
11.88 0.298805
11.89 0.301734
11.9 0.303935
11.91 0.305428
11.92 0.306214
11.93 0.306313
11.94 0.30581
11.95 0.304744
11.96 0.303148
11.97 0.301054
11.98 0.298489
11.99 0.295428
12 0.291916
12.01 0.287962
12.02 0.283553
12.03 0.278668
12.04 0.273276
12.05 0.267319
12.06 0.260712
12.07 0.253449
12.08 0.245474
12.09 0.23673
12.1 0.227164
12.11 0.216725
12.12 0.205289
12.13 0.192871
12.14 0.179483
12.15 0.16512
12.16 0.149794
12.17 0.133535
12.18 0.116368
