# xPDFsuite Configuration #
[PDF]
wavelength = 0.1
dataformat = QA
inputfile = BiMsol6_insitu_700 C-00586.xy
backgroundfile = Quartz2mm-dist500-00000.xy
mode = xray
bgscale = 0.0042
composition = Bi2Fe4O9
outputtype = gr
qmaxinst = 24.998449118
qmin = 0.1
qmax = 21.4986662415
rmax = 80.0
rmin = 0.0
rstep = 0.01
rpoly = 0.9

[Misc]
inputdir = C:/Data/Seafile/CPH/Beamtime/Desy Oct 20/In situ data/Processed/BiMsol6/PDF
savedir = C:/Data/Seafile/CPH/Beamtime/Desy Oct 20/In situ data/PDF/BiMsol6
backgroundfilefull = C:/Data/Seafile/CPH/Beamtime/Desy Oct 20/In situ data/Processed/Standard_Empty_Cap/Quartz2mm-dist500-00000.xy

#### start data
#S 1
#L r($\AA$)  G($\AA^{-2}$)
0 0
0.01 0.00578121
0.02 0.0112292
0.03 0.0160591
0.04 0.0200155
0.05 0.0228845
0.06 0.0245038
0.07 0.0246966
0.08 0.0234136
0.09 0.0207893
0.1 0.0169356
0.11 0.012024
0.12 0.00627867
0.13 -3.40324e-05
0.14 -0.00661266
0.15 -0.0130853
0.16 -0.0191375
0.17 -0.0244752
0.18 -0.0288364
0.19 -0.032004
0.2 -0.0337564
0.21 -0.0339465
0.22 -0.0326745
0.23 -0.0300113
0.24 -0.0261006
0.25 -0.0211542
0.26 -0.0154437
0.27 -0.00928214
0.28 -0.00310286
0.29 0.00270805
0.3 0.00777665
0.31 0.01175
0.32 0.0143136
0.33 0.0151506
0.34 0.0139546
0.35 0.0107925
0.36 0.00567792
0.37 -0.0012764
0.38 -0.0098576
0.39 -0.0197561
0.4 -0.0306083
0.41 -0.0418175
0.42 -0.0528005
0.43 -0.0629639
0.44 -0.0716969
0.45 -0.0783941
0.46 -0.0824164
0.47 -0.0829385
0.48 -0.0798022
0.49 -0.0726868
0.5 -0.0613903
0.51 -0.0458429
0.52 -0.0261162
0.53 -0.00216685
0.54 0.0254552
0.55 0.0560365
0.56 0.0889134
0.57 0.123315
0.58 0.158382
0.59 0.193184
0.6 0.226526
0.61 0.257496
0.62 0.285169
0.63 0.30868
0.64 0.327254
0.65 0.340231
0.66 0.346687
0.67 0.346261
0.68 0.339145
0.69 0.325363
0.7 0.30512
0.71 0.278789
0.72 0.246909
0.73 0.209701
0.74 0.168618
0.75 0.124608
0.76 0.0786745
0.77 0.0318534
0.78 -0.0148119
0.79 -0.0601934
0.8 -0.103162
0.81 -0.142958
0.82 -0.178844
0.83 -0.210219
0.84 -0.23663
0.85 -0.257782
0.86 -0.272989
0.87 -0.282799
0.88 -0.287515
0.89 -0.287506
0.9 -0.283265
0.91 -0.275389
0.92 -0.264469
0.93 -0.251264
0.94 -0.236759
0.95 -0.221713
0.96 -0.206857
0.97 -0.192866
0.98 -0.180343
0.99 -0.170021
1 -0.162198
1.01 -0.157086
1.02 -0.154824
1.03 -0.155435
1.04 -0.158831
1.05 -0.164884
1.06 -0.1734
1.07 -0.183776
1.08 -0.195583
1.09 -0.208362
1.1 -0.221636
1.11 -0.234939
1.12 -0.24776
1.13 -0.259672
1.14 -0.270362
1.15 -0.27957
1.16 -0.287113
1.17 -0.292885
1.18 -0.296832
1.19 -0.298878
1.2 -0.299343
1.21 -0.298424
1.22 -0.296366
1.23 -0.293446
1.24 -0.289959
1.25 -0.286207
1.26 -0.282522
1.27 -0.279169
1.28 -0.276365
1.29 -0.274279
1.3 -0.273025
1.31 -0.272664
1.32 -0.273277
1.33 -0.274688
1.34 -0.27677
1.35 -0.27935
1.36 -0.282223
1.37 -0.28516
1.38 -0.287896
1.39 -0.290157
1.4 -0.291738
1.41 -0.292449
1.42 -0.292142
1.43 -0.290713
1.44 -0.288114
1.45 -0.284227
1.46 -0.279263
1.47 -0.273362
1.48 -0.266711
1.49 -0.25954
1.5 -0.25211
1.51 -0.244722
1.52 -0.23772
1.53 -0.231385
1.54 -0.225985
1.55 -0.221752
1.56 -0.218878
1.57 -0.217498
1.58 -0.217849
1.59 -0.219796
1.6 -0.223235
1.61 -0.228022
1.62 -0.23395
1.63 -0.240752
1.64 -0.248124
1.65 -0.255674
1.66 -0.262982
1.67 -0.269668
1.68 -0.275355
1.69 -0.279695
1.7 -0.282371
1.71 -0.282928
1.72 -0.281266
1.73 -0.277324
1.74 -0.271059
1.75 -0.262506
1.76 -0.251779
1.77 -0.239018
1.78 -0.224404
1.79 -0.20844
1.8 -0.191493
1.81 -0.17396
1.82 -0.156253
1.83 -0.138784
1.84 -0.122031
1.85 -0.106378
1.86 -0.0921108
1.87 -0.0794835
1.88 -0.0686848
1.89 -0.0598317
1.9 -0.0529948
1.91 -0.0482984
1.92 -0.045413
1.93 -0.0441477
1.94 -0.0442556
1.95 -0.0454447
1.96 -0.0473902
1.97 -0.0497522
1.98 -0.0521271
1.99 -0.0541671
2 -0.0555723
2.01 -0.0560853
2.02 -0.0555025
2.03 -0.0536785
2.04 -0.0503987
2.05 -0.0458297
2.06 -0.0400687
2.07 -0.0332844
2.08 -0.0257108
2.09 -0.0176391
2.1 -0.00942017
2.11 -0.00148816
2.12 0.00575597
2.13 0.0119172
2.14 0.0166149
2.15 0.0194978
2.16 0.0202575
2.17 0.0183595
2.18 0.0138548
2.19 0.00666913
2.2 -0.00320955
2.21 -0.0157119
2.22 -0.0306883
2.23 -0.0480011
2.24 -0.0673532
2.25 -0.0882174
2.26 -0.110179
2.27 -0.132794
2.28 -0.155599
2.29 -0.17813
2.3 -0.199825
2.31 -0.220277
2.32 -0.239133
2.33 -0.256082
2.34 -0.270877
2.35 -0.283342
2.36 -0.293293
2.37 -0.300596
2.38 -0.305529
2.39 -0.308235
2.4 -0.308921
2.41 -0.307851
2.42 -0.30533
2.43 -0.301631
2.44 -0.29722
2.45 -0.292492
2.46 -0.287797
2.47 -0.283463
2.48 -0.279788
2.49 -0.277048
2.5 -0.275546
2.51 -0.275322
2.52 -0.27645
2.53 -0.278943
2.54 -0.282759
2.55 -0.2878
2.56 -0.293993
2.57 -0.301087
2.58 -0.308817
2.59 -0.316946
2.6 -0.325228
2.61 -0.333417
2.62 -0.341273
2.63 -0.348507
2.64 -0.35498
2.65 -0.360547
2.66 -0.365102
2.67 -0.36858
2.68 -0.370959
2.69 -0.372186
2.7 -0.372344
2.71 -0.371584
2.72 -0.370028
2.73 -0.367816
2.74 -0.365101
2.75 -0.36204
2.76 -0.358787
2.77 -0.35552
2.78 -0.352367
2.79 -0.349434
2.8 -0.346803
2.81 -0.344526
2.82 -0.342651
2.83 -0.341174
2.84 -0.340035
2.85 -0.339176
2.86 -0.33852
2.87 -0.337976
2.88 -0.337445
2.89 -0.336801
2.9 -0.335942
2.91 -0.334778
2.92 -0.333227
2.93 -0.331224
2.94 -0.328722
2.95 -0.325669
2.96 -0.322041
2.97 -0.317891
2.98 -0.313246
2.99 -0.308149
3 -0.302647
3.01 -0.296791
3.02 -0.290605
3.03 -0.284159
3.04 -0.277486
3.05 -0.270593
3.06 -0.263471
3.07 -0.256085
3.08 -0.24836
3.09 -0.240178
3.1 -0.23145
3.11 -0.222042
3.12 -0.211801
3.13 -0.200564
3.14 -0.188161
3.15 -0.174296
3.16 -0.15886
3.17 -0.141756
3.18 -0.12287
3.19 -0.102117
3.2 -0.0794488
3.21 -0.0548203
3.22 -0.0281407
3.23 0.000304835
3.24 0.0303674
3.25 0.0618514
3.26 0.0945169
3.27 0.128085
3.28 0.162259
3.29 0.19663
3.3 0.230811
3.31 0.264433
3.32 0.297126
3.33 0.328532
3.34 0.358292
3.35 0.385872
3.36 0.411189
3.37 0.43402
3.38 0.454192
3.39 0.471579
3.4 0.486112
3.41 0.497591
3.42 0.506084
3.43 0.511838
3.44 0.514983
3.45 0.515685
3.46 0.514138
3.47 0.510558
3.48 0.504991
3.49 0.497899
3.5 0.489513
3.51 0.480054
3.52 0.469722
3.53 0.4587
3.54 0.447125
3.55 0.435134
3.56 0.422856
3.57 0.410356
3.58 0.397677
3.59 0.384837
3.6 0.371837
3.61 0.358644
3.62 0.34525
3.63 0.331634
3.64 0.317777
3.65 0.30367
3.66 0.289318
3.67 0.274735
3.68 0.25997
3.69 0.245111
3.7 0.230256
3.71 0.215526
3.72 0.201063
3.73 0.187026
3.74 0.173667
3.75 0.161153
3.76 0.14966
3.77 0.139379
3.78 0.130492
3.79 0.12317
3.8 0.117618
3.81 0.114086
3.82 0.112513
3.83 0.112962
3.84 0.11546
3.85 0.120002
3.86 0.12655
3.87 0.135182
3.88 0.145687
3.89 0.15786
3.9 0.171545
3.91 0.186567
3.92 0.202736
3.93 0.219871
3.94 0.237811
3.95 0.256271
3.96 0.275066
3.97 0.294022
3.98 0.312981
3.99 0.331802
4 0.350335
4.01 0.368471
4.02 0.386144
4.03 0.40329
4.04 0.419861
4.05 0.435821
4.06 0.45114
4.07 0.465729
4.08 0.479643
4.09 0.492864
4.1 0.505371
4.11 0.517137
4.12 0.528127
4.13 0.538243
4.14 0.547423
4.15 0.555646
4.16 0.562836
4.17 0.568908
4.18 0.573773
4.19 0.57734
4.2 0.57935
4.21 0.579859
4.22 0.578795
4.23 0.57609
4.24 0.571691
4.25 0.565559
4.26 0.55759
4.27 0.547754
4.28 0.536196
4.29 0.522963
4.3 0.508122
4.31 0.491756
4.32 0.473965
4.33 0.454743
4.34 0.434342
4.35 0.412915
4.36 0.390596
4.37 0.36752
4.38 0.343819
4.39 0.319603
4.4 0.294984
4.41 0.270102
4.42 0.245044
4.43 0.219882
4.44 0.194678
4.45 0.169478
4.46 0.144323
4.47 0.119237
4.48 0.0942333
4.49 0.0693233
4.5 0.0445148
4.51 0.0198169
4.52 -0.00475469
4.53 -0.02917
4.54 -0.0534127
4.55 -0.0774455
4.56 -0.101221
4.57 -0.12468
4.58 -0.147754
4.59 -0.17032
4.6 -0.192299
4.61 -0.213614
4.62 -0.234168
4.63 -0.253864
4.64 -0.272608
4.65 -0.290293
4.66 -0.306738
4.67 -0.321985
4.68 -0.335987
4.69 -0.348714
4.7 -0.360153
4.71 -0.370313
4.72 -0.379138
4.73 -0.38671
4.74 -0.39316
4.75 -0.398574
4.76 -0.40305
4.77 -0.406698
4.78 -0.409634
4.79 -0.41193
4.8 -0.413784
4.81 -0.415315
4.82 -0.416633
4.83 -0.417838
4.84 -0.419019
4.85 -0.420254
4.86 -0.421606
4.87 -0.423109
4.88 -0.424778
4.89 -0.426615
4.9 -0.428605
4.91 -0.430719
4.92 -0.43292
4.93 -0.435141
4.94 -0.437321
4.95 -0.439396
4.96 -0.441301
4.97 -0.442973
4.98 -0.444334
4.99 -0.445313
5 -0.445887
5.01 -0.446018
5.02 -0.445678
5.03 -0.444849
5.04 -0.44352
5.05 -0.441641
5.06 -0.439259
5.07 -0.436397
5.08 -0.433071
5.09 -0.429298
5.1 -0.4251
5.11 -0.42048
5.12 -0.415439
5.13 -0.410022
5.14 -0.404237
5.15 -0.398088
5.16 -0.391575
5.17 -0.384694
5.18 -0.377406
5.19 -0.369724
5.2 -0.361651
5.21 -0.353182
5.22 -0.344316
5.23 -0.335057
5.24 -0.325408
5.25 -0.315369
5.26 -0.305007
5.27 -0.294366
5.28 -0.2835
5.29 -0.272477
5.3 -0.26137
5.31 -0.250272
5.32 -0.239288
5.33 -0.228516
5.34 -0.218056
5.35 -0.208009
5.36 -0.198471
5.37 -0.189542
5.38 -0.181376
5.39 -0.173976
5.4 -0.167396
5.41 -0.161674
5.42 -0.156832
5.43 -0.152871
5.44 -0.149833
5.45 -0.147666
5.46 -0.146271
5.47 -0.14558
5.48 -0.145515
5.49 -0.145983
5.5 -0.146888
5.51 -0.148153
5.52 -0.149624
5.53 -0.151201
5.54 -0.152785
5.55 -0.154287
5.56 -0.155624
5.57 -0.15671
5.58 -0.157477
5.59 -0.157897
5.6 -0.157938
5.61 -0.157581
5.62 -0.156818
5.63 -0.155647
5.64 -0.154033
5.65 -0.152031
5.66 -0.149659
5.67 -0.146931
5.68 -0.14386
5.69 -0.140455
5.7 -0.136704
5.71 -0.132593
5.72 -0.128134
5.73 -0.123305
5.74 -0.11808
5.75 -0.112426
5.76 -0.106306
5.77 -0.0996245
5.78 -0.0923772
5.79 -0.0845363
5.8 -0.0760693
5.81 -0.0669515
5.82 -0.0571681
5.83 -0.0466952
5.84 -0.0355144
5.85 -0.023713
5.86 -0.0113381
5.87 0.00154721
5.88 0.0148644
5.89 0.0285209
5.9 0.0424223
5.91 0.0564256
5.92 0.0704015
5.93 0.0842254
5.94 0.0977733
5.95 0.110926
5.96 0.12356
5.97 0.135521
5.98 0.146779
5.99 0.157272
6 0.16696
6.01 0.175822
6.02 0.183859
6.03 0.191036
6.04 0.197431
6.05 0.203142
6.06 0.208249
6.07 0.212844
6.08 0.217023
6.09 0.220888
6.1 0.224531
6.11 0.228076
6.12 0.231607
6.13 0.235192
6.14 0.238881
6.15 0.242706
6.16 0.246683
6.17 0.250789
6.18 0.254972
6.19 0.259164
6.2 0.263276
6.21 0.267201
6.22 0.270818
6.23 0.273926
6.24 0.276423
6.25 0.278168
6.26 0.279024
6.27 0.278862
6.28 0.27757
6.29 0.274981
6.3 0.270999
6.31 0.26566
6.32 0.25895
6.33 0.25088
6.34 0.241492
6.35 0.230854
6.36 0.218949
6.37 0.206022
6.38 0.192227
6.39 0.17772
6.4 0.162667
6.41 0.14724
6.42 0.131609
6.43 0.115962
6.44 0.100465
6.45 0.085256
6.46 0.0704542
6.47 0.0561565
6.48 0.042436
6.49 0.0294016
6.5 0.0170277
6.51 0.00528996
6.52 -0.00584541
6.53 -0.0164332
6.54 -0.0265461
6.55 -0.0362627
6.56 -0.0456784
6.57 -0.0549295
6.58 -0.0641204
6.59 -0.0733507
6.6 -0.082712
6.61 -0.092283
6.62 -0.102154
6.63 -0.112358
6.64 -0.122904
6.65 -0.133789
6.66 -0.144986
6.67 -0.156448
6.68 -0.16811
6.69 -0.179879
6.7 -0.191631
6.71 -0.203247
6.72 -0.2146
6.73 -0.225557
6.74 -0.235985
6.75 -0.245694
6.76 -0.25456
6.77 -0.262501
6.78 -0.269415
6.79 -0.275215
6.8 -0.279831
6.81 -0.283198
6.82 -0.285149
6.83 -0.285804
6.84 -0.285164
6.85 -0.283243
6.86 -0.28007
6.87 -0.27568
6.88 -0.270051
6.89 -0.263247
6.9 -0.255385
6.91 -0.246519
6.92 -0.236699
6.93 -0.22597
6.94 -0.214373
6.95 -0.201848
6.96 -0.188515
6.97 -0.174394
6.98 -0.159494
6.99 -0.143819
7 -0.127368
7.01 -0.1101
7.02 -0.0919947
7.03 -0.0731015
7.04 -0.0534204
7.05 -0.0329569
7.06 -0.0117237
7.07 0.0102578
7.08 0.0330254
7.09 0.0564655
7.1 0.0805103
7.11 0.10509
7.12 0.130123
7.13 0.155517
7.14 0.181176
7.15 0.206977
7.16 0.232783
7.17 0.258471
7.18 0.283914
7.19 0.308988
7.2 0.333567
7.21 0.357464
7.22 0.380593
7.23 0.402864
7.24 0.42418
7.25 0.444452
7.26 0.463603
7.27 0.481529
7.28 0.49809
7.29 0.513346
7.3 0.527259
7.31 0.539798
7.32 0.550939
7.33 0.560661
7.34 0.568832
7.35 0.575502
7.36 0.580709
7.37 0.584443
7.38 0.586691
7.39 0.58744
7.4 0.586651
7.41 0.584178
7.42 0.580159
7.43 0.574579
7.44 0.567425
7.45 0.558686
7.46 0.548357
7.47 0.536329
7.48 0.522646
7.49 0.507404
7.5 0.490633
7.51 0.472376
7.52 0.452688
7.53 0.431632
7.54 0.409169
7.55 0.385552
7.56 0.360898
7.57 0.335336
7.58 0.30901
7.59 0.282074
7.6 0.254673
7.61 0.227006
7.62 0.199273
7.63 0.171652
7.64 0.144319
7.65 0.117448
7.66 0.0912057
7.67 0.0658563
7.68 0.0414762
7.69 0.0181927
7.7 -0.00387767
7.71 -0.0246347
7.72 -0.0439961
7.73 -0.0618255
7.74 -0.0780412
7.75 -0.0927234
7.76 -0.105869
7.77 -0.117491
7.78 -0.12762
7.79 -0.1363
7.8 -0.143457
7.81 -0.149287
7.82 -0.153894
7.83 -0.157365
7.84 -0.159792
7.85 -0.161271
7.86 -0.161869
7.87 -0.161662
7.88 -0.160806
7.89 -0.159386
7.9 -0.157482
7.91 -0.155165
7.92 -0.1525
7.93 -0.14952
7.94 -0.146295
7.95 -0.142867
7.96 -0.139264
7.97 -0.135506
7.98 -0.131606
7.99 -0.127567
8 -0.123381
8.01 -0.119059
8.02 -0.114594
8.03 -0.109982
8.04 -0.105216
8.05 -0.100292
8.06 -0.0951968
8.07 -0.0899395
8.08 -0.0845341
8.09 -0.0789938
8.1 -0.0733373
8.11 -0.0675891
8.12 -0.0617791
8.13 -0.0559455
8.14 -0.0501359
8.15 -0.0443957
8.16 -0.0387736
8.17 -0.0333199
8.18 -0.0280855
8.19 -0.0231422
8.2 -0.0185394
8.21 -0.0143068
8.22 -0.0104819
8.23 -0.00709619
8.24 -0.0041731
8.25 -0.00172934
8.26 0.000176555
8.27 0.00160593
8.28 0.00257548
8.29 0.00311159
8.3 0.00324985
8.31 0.00303429
8.32 0.00250266
8.33 0.00172103
8.34 0.000770078
8.35 -0.000285176
8.36 -0.0013794
8.37 -0.0024489
8.38 -0.0034336
8.39 -0.00425848
8.4 -0.00488748
8.41 -0.00528626
8.42 -0.00543008
8.43 -0.0053059
8.44 -0.00491307
8.45 -0.00425321
8.46 -0.0033504
8.47 -0.00226307
8.48 -0.00104241
8.49 0.000250651
8.5 0.00154712
8.51 0.00277182
8.52 0.00382253
8.53 0.00462124
8.54 0.00509126
8.55 0.00515663
8.56 0.00474745
8.57 0.00380194
8.58 0.00224686
8.59 7.96148e-06
8.6 -0.00288847
8.61 -0.00645152
8.62 -0.0106759
8.63 -0.0155421
8.64 -0.021017
8.65 -0.0270983
8.66 -0.0336875
8.67 -0.0406989
8.68 -0.0480561
8.69 -0.0556782
8.7 -0.0634821
8.71 -0.0713852
8.72 -0.0792984
8.73 -0.0871406
8.74 -0.0948458
8.75 -0.102358
8.76 -0.109631
8.77 -0.116631
8.78 -0.123314
8.79 -0.129682
8.8 -0.135755
8.81 -0.141549
8.82 -0.147092
8.83 -0.152421
8.84 -0.157576
8.85 -0.162596
8.86 -0.167548
8.87 -0.172479
8.88 -0.177431
8.89 -0.182443
8.9 -0.187545
8.91 -0.192766
8.92 -0.198116
8.93 -0.203585
8.94 -0.209157
8.95 -0.214807
8.96 -0.220495
8.97 -0.226174
8.98 -0.231773
8.99 -0.237229
9 -0.242475
9.01 -0.247441
9.02 -0.252056
9.03 -0.256256
9.04 -0.25995
9.05 -0.263074
9.06 -0.26562
9.07 -0.267558
9.08 -0.268872
9.09 -0.269561
9.1 -0.269637
9.11 -0.269066
9.12 -0.26795
9.13 -0.266348
9.14 -0.264323
9.15 -0.261947
9.16 -0.259294
9.17 -0.256442
9.18 -0.253478
9.19 -0.250493
9.2 -0.247561
9.21 -0.244748
9.22 -0.24211
9.23 -0.239694
9.24 -0.23756
9.25 -0.235711
9.26 -0.234147
9.27 -0.232859
9.28 -0.231825
9.29 -0.231015
9.3 -0.230391
9.31 -0.229902
9.32 -0.229475
9.33 -0.22905
9.34 -0.228566
9.35 -0.22796
9.36 -0.227176
9.37 -0.226138
9.38 -0.224809
9.39 -0.223162
9.4 -0.221171
9.41 -0.218824
9.42 -0.216116
9.43 -0.213045
9.44 -0.209606
9.45 -0.205858
9.46 -0.201834
9.47 -0.197571
9.48 -0.19311
9.49 -0.188493
9.5 -0.183753
9.51 -0.178938
9.52 -0.174081
9.53 -0.169207
9.54 -0.16433
9.55 -0.159456
9.56 -0.154581
9.57 -0.149683
9.58 -0.144734
9.59 -0.139697
9.6 -0.134523
9.61 -0.129158
9.62 -0.12354
9.63 -0.11758
9.64 -0.111204
9.65 -0.104361
9.66 -0.0969872
9.67 -0.0890228
9.68 -0.0804145
9.69 -0.0711173
9.7 -0.0610098
9.71 -0.0501506
9.72 -0.0385323
9.73 -0.0261588
9.74 -0.0130471
9.75 0.000773916
9.76 0.0152947
9.77 0.0304628
9.78 0.0461707
9.79 0.0623466
9.8 0.0789122
9.81 0.095785
9.82 0.112879
9.83 0.130113
9.84 0.14738
9.85 0.164596
9.86 0.18168
9.87 0.198559
9.88 0.215165
9.89 0.231419
9.9 0.247245
9.91 0.262624
9.92 0.277516
9.93 0.291887
9.94 0.30571
9.95 0.318962
9.96 0.33157
9.97 0.343559
9.98 0.354932
9.99 0.36568
10 0.375794
10.01 0.385269
10.02 0.394077
10.03 0.402172
10.04 0.409605
10.05 0.41637
10.06 0.422459
10.07 0.427868
10.08 0.432593
10.09 0.436577
10.1 0.439854
10.11 0.442455
10.12 0.44439
10.13 0.445674
10.14 0.44633
10.15 0.446374
10.16 0.445799
10.17 0.444704
10.18 0.443136
10.19 0.441147
10.2 0.438793
10.21 0.436134
10.22 0.43322
10.23 0.43013
10.24 0.426938
10.25 0.423706
10.26 0.420492
10.27 0.417351
10.28 0.41433
10.29 0.411492
10.3 0.408852
10.31 0.406431
10.32 0.404239
10.33 0.402276
10.34 0.400533
10.35 0.398997
10.36 0.397632
10.37 0.396382
10.38 0.395197
10.39 0.394018
10.4 0.392781
10.41 0.391417
10.42 0.389822
10.43 0.387936
10.44 0.385689
10.45 0.383006
10.46 0.379822
10.47 0.37607
10.48 0.371662
10.49 0.366527
10.5 0.360667
10.51 0.354049
10.52 0.346651
10.53 0.338459
10.54 0.329466
10.55 0.319598
10.56 0.308939
10.57 0.297523
10.58 0.285381
10.59 0.272548
10.6 0.259066
10.61 0.244962
10.62 0.23027
10.63 0.215092
10.64 0.199483
10.65 0.183501
10.66 0.167203
10.67 0.150646
10.68 0.133871
10.69 0.116953
10.7 0.0999474
10.71 0.0829039
10.72 0.0658682
10.73 0.0488833
10.74 0.0319926
10.75 0.0152447
10.76 -0.00133732
10.77 -0.0177253
10.78 -0.0338945
10.79 -0.0498239
10.8 -0.0654963
10.81 -0.0808753
10.82 -0.0959615
10.83 -0.110759
10.84 -0.125267
10.85 -0.139484
10.86 -0.153416
10.87 -0.167064
10.88 -0.180418
10.89 -0.193517
10.9 -0.206376
10.91 -0.21901
10.92 -0.231437
10.93 -0.243674
10.94 -0.255726
10.95 -0.267616
10.96 -0.279366
10.97 -0.290988
10.98 -0.30249
10.99 -0.313879
11 -0.325155
11.01 -0.336302
11.02 -0.347322
11.03 -0.358202
11.04 -0.368919
11.05 -0.379449
11.06 -0.38976
11.07 -0.399799
11.08 -0.409516
11.09 -0.418881
11.1 -0.427843
11.11 -0.436352
11.12 -0.444352
11.13 -0.451789
11.14 -0.458536
11.15 -0.464599
11.16 -0.469933
11.17 -0.474493
11.18 -0.478239
11.19 -0.481136
11.2 -0.483113
11.21 -0.484126
11.22 -0.484223
11.23 -0.483401
11.24 -0.481662
11.25 -0.479017
11.26 -0.475482
11.27 -0.470999
11.28 -0.465672
11.29 -0.459552
11.3 -0.452679
11.31 -0.445095
11.32 -0.436845
11.33 -0.427953
11.34 -0.418444
11.35 -0.408411
11.36 -0.397895
11.37 -0.386934
11.38 -0.375564
11.39 -0.363814
11.4 -0.351683
11.41 -0.339217
11.42 -0.326444
11.43 -0.313379
11.44 -0.300034
11.45 -0.286419
11.46 -0.272537
11.47 -0.258379
11.48 -0.24398
11.49 -0.22935
11.5 -0.214503
11.51 -0.199457
11.52 -0.184232
11.53 -0.168846
11.54 -0.15334
11.55 -0.13776
11.56 -0.122148
11.57 -0.106553
11.58 -0.0910298
11.59 -0.0756372
11.6 -0.0604615
11.61 -0.0455518
11.62 -0.0309722
11.63 -0.0167863
11.64 -0.00305604
11.65 0.0101599
11.66 0.0227664
11.67 0.0347175
11.68 0.046003
11.69 0.0565913
11.7 0.0664598
11.71 0.075595
11.72 0.0839916
11.73 0.0915748
11.74 0.098447
11.75 0.104635
11.76 0.110173
11.77 0.115104
11.78 0.119474
11.79 0.12331
11.8 0.126674
11.81 0.129652
11.82 0.132302
11.83 0.134676
11.84 0.136826
11.85 0.138797
11.86 0.140617
11.87 0.142334
11.88 0.14397
11.89 0.145539
11.9 0.147045
11.91 0.148483
11.92 0.149833
11.93 0.151065
11.94 0.152152
11.95 0.153056
11.96 0.15373
11.97 0.154125
11.98 0.154187
11.99 0.153817
12 0.152982
12.01 0.151635
12.02 0.149721
12.03 0.147189
12.04 0.143993
12.05 0.140068
12.06 0.135333
12.07 0.129822
12.08 0.123512
12.09 0.11639
12.1 0.108448
12.11 0.0996847
12.12 0.0900394
12.13 0.0795723
12.14 0.0683303
12.15 0.0563415
12.16 0.0436396
12.17 0.030264
12.18 0.0162469
