# xPDFsuite Configuration #
[PDF]
wavelength = 0.1
dataformat = QA
inputfile = BiMsol6_insitu_700 C-00665.xy
backgroundfile = Quartz2mm-dist500-00000.xy
mode = xray
bgscale = 0.0042
composition = Bi2Fe4O9
outputtype = gr
qmaxinst = 24.998449118
qmin = 0.1
qmax = 21.4986662415
rmax = 80.0
rmin = 0.0
rstep = 0.01
rpoly = 0.9

[Misc]
inputdir = C:/Data/Seafile/CPH/Beamtime/Desy Oct 20/In situ data/Processed/BiMsol6/PDF
savedir = C:/Data/Seafile/CPH/Beamtime/Desy Oct 20/In situ data/PDF/BiMsol6
backgroundfilefull = C:/Data/Seafile/CPH/Beamtime/Desy Oct 20/In situ data/Processed/Standard_Empty_Cap/Quartz2mm-dist500-00000.xy

#### start data
#S 1
#L r($\AA$)  G($\AA^{-2}$)
0 0
0.01 0.00591913
0.02 0.0114995
0.03 0.0164515
0.04 0.0205152
0.05 0.0234727
0.06 0.0251585
0.07 0.0253919
0.08 0.0241214
0.09 0.0214827
0.1 0.0175879
0.11 0.0126101
0.12 0.00677556
0.13 0.000353694
0.14 -0.00635148
0.15 -0.0129616
0.16 -0.019157
0.17 -0.0246384
0.18 -0.0291386
0.19 -0.0324351
0.2 -0.0343006
0.21 -0.0345821
0.22 -0.0333773
0.23 -0.030754
0.24 -0.0268537
0.25 -0.0218869
0.26 -0.0161247
0.27 -0.00987848
0.28 -0.00358574
0.29 0.00236377
0.3 0.00759221
0.31 0.011742
0.32 0.0144933
0.33 0.0155234
0.34 0.0145187
0.35 0.0115394
0.36 0.00659266
0.37 -0.000214942
0.38 -0.00867632
0.39 -0.018487
0.4 -0.0292915
0.41 -0.040495
0.42 -0.0515154
0.43 -0.0617608
0.44 -0.0706205
0.45 -0.0774881
0.46 -0.0817232
0.47 -0.0824996
0.48 -0.0796507
0.49 -0.0728501
0.5 -0.0618897
0.51 -0.0466928
0.52 -0.0273235
0.53 -0.00373026
0.54 0.0235459
0.55 0.0537991
0.56 0.0863731
0.57 0.120503
0.58 0.155338
0.59 0.189951
0.6 0.223157
0.61 0.254042
0.62 0.281683
0.63 0.305216
0.64 0.323865
0.65 0.336967
0.66 0.343598
0.67 0.343392
0.68 0.336532
0.69 0.323038
0.7 0.303105
0.71 0.277102
0.72 0.24556
0.73 0.20869
0.74 0.167939
0.75 0.12425
0.76 0.078618
0.77 0.0320762
0.78 -0.0143364
0.79 -0.0594959
0.8 -0.102275
0.81 -0.141911
0.82 -0.177667
0.83 -0.208937
0.84 -0.235266
0.85 -0.256355
0.86 -0.271511
0.87 -0.281277
0.88 -0.285949
0.89 -0.28589
0.9 -0.281588
0.91 -0.273634
0.92 -0.262615
0.93 -0.249285
0.94 -0.234628
0.95 -0.219406
0.96 -0.204348
0.97 -0.190134
0.98 -0.17737
0.99 -0.166795
1 -0.158715
1.01 -0.15335
1.02 -0.150848
1.03 -0.151243
1.04 -0.154453
1.05 -0.160361
1.06 -0.168787
1.07 -0.179129
1.08 -0.190966
1.09 -0.20384
1.1 -0.217278
1.11 -0.230812
1.12 -0.243933
1.13 -0.256207
1.14 -0.267311
1.15 -0.276974
1.16 -0.285002
1.17 -0.291276
1.18 -0.295727
1.19 -0.298262
1.2 -0.299184
1.21 -0.298677
1.22 -0.296971
1.23 -0.29433
1.24 -0.291037
1.25 -0.287379
1.26 -0.283683
1.27 -0.280215
1.28 -0.277194
1.29 -0.274789
1.3 -0.273123
1.31 -0.272265
1.32 -0.272302
1.33 -0.273083
1.34 -0.274496
1.35 -0.276388
1.36 -0.278571
1.37 -0.280836
1.38 -0.28294
1.39 -0.284629
1.4 -0.285712
1.41 -0.286012
1.42 -0.285391
1.43 -0.283754
1.44 -0.281057
1.45 -0.277197
1.46 -0.272369
1.47 -0.266707
1.48 -0.260389
1.49 -0.253634
1.5 -0.246689
1.51 -0.239842
1.52 -0.233418
1.53 -0.22768
1.54 -0.222876
1.55 -0.219226
1.56 -0.216904
1.57 -0.216035
1.58 -0.216839
1.59 -0.219175
1.6 -0.222939
1.61 -0.227982
1.62 -0.234099
1.63 -0.241028
1.64 -0.248467
1.65 -0.25603
1.66 -0.263313
1.67 -0.269943
1.68 -0.275556
1.69 -0.279812
1.7 -0.282403
1.71 -0.282883
1.72 -0.281158
1.73 -0.27717
1.74 -0.270876
1.75 -0.262311
1.76 -0.251584
1.77 -0.238831
1.78 -0.224222
1.79 -0.208251
1.8 -0.191274
1.81 -0.173677
1.82 -0.155863
1.83 -0.138234
1.84 -0.121254
1.85 -0.105304
1.86 -0.0906694
1.87 -0.0776045
1.88 -0.0663019
1.89 -0.0568856
1.9 -0.0494363
1.91 -0.0440909
1.92 -0.0405418
1.93 -0.0386178
1.94 -0.0380931
1.95 -0.0386974
1.96 -0.0401282
1.97 -0.0420746
1.98 -0.0441535
1.99 -0.0460291
2 -0.0474148
2.01 -0.0480621
2.02 -0.0477722
2.03 -0.0463996
2.04 -0.04374
2.05 -0.0399295
2.06 -0.0350486
2.07 -0.0292441
2.08 -0.0227246
2.09 -0.0157524
2.1 -0.0086462
2.11 -0.00180266
2.12 0.00441035
2.13 0.00962901
2.14 0.0135018
2.15 0.015703
2.16 0.0159455
2.17 0.0137324
2.18 0.00910633
2.19 0.00199447
2.2 -0.00761912
2.21 -0.0196752
2.22 -0.0340407
2.23 -0.0505943
2.24 -0.0690676
2.25 -0.0889748
2.26 -0.109936
2.27 -0.131542
2.28 -0.153367
2.29 -0.174982
2.3 -0.195867
2.31 -0.215643
2.32 -0.233977
2.33 -0.250577
2.34 -0.265205
2.35 -0.277693
2.36 -0.28786
2.37 -0.295572
2.38 -0.301074
2.39 -0.304488
2.4 -0.305997
2.41 -0.305832
2.42 -0.304267
2.43 -0.301539
2.44 -0.298078
2.45 -0.294243
2.46 -0.290358
2.47 -0.286725
2.48 -0.28362
2.49 -0.281303
2.5 -0.280054
2.51 -0.279928
2.52 -0.281002
2.53 -0.283302
2.54 -0.2868
2.55 -0.29142
2.56 -0.29711
2.57 -0.303651
2.58 -0.310811
2.59 -0.318382
2.6 -0.326142
2.61 -0.333872
2.62 -0.341352
2.63 -0.34832
2.64 -0.354638
2.65 -0.360164
2.66 -0.364791
2.67 -0.368446
2.68 -0.371092
2.69 -0.372664
2.7 -0.373217
2.71 -0.372875
2.72 -0.371731
2.73 -0.3699
2.74 -0.367508
2.75 -0.36469
2.76 -0.361566
2.77 -0.35831
2.78 -0.355043
2.79 -0.351868
2.8 -0.348871
2.81 -0.346117
2.82 -0.343666
2.83 -0.341541
2.84 -0.339717
2.85 -0.338168
2.86 -0.336854
2.87 -0.335718
2.88 -0.334695
2.89 -0.333714
2.9 -0.332689
2.91 -0.331551
2.92 -0.330236
2.93 -0.328689
2.94 -0.326862
2.95 -0.324708
2.96 -0.322187
2.97 -0.319312
2.98 -0.316079
2.99 -0.312488
3 -0.308545
3.01 -0.304252
3.02 -0.299576
3.03 -0.294534
3.04 -0.289113
3.05 -0.28328
3.06 -0.276985
3.07 -0.270164
3.08 -0.262712
3.09 -0.25448
3.1 -0.245405
3.11 -0.235361
3.12 -0.224217
3.13 -0.211836
3.14 -0.198086
3.15 -0.182704
3.16 -0.165646
3.17 -0.146874
3.18 -0.126327
3.19 -0.103971
3.2 -0.0798106
3.21 -0.0538491
3.22 -0.0260529
3.23 0.00328002
3.24 0.0339821
3.25 0.0658487
3.26 0.0986419
3.27 0.132094
3.28 0.165918
3.29 0.199746
3.3 0.233244
3.31 0.266087
3.32 0.297956
3.33 0.328545
3.34 0.357549
3.35 0.384499
3.36 0.409348
3.37 0.43191
3.38 0.452041
3.39 0.469634
3.4 0.484627
3.41 0.496834
3.42 0.506302
3.43 0.513236
3.44 0.517731
3.45 0.519906
3.46 0.519904
3.47 0.517881
3.48 0.513813
3.49 0.508099
3.5 0.500915
3.51 0.492425
3.52 0.482785
3.53 0.472138
3.54 0.460572
3.55 0.448204
3.56 0.435181
3.57 0.421579
3.58 0.40746
3.59 0.392877
3.6 0.377873
3.61 0.362449
3.62 0.346683
3.63 0.330618
3.64 0.3143
3.65 0.297785
3.66 0.281136
3.67 0.264435
3.68 0.247791
3.69 0.231318
3.7 0.215139
3.71 0.19939
3.72 0.184216
3.73 0.169772
3.74 0.15631
3.75 0.143945
3.76 0.132808
3.77 0.123042
3.78 0.114779
3.79 0.108137
3.8 0.103266
3.81 0.100356
3.82 0.0993032
3.83 0.100132
3.84 0.102843
3.85 0.107412
3.86 0.113792
3.87 0.122051
3.88 0.132004
3.89 0.143485
3.9 0.156372
3.91 0.170536
3.92 0.185842
3.93 0.202165
3.94 0.219419
3.95 0.23737
3.96 0.255886
3.97 0.274841
3.98 0.294117
3.99 0.313602
4 0.333193
4.01 0.352777
4.02 0.372261
4.03 0.391559
4.04 0.41059
4.05 0.429273
4.06 0.447524
4.07 0.465196
4.08 0.482255
4.09 0.49861
4.1 0.514168
4.11 0.528831
4.12 0.5425
4.13 0.554999
4.14 0.566212
4.15 0.576099
4.16 0.584561
4.17 0.591505
4.18 0.596847
4.19 0.60051
4.2 0.602232
4.21 0.602152
4.22 0.600253
4.23 0.596525
4.24 0.590977
4.25 0.583639
4.26 0.574473
4.27 0.563523
4.28 0.550987
4.29 0.536959
4.3 0.521544
4.31 0.504853
4.32 0.486999
4.33 0.468004
4.34 0.448086
4.35 0.427366
4.36 0.405945
4.37 0.383914
4.38 0.361352
4.39 0.338311
4.4 0.314838
4.41 0.291009
4.42 0.266856
4.43 0.2424
4.44 0.217659
4.45 0.192643
4.46 0.167339
4.47 0.141779
4.48 0.115985
4.49 0.0899815
4.5 0.063801
4.51 0.0374876
4.52 0.0110974
4.53 -0.0152897
4.54 -0.0415822
4.55 -0.067682
4.56 -0.0934805
4.57 -0.11886
4.58 -0.143697
4.59 -0.1678
4.6 -0.191054
4.61 -0.213361
4.62 -0.234608
4.63 -0.254691
4.64 -0.273521
4.65 -0.291004
4.66 -0.306967
4.67 -0.32152
4.68 -0.334661
4.69 -0.34641
4.7 -0.356809
4.71 -0.365921
4.72 -0.373753
4.73 -0.380444
4.74 -0.386167
4.75 -0.391045
4.76 -0.395206
4.77 -0.398779
4.78 -0.401891
4.79 -0.404639
4.8 -0.40718
4.81 -0.409607
4.82 -0.412
4.83 -0.414421
4.84 -0.416914
4.85 -0.419511
4.86 -0.422218
4.87 -0.425016
4.88 -0.427877
4.89 -0.430761
4.9 -0.433617
4.91 -0.436388
4.92 -0.43899
4.93 -0.441369
4.94 -0.443466
4.95 -0.445226
4.96 -0.4466
4.97 -0.447548
4.98 -0.448019
4.99 -0.447979
5 -0.447453
5.01 -0.446446
5.02 -0.444967
5.03 -0.443037
5.04 -0.440678
5.05 -0.437883
5.06 -0.434715
5.07 -0.43121
5.08 -0.427392
5.09 -0.423282
5.1 -0.418895
5.11 -0.414228
5.12 -0.409269
5.13 -0.40403
5.14 -0.398497
5.15 -0.392648
5.16 -0.386461
5.17 -0.379909
5.18 -0.37293
5.19 -0.365523
5.2 -0.357682
5.21 -0.349399
5.22 -0.340675
5.23 -0.331524
5.24 -0.321962
5.25 -0.31201
5.26 -0.301762
5.27 -0.291287
5.28 -0.280667
5.29 -0.269995
5.3 -0.259371
5.31 -0.248921
5.32 -0.238765
5.33 -0.229003
5.34 -0.219738
5.35 -0.211066
5.36 -0.203072
5.37 -0.195839
5.38 -0.189498
5.39 -0.184004
5.4 -0.17937
5.41 -0.17559
5.42 -0.17264
5.43 -0.170477
5.44 -0.169084
5.45 -0.168363
5.46 -0.16819
5.47 -0.168468
5.48 -0.169098
5.49 -0.169978
5.5 -0.171008
5.51 -0.172092
5.52 -0.173133
5.53 -0.174059
5.54 -0.174811
5.55 -0.175347
5.56 -0.175635
5.57 -0.175645
5.58 -0.175374
5.59 -0.17485
5.6 -0.174093
5.61 -0.173128
5.62 -0.171985
5.63 -0.170691
5.64 -0.16926
5.65 -0.167724
5.66 -0.16609
5.67 -0.164352
5.68 -0.162492
5.69 -0.160476
5.7 -0.158244
5.71 -0.155715
5.72 -0.152827
5.73 -0.149491
5.74 -0.145613
5.75 -0.141094
5.76 -0.135836
5.77 -0.129654
5.78 -0.122521
5.79 -0.114383
5.8 -0.10519
5.81 -0.0949113
5.82 -0.0835392
5.83 -0.0710581
5.84 -0.0574705
5.85 -0.0429449
5.86 -0.0275859
5.87 -0.0115213
5.88 0.00510005
5.89 0.0221123
5.9 0.0393386
5.91 0.0565568
5.92 0.0735721
5.93 0.0902007
5.94 0.106268
5.95 0.121615
5.96 0.136082
5.97 0.149469
5.98 0.161781
5.99 0.172969
6 0.183013
6.01 0.191926
6.02 0.199752
6.03 0.20649
6.04 0.212288
6.05 0.217307
6.06 0.221684
6.07 0.225561
6.08 0.229086
6.09 0.232402
6.1 0.235651
6.11 0.23897
6.12 0.242454
6.13 0.246173
6.14 0.25017
6.15 0.25446
6.16 0.259039
6.17 0.263846
6.18 0.268779
6.19 0.27373
6.2 0.278565
6.21 0.283133
6.22 0.287272
6.23 0.290722
6.24 0.293366
6.25 0.295042
6.26 0.2956
6.27 0.294908
6.28 0.292856
6.29 0.289284
6.3 0.284118
6.31 0.277443
6.32 0.269279
6.33 0.25968
6.34 0.248732
6.35 0.236547
6.36 0.223164
6.37 0.208863
6.38 0.193834
6.39 0.178258
6.4 0.162321
6.41 0.146207
6.42 0.130093
6.43 0.114165
6.44 0.0985547
6.45 0.0833725
6.46 0.0687032
6.47 0.0546044
6.48 0.0411054
6.49 0.0282626
6.5 0.016001
6.51 0.0042532
6.52 -0.00705406
6.53 -0.0180093
6.54 -0.0287116
6.55 -0.0392654
6.56 -0.0497885
6.57 -0.0603921
6.58 -0.0711666
6.59 -0.0821883
6.6 -0.093516
6.61 -0.105189
6.62 -0.117252
6.63 -0.129677
6.64 -0.142416
6.65 -0.155408
6.66 -0.168576
6.67 -0.181822
6.68 -0.19503
6.69 -0.208048
6.7 -0.220748
6.71 -0.232995
6.72 -0.244657
6.73 -0.255605
6.74 -0.265722
6.75 -0.274826
6.76 -0.282843
6.77 -0.289745
6.78 -0.29548
6.79 -0.300015
6.8 -0.303336
6.81 -0.305432
6.82 -0.306204
6.83 -0.305815
6.84 -0.304306
6.85 -0.301725
6.86 -0.298121
6.87 -0.293544
6.88 -0.287988
6.89 -0.281505
6.9 -0.274175
6.91 -0.26602
6.92 -0.257049
6.93 -0.24726
6.94 -0.236641
6.95 -0.225064
6.96 -0.212589
6.97 -0.199175
6.98 -0.184778
6.99 -0.16935
7 -0.152847
7.01 -0.135171
7.02 -0.116268
7.03 -0.0961954
7.04 -0.0749503
7.05 -0.0525459
7.06 -0.0290131
7.07 -0.00440174
7.08 0.0213139
7.09 0.0479423
7.1 0.0753582
7.11 0.103434
7.12 0.132028
7.13 0.160985
7.14 0.190146
7.15 0.219318
7.16 0.248318
7.17 0.276976
7.18 0.30513
7.19 0.332624
7.2 0.359313
7.21 0.384967
7.22 0.409523
7.23 0.432905
7.24 0.455035
7.25 0.475849
7.26 0.495299
7.27 0.513314
7.28 0.529787
7.29 0.544838
7.3 0.558472
7.31 0.570699
7.32 0.581535
7.33 0.590996
7.34 0.598988
7.35 0.605586
7.36 0.610845
7.37 0.614767
7.38 0.617345
7.39 0.618564
7.4 0.618379
7.41 0.616641
7.42 0.613453
7.43 0.608776
7.44 0.602568
7.45 0.59479
7.46 0.585404
7.47 0.574259
7.48 0.561367
7.49 0.546794
7.5 0.530541
7.51 0.512626
7.52 0.493081
7.53 0.471951
7.54 0.449157
7.55 0.424972
7.56 0.399508
7.57 0.372901
7.58 0.345302
7.59 0.316878
7.6 0.287782
7.61 0.258241
7.62 0.228491
7.63 0.19874
7.64 0.169196
7.65 0.140068
7.66 0.111556
7.67 0.0839655
7.68 0.0574086
7.69 0.0320448
7.7 0.00802117
7.71 -0.0145346
7.72 -0.0355157
7.73 -0.0547555
7.74 -0.0721501
7.75 -0.0877842
7.76 -0.10165
7.77 -0.113762
7.78 -0.124158
7.79 -0.132893
7.8 -0.139891
7.81 -0.145391
7.82 -0.149525
7.83 -0.152412
7.84 -0.154177
7.85 -0.154948
7.86 -0.15483
7.87 -0.153939
7.88 -0.152466
7.89 -0.150526
7.9 -0.148227
7.91 -0.145662
7.92 -0.142915
7.93 -0.140046
7.94 -0.13712
7.95 -0.134172
7.96 -0.13122
7.97 -0.128267
7.98 -0.125304
7.99 -0.122306
8 -0.119234
8.01 -0.116048
8.02 -0.112704
8.03 -0.109152
8.04 -0.105346
8.05 -0.10124
8.06 -0.0967658
8.07 -0.0919039
8.08 -0.0866489
8.09 -0.0809948
8.1 -0.0749488
8.11 -0.0685324
8.12 -0.0617774
8.13 -0.0547172
8.14 -0.0474528
8.15 -0.0400634
8.16 -0.0326387
8.17 -0.0252759
8.18 -0.0180778
8.19 -0.0111751
8.2 -0.00468234
8.21 0.00131538
8.22 0.0067267
8.23 0.0114709
8.24 0.0154808
8.25 0.0187021
8.26 0.021009
8.27 0.0224829
8.28 0.0231352
8.29 0.0229974
8.3 0.0221206
8.31 0.0205744
8.32 0.0184184
8.33 0.0157687
8.34 0.0127741
8.35 0.00955635
8.36 0.00624005
8.37 0.00294948
8.38 -0.000195644
8.39 -0.0030448
8.4 -0.00551766
8.41 -0.0075371
8.42 -0.00904282
8.43 -0.00999558
8.44 -0.0103787
8.45 -0.0101748
8.46 -0.00940765
8.47 -0.00817655
8.48 -0.00656111
8.49 -0.00465934
8.5 -0.00258476
8.51 -0.000462902
8.52 0.00155013
8.53 0.00330785
8.54 0.0046755
8.55 0.00552222
8.56 0.00572699
8.57 0.00518236
8.58 0.00376651
8.59 0.00135768
8.6 -0.00201566
8.61 -0.00637222
8.62 -0.0117066
8.63 -0.0179897
8.64 -0.0251696
8.65 -0.033237
8.66 -0.042039
8.67 -0.0514407
8.68 -0.0613204
8.69 -0.0715496
8.7 -0.0819964
8.71 -0.0925287
8.72 -0.103002
8.73 -0.113296
8.74 -0.123308
8.75 -0.132952
8.76 -0.142157
8.77 -0.150874
8.78 -0.159029
8.79 -0.16663
8.8 -0.173708
8.81 -0.180291
8.82 -0.18642
8.83 -0.192147
8.84 -0.197532
8.85 -0.202625
8.86 -0.207529
8.87 -0.212311
8.88 -0.217033
8.89 -0.221748
8.9 -0.2265
8.91 -0.231323
8.92 -0.236234
8.93 -0.241227
8.94 -0.246286
8.95 -0.251379
8.96 -0.256465
8.97 -0.261487
8.98 -0.266362
8.99 -0.271028
9 -0.275413
9.01 -0.279445
9.02 -0.283057
9.03 -0.286186
9.04 -0.28875
9.05 -0.290698
9.06 -0.292038
9.07 -0.29276
9.08 -0.292869
9.09 -0.292384
9.1 -0.291337
9.11 -0.289725
9.12 -0.287663
9.13 -0.285223
9.14 -0.282477
9.15 -0.279502
9.16 -0.276374
9.17 -0.273164
9.18 -0.269949
9.19 -0.26679
9.2 -0.263732
9.21 -0.260812
9.22 -0.258048
9.23 -0.255451
9.24 -0.253027
9.25 -0.250743
9.26 -0.248564
9.27 -0.246449
9.28 -0.244352
9.29 -0.24222
9.3 -0.239997
9.31 -0.237617
9.32 -0.235044
9.33 -0.232239
9.34 -0.229174
9.35 -0.22583
9.36 -0.222204
9.37 -0.218281
9.38 -0.214104
9.39 -0.209719
9.4 -0.205175
9.41 -0.200531
9.42 -0.195855
9.43 -0.191219
9.44 -0.186714
9.45 -0.182405
9.46 -0.178359
9.47 -0.174631
9.48 -0.171266
9.49 -0.168295
9.5 -0.165761
9.51 -0.163646
9.52 -0.161904
9.53 -0.160487
9.54 -0.15933
9.55 -0.15835
9.56 -0.157446
9.57 -0.156488
9.58 -0.155345
9.59 -0.153886
9.6 -0.151977
9.61 -0.149486
9.62 -0.146287
9.63 -0.142204
9.64 -0.137126
9.65 -0.131013
9.66 -0.123803
9.67 -0.115449
9.68 -0.105931
9.69 -0.0952492
9.7 -0.0833012
9.71 -0.0702708
9.72 -0.0562309
9.73 -0.0412703
9.74 -0.0254925
9.75 -0.00901293
9.76 0.0080674
9.77 0.0256066
9.78 0.0434386
9.79 0.0614372
9.8 0.0794828
9.81 0.097465
9.82 0.115285
9.83 0.132824
9.84 0.15003
9.85 0.166856
9.86 0.183266
9.87 0.199241
9.88 0.214773
9.89 0.229851
9.9 0.244476
9.91 0.258706
9.92 0.272567
9.93 0.286089
9.94 0.299298
9.95 0.312216
9.96 0.324834
9.97 0.337178
9.98 0.349251
9.99 0.361036
10 0.372508
10.01 0.383627
10.02 0.394334
10.03 0.404536
10.04 0.414205
10.05 0.423273
10.06 0.431667
10.07 0.439321
10.08 0.446168
10.09 0.452076
10.1 0.457031
10.11 0.461031
10.12 0.464057
10.13 0.466105
10.14 0.46719
10.15 0.467326
10.16 0.466498
10.17 0.464867
10.18 0.462517
10.19 0.459545
10.2 0.456058
10.21 0.452172
10.22 0.447996
10.23 0.443677
10.24 0.439346
10.25 0.435116
10.26 0.431093
10.27 0.427368
10.28 0.424024
10.29 0.421173
10.3 0.41881
10.31 0.416955
10.32 0.415606
10.33 0.414742
10.34 0.414323
10.35 0.414309
10.36 0.41461
10.37 0.415111
10.38 0.415709
10.39 0.416291
10.4 0.416741
10.41 0.416936
10.42 0.416704
10.43 0.415959
10.44 0.414596
10.45 0.412516
10.46 0.409635
10.47 0.405879
10.48 0.401144
10.49 0.395364
10.5 0.388583
10.51 0.380796
10.52 0.372012
10.53 0.362257
10.54 0.35157
10.55 0.339917
10.56 0.327444
10.57 0.314237
10.58 0.300371
10.59 0.285929
10.6 0.270994
10.61 0.255635
10.62 0.23993
10.63 0.223989
10.64 0.20788
10.65 0.191669
10.66 0.175412
10.67 0.159159
10.68 0.142959
10.69 0.126842
10.7 0.110831
10.71 0.0949405
10.72 0.0791785
10.73 0.0635468
10.74 0.0480454
10.75 0.0326725
10.76 0.0174049
10.77 0.00222906
10.78 -0.0128697
10.79 -0.027906
10.8 -0.0428936
10.81 -0.0578424
10.82 -0.0727644
10.83 -0.0876669
10.84 -0.102552
10.85 -0.117419
10.86 -0.132264
10.87 -0.147075
10.88 -0.161836
10.89 -0.176534
10.9 -0.191148
10.91 -0.205657
10.92 -0.220038
10.93 -0.234263
10.94 -0.248294
10.95 -0.262102
10.96 -0.275669
10.97 -0.28897
10.98 -0.301979
10.99 -0.314672
11 -0.327025
11.01 -0.338977
11.02 -0.350548
11.03 -0.361722
11.04 -0.372483
11.05 -0.38282
11.06 -0.392719
11.07 -0.402144
11.08 -0.411082
11.09 -0.41955
11.1 -0.427537
11.11 -0.435033
11.12 -0.442024
11.13 -0.448499
11.14 -0.454381
11.15 -0.459708
11.16 -0.464463
11.17 -0.468625
11.18 -0.472173
11.19 -0.475082
11.2 -0.477296
11.21 -0.478767
11.22 -0.479518
11.23 -0.479525
11.24 -0.478763
11.25 -0.477212
11.26 -0.474853
11.27 -0.471589
11.28 -0.467477
11.29 -0.462528
11.3 -0.456743
11.31 -0.450131
11.32 -0.442705
11.33 -0.434459
11.34 -0.425388
11.35 -0.415592
11.36 -0.40511
11.37 -0.393988
11.38 -0.382274
11.39 -0.370021
11.4 -0.357246
11.41 -0.344043
11.42 -0.330481
11.43 -0.316617
11.44 -0.302506
11.45 -0.288198
11.46 -0.27374
11.47 -0.259174
11.48 -0.244552
11.49 -0.229906
11.5 -0.215265
11.51 -0.200653
11.52 -0.186089
11.53 -0.171594
11.54 -0.15718
11.55 -0.142852
11.56 -0.128621
11.57 -0.114492
11.58 -0.100477
11.59 -0.0865865
11.6 -0.07285
11.61 -0.0592726
11.62 -0.045877
11.63 -0.0326908
11.64 -0.0197464
11.65 -0.00708093
11.66 0.00523953
11.67 0.0171671
11.68 0.0286693
11.69 0.0396953
11.7 0.0501941
11.71 0.0601154
11.72 0.0694107
11.73 0.0779565
11.74 0.08579
11.75 0.092883
11.76 0.0992158
11.77 0.104779
11.78 0.109573
11.79 0.11357
11.8 0.116793
11.81 0.119327
11.82 0.121218
11.83 0.122526
11.84 0.123313
11.85 0.123653
11.86 0.12359
11.87 0.123246
11.88 0.122704
11.89 0.12204
11.9 0.121323
11.91 0.120617
11.92 0.119979
11.93 0.11946
11.94 0.119079
11.95 0.118847
11.96 0.11876
11.97 0.118798
11.98 0.118926
11.99 0.119092
12 0.119219
12.01 0.119229
12.02 0.119032
12.03 0.118533
12.04 0.117631
12.05 0.1162
12.06 0.114094
12.07 0.111256
12.08 0.107595
12.09 0.103028
12.1 0.0974819
12.11 0.0908991
12.12 0.0831409
12.13 0.0742392
12.14 0.0642233
12.15 0.0531064
12.16 0.0409197
12.17 0.0277117
12.18 0.0135284
12.19 -0.00160193
