# xPDFsuite Configuration #
[PDF]
wavelength = 0.1
dataformat = QA
inputfile = BiMsol6_insitu_700 C-00429.xy
backgroundfile = Quartz2mm-dist500-00000.xy
mode = xray
bgscale = 0.0042
composition = Bi2Fe4O9
outputtype = gr
qmaxinst = 24.998449118
qmin = 0.1
qmax = 21.4986662415
rmax = 80.0
rmin = 0.0
rstep = 0.01
rpoly = 0.9

[Misc]
inputdir = C:/Data/Seafile/CPH/Beamtime/Desy Oct 20/In situ data/Processed/BiMsol6/PDF
savedir = C:/Data/Seafile/CPH/Beamtime/Desy Oct 20/In situ data/PDF/BiMsol6
backgroundfilefull = C:/Data/Seafile/CPH/Beamtime/Desy Oct 20/In situ data/Processed/Standard_Empty_Cap/Quartz2mm-dist500-00000.xy

#### start data
#S 1
#L r($\AA$)  G($\AA^{-2}$)
0 0
0.01 0.00708633
0.02 0.0137788
0.03 0.0197403
0.04 0.0246677
0.05 0.0283063
0.06 0.0304609
0.07 0.0309174
0.08 0.0296109
0.09 0.0266943
0.1 0.0222923
0.11 0.0166001
0.12 0.00987488
0.13 0.0024247
0.14 -0.00540658
0.15 -0.0131775
0.16 -0.0205163
0.17 -0.0270734
0.18 -0.0325337
0.19 -0.0366318
0.2 -0.0390942
0.21 -0.0397295
0.22 -0.0386341
0.23 -0.0358701
0.24 -0.0315842
0.25 -0.0260025
0.26 -0.0194223
0.27 -0.0121782
0.28 -0.00476943
0.29 0.00236009
0.3 0.00877829
0.31 0.014072
0.32 0.0178668
0.33 0.0197823
0.34 0.019443
0.35 0.0168869
0.36 0.0120953
0.37 0.00515987
0.38 -0.00371507
0.39 -0.0142154
0.4 -0.0259813
0.41 -0.0383649
0.42 -0.0507274
0.43 -0.0624196
0.44 -0.0727667
0.45 -0.0810932
0.46 -0.0866836
0.47 -0.0886187
0.48 -0.0866763
0.49 -0.08047
0.5 -0.0697403
0.51 -0.0543706
0.52 -0.0343978
0.53 -0.00972527
0.54 0.0190883
0.55 0.0512952
0.56 0.0862022
0.57 0.122993
0.58 0.160753
0.59 0.198482
0.6 0.23491
0.61 0.269016
0.62 0.299784
0.63 0.326258
0.64 0.347578
0.65 0.363001
0.66 0.371503
0.67 0.372657
0.68 0.366633
0.69 0.353426
0.7 0.333227
0.71 0.306416
0.72 0.273552
0.73 0.234845
0.74 0.19186
0.75 0.145615
0.76 0.097187
0.77 0.0476984
0.78 -0.0017203
0.79 -0.0498476
0.8 -0.0954543
0.81 -0.137701
0.82 -0.175783
0.83 -0.209038
0.84 -0.236968
0.85 -0.259246
0.86 -0.27513
0.87 -0.285208
0.88 -0.289809
0.89 -0.289338
0.9 -0.284337
0.91 -0.275463
0.92 -0.263374
0.93 -0.248908
0.94 -0.233144
0.95 -0.216919
0.96 -0.201036
0.97 -0.18624
0.98 -0.173191
0.99 -0.162703
1 -0.155089
1.01 -0.150565
1.02 -0.149272
1.03 -0.151218
1.04 -0.156284
1.05 -0.164306
1.06 -0.17504
1.07 -0.187791
1.08 -0.202057
1.09 -0.2173
1.1 -0.232969
1.11 -0.248521
1.12 -0.263352
1.13 -0.276979
1.14 -0.289049
1.15 -0.299268
1.16 -0.307433
1.17 -0.313435
1.18 -0.317225
1.19 -0.31873
1.2 -0.318351
1.21 -0.316346
1.22 -0.313025
1.23 -0.308742
1.24 -0.303871
1.25 -0.298807
1.26 -0.293972
1.27 -0.289701
1.28 -0.286277
1.29 -0.283923
1.3 -0.282794
1.31 -0.282978
1.32 -0.284612
1.33 -0.287458
1.34 -0.291359
1.35 -0.296098
1.36 -0.301408
1.37 -0.306986
1.38 -0.312486
1.39 -0.317527
1.4 -0.321804
1.41 -0.325032
1.42 -0.326971
1.43 -0.327436
1.44 -0.326304
1.45 -0.323343
1.46 -0.318769
1.47 -0.312708
1.48 -0.305347
1.49 -0.296934
1.5 -0.287772
1.51 -0.278204
1.52 -0.268655
1.53 -0.259529
1.54 -0.2512
1.55 -0.244012
1.56 -0.238272
1.57 -0.234233
1.58 -0.232286
1.59 -0.232381
1.6 -0.234499
1.61 -0.238567
1.62 -0.244431
1.63 -0.251859
1.64 -0.260584
1.65 -0.270224
1.66 -0.280267
1.67 -0.290268
1.68 -0.299772
1.69 -0.30833
1.7 -0.315517
1.71 -0.320757
1.72 -0.323797
1.73 -0.324442
1.74 -0.322523
1.75 -0.317957
1.76 -0.310752
1.77 -0.300941
1.78 -0.288585
1.79 -0.274194
1.8 -0.258113
1.81 -0.240744
1.82 -0.222524
1.83 -0.203916
1.84 -0.185433
1.85 -0.167588
1.86 -0.150799
1.87 -0.135441
1.88 -0.121836
1.89 -0.11023
1.9 -0.100833
1.91 -0.0939335
1.92 -0.0892914
1.93 -0.0868101
1.94 -0.0863178
1.95 -0.0875748
1.96 -0.0902848
1.97 -0.094156
1.98 -0.0987401
1.99 -0.103598
2 -0.108348
2.01 -0.112629
2.02 -0.116115
2.03 -0.118522
2.04 -0.119467
2.05 -0.118943
2.06 -0.116888
2.07 -0.113315
2.08 -0.10831
2.09 -0.102032
2.1 -0.0946566
2.11 -0.0865082
2.12 -0.0779776
2.13 -0.0694216
2.14 -0.0612103
2.15 -0.053713
2.16 -0.0472841
2.17 -0.0424342
2.18 -0.0393246
2.19 -0.0381621
2.2 -0.039102
2.21 -0.0422318
2.22 -0.0475686
2.23 -0.0551503
2.24 -0.0648792
2.25 -0.0763987
2.26 -0.0894515
2.27 -0.103736
2.28 -0.118916
2.29 -0.134637
2.3 -0.150512
2.31 -0.166132
2.32 -0.181156
2.33 -0.19528
2.34 -0.208242
2.35 -0.219828
2.36 -0.229824
2.37 -0.238049
2.38 -0.244614
2.39 -0.249561
2.4 -0.252987
2.41 -0.255041
2.42 -0.255917
2.43 -0.255783
2.44 -0.25498
2.45 -0.253806
2.46 -0.252531
2.47 -0.251417
2.48 -0.250703
2.49 -0.250622
2.5 -0.251426
2.51 -0.253176
2.52 -0.25595
2.53 -0.259778
2.54 -0.264642
2.55 -0.270481
2.56 -0.277244
2.57 -0.284738
2.58 -0.29275
2.59 -0.301087
2.6 -0.30954
2.61 -0.317902
2.62 -0.325962
2.63 -0.333462
2.64 -0.340274
2.65 -0.346259
2.66 -0.351312
2.67 -0.35536
2.68 -0.358367
2.69 -0.360262
2.7 -0.361099
2.71 -0.360998
2.72 -0.360051
2.73 -0.358365
2.74 -0.356061
2.75 -0.353264
2.76 -0.350072
2.77 -0.346655
2.78 -0.343112
2.79 -0.339526
2.8 -0.335957
2.81 -0.332439
2.82 -0.328981
2.83 -0.325559
2.84 -0.322119
2.85 -0.318588
2.86 -0.314875
2.87 -0.310876
2.88 -0.306478
2.89 -0.301497
2.9 -0.295859
2.91 -0.289465
2.92 -0.282228
2.93 -0.274078
2.94 -0.264967
2.95 -0.254829
2.96 -0.243642
2.97 -0.231515
2.98 -0.218509
2.99 -0.204709
3 -0.190219
3.01 -0.175158
3.02 -0.159626
3.03 -0.143808
3.04 -0.127849
3.05 -0.111877
3.06 -0.0960088
3.07 -0.0803471
3.08 -0.0649849
3.09 -0.0500055
3.1 -0.0354123
3.11 -0.0212093
3.12 -0.00737635
3.13 0.006129
3.14 0.019369
3.15 0.0324143
3.16 0.0453777
3.17 0.058363
3.18 0.0714684
3.19 0.0847869
3.2 0.098401
3.21 0.112387
3.22 0.126826
3.23 0.141701
3.24 0.157004
3.25 0.1727
3.26 0.188724
3.27 0.204988
3.28 0.221377
3.29 0.237728
3.3 0.253879
3.31 0.269661
3.32 0.284898
3.33 0.299413
3.34 0.313025
3.35 0.325452
3.36 0.336654
3.37 0.346513
3.38 0.354938
3.39 0.361868
3.4 0.36727
3.41 0.371053
3.42 0.373275
3.43 0.37409
3.44 0.373603
3.45 0.371942
3.46 0.369257
3.47 0.365716
3.48 0.361446
3.49 0.356729
3.5 0.35176
3.51 0.346726
3.52 0.341807
3.53 0.337172
3.54 0.333002
3.55 0.329457
3.56 0.326614
3.57 0.324557
3.58 0.32335
3.59 0.323032
3.6 0.323623
3.61 0.325216
3.62 0.327704
3.63 0.331042
3.64 0.33518
3.65 0.340063
3.66 0.34563
3.67 0.351835
3.68 0.358624
3.69 0.365883
3.7 0.37355
3.71 0.381566
3.72 0.389874
3.73 0.398424
3.74 0.407181
3.75 0.416083
3.76 0.425083
3.77 0.43414
3.78 0.443213
3.79 0.452259
3.8 0.461227
3.81 0.470055
3.82 0.478696
3.83 0.487089
3.84 0.495171
3.85 0.502875
3.86 0.51013
3.87 0.516812
3.88 0.522861
3.89 0.528223
3.9 0.532825
3.91 0.536599
3.92 0.539482
3.93 0.541398
3.94 0.542214
3.95 0.541987
3.96 0.540689
3.97 0.538303
3.98 0.534818
3.99 0.530235
4 0.524486
4.01 0.517619
4.02 0.509706
4.03 0.500775
4.04 0.490856
4.05 0.479981
4.06 0.468175
4.07 0.455382
4.08 0.441729
4.09 0.427245
4.1 0.411951
4.11 0.39587
4.12 0.379021
4.13 0.361379
4.14 0.342969
4.15 0.323854
4.16 0.304061
4.17 0.283621
4.18 0.26257
4.19 0.240956
4.2 0.218783
4.21 0.19618
4.22 0.17323
4.23 0.150021
4.24 0.126652
4.25 0.103232
4.26 0.0798837
4.27 0.0567482
4.28 0.0339415
4.29 0.0115832
4.3 -0.0102114
4.31 -0.0313352
4.32 -0.0516917
4.33 -0.0711047
4.34 -0.0895785
4.35 -0.107084
4.36 -0.1236
4.37 -0.139127
4.38 -0.153686
4.39 -0.167287
4.4 -0.17997
4.41 -0.19189
4.42 -0.203147
4.43 -0.21385
4.44 -0.224114
4.45 -0.234057
4.46 -0.24379
4.47 -0.253447
4.48 -0.263131
4.49 -0.272924
4.5 -0.282888
4.51 -0.293069
4.52 -0.303492
4.53 -0.314165
4.54 -0.325035
4.55 -0.336044
4.56 -0.347116
4.57 -0.358157
4.58 -0.369056
4.59 -0.379663
4.6 -0.389846
4.61 -0.399486
4.62 -0.408461
4.63 -0.416658
4.64 -0.423977
4.65 -0.430321
4.66 -0.435536
4.67 -0.439692
4.68 -0.442786
4.69 -0.44484
4.7 -0.445903
4.71 -0.446051
4.72 -0.445333
4.73 -0.443902
4.74 -0.441935
4.75 -0.43958
4.76 -0.436992
4.77 -0.434325
4.78 -0.431731
4.79 -0.429393
4.8 -0.427425
4.81 -0.425932
4.82 -0.425001
4.83 -0.424694
4.84 -0.42505
4.85 -0.426118
4.86 -0.427881
4.87 -0.430256
4.88 -0.433178
4.89 -0.436567
4.9 -0.440324
4.91 -0.444343
4.92 -0.448514
4.93 -0.452692
4.94 -0.456765
4.95 -0.460626
4.96 -0.464179
4.97 -0.467341
4.98 -0.470019
4.99 -0.472143
5 -0.473717
5.01 -0.474725
5.02 -0.475169
5.03 -0.475061
5.04 -0.474425
5.05 -0.473249
5.06 -0.471611
5.07 -0.469558
5.08 -0.46712
5.09 -0.464323
5.1 -0.461181
5.11 -0.457684
5.12 -0.4538
5.13 -0.449522
5.14 -0.444803
5.15 -0.439576
5.16 -0.433764
5.17 -0.427273
5.18 -0.419924
5.19 -0.411641
5.2 -0.402335
5.21 -0.391897
5.22 -0.380224
5.23 -0.367223
5.24 -0.35278
5.25 -0.336726
5.26 -0.319158
5.27 -0.300063
5.28 -0.279453
5.29 -0.257364
5.3 -0.233857
5.31 -0.20892
5.32 -0.182727
5.33 -0.155461
5.34 -0.127265
5.35 -0.0982949
5.36 -0.0687143
5.37 -0.0386866
5.38 -0.00837391
5.39 0.0220204
5.4 0.0523436
5.41 0.0824544
5.42 0.112224
5.43 0.141539
5.44 0.170259
5.45 0.198299
5.46 0.225623
5.47 0.252181
5.48 0.277931
5.49 0.302841
5.5 0.32688
5.51 0.349922
5.52 0.372038
5.53 0.393198
5.54 0.413364
5.55 0.432487
5.56 0.450511
5.57 0.467295
5.58 0.482735
5.59 0.496808
5.6 0.509409
5.61 0.520426
5.62 0.529742
5.63 0.53724
5.64 0.542583
5.65 0.545848
5.66 0.546958
5.67 0.545837
5.68 0.542429
5.69 0.536701
5.7 0.528543
5.71 0.51792
5.72 0.50506
5.73 0.490051
5.74 0.473014
5.75 0.454092
5.76 0.433458
5.77 0.411176
5.78 0.387602
5.79 0.362991
5.8 0.337577
5.81 0.311595
5.82 0.285276
5.83 0.258849
5.84 0.232554
5.85 0.206586
5.86 0.181113
5.87 0.156276
5.88 0.132193
5.89 0.108956
5.9 0.0867117
5.91 0.0654516
5.92 0.0451594
5.93 0.0258283
5.94 0.00743565
5.95 -0.0100526
5.96 -0.0266603
5.97 -0.0423782
5.98 -0.05733
5.99 -0.071552
6 -0.0850707
6.01 -0.0979002
6.02 -0.11004
6.03 -0.121417
6.04 -0.132015
6.05 -0.141809
6.06 -0.150732
6.07 -0.158702
6.08 -0.165631
6.09 -0.171409
6.1 -0.175811
6.11 -0.178867
6.12 -0.180492
6.13 -0.180616
6.14 -0.179183
6.15 -0.17616
6.16 -0.171434
6.17 -0.165045
6.18 -0.157128
6.19 -0.147761
6.2 -0.137049
6.21 -0.125124
6.22 -0.11214
6.23 -0.0981929
6.24 -0.0835965
6.25 -0.0685571
6.26 -0.053286
6.27 -0.0379946
6.28 -0.0228893
6.29 -0.00819634
6.3 0.00587241
6.31 0.0191889
6.32 0.0316233
6.33 0.0430732
6.34 0.0534661
6.35 0.0627605
6.36 0.0708312
6.37 0.0778114
6.38 0.0837713
6.39 0.0887947
6.4 0.0929883
6.41 0.0964777
6.42 0.0993869
6.43 0.101876
6.44 0.104142
6.45 0.106342
6.46 0.108628
6.47 0.111143
6.48 0.114015
6.49 0.117413
6.5 0.121405
6.51 0.126049
6.52 0.131392
6.53 0.13746
6.54 0.144256
6.55 0.151787
6.56 0.160048
6.57 0.168923
6.58 0.178345
6.59 0.188236
6.6 0.198512
6.61 0.209084
6.62 0.219873
6.63 0.230768
6.64 0.241682
6.65 0.252537
6.66 0.263266
6.67 0.273809
6.68 0.28411
6.69 0.294102
6.7 0.303781
6.71 0.313124
6.72 0.322117
6.73 0.33075
6.74 0.339016
6.75 0.346884
6.76 0.354357
6.77 0.361445
6.78 0.368137
6.79 0.374418
6.8 0.380263
6.81 0.385642
6.82 0.390462
6.83 0.39473
6.84 0.398394
6.85 0.401398
6.86 0.40368
6.87 0.405175
6.88 0.405759
6.89 0.405362
6.9 0.403966
6.91 0.401511
6.92 0.397942
6.93 0.393212
6.94 0.387281
6.95 0.379977
6.96 0.37142
6.97 0.361609
6.98 0.350552
6.99 0.33827
7 0.324794
7.01 0.310114
7.02 0.294274
7.03 0.277418
7.04 0.25962
7.05 0.240963
7.06 0.221533
7.07 0.201423
7.08 0.180679
7.09 0.159458
7.1 0.137868
7.11 0.116004
7.12 0.0939598
7.13 0.0718266
7.14 0.0496951
7.15 0.0276621
7.16 0.00580271
7.17 -0.0158124
7.18 -0.0371182
7.19 -0.0580556
7.2 -0.0785713
7.21 -0.0985706
7.22 -0.118039
7.23 -0.136954
7.24 -0.155285
7.25 -0.173008
7.26 -0.190103
7.27 -0.206534
7.28 -0.22225
7.29 -0.2373
7.3 -0.251681
7.31 -0.265392
7.32 -0.278435
7.33 -0.290815
7.34 -0.302486
7.35 -0.313489
7.36 -0.323857
7.37 -0.333605
7.38 -0.342745
7.39 -0.351293
7.4 -0.359255
7.41 -0.366605
7.42 -0.373418
7.43 -0.379712
7.44 -0.385505
7.45 -0.390816
7.46 -0.395666
7.47 -0.400043
7.48 -0.403981
7.49 -0.407519
7.5 -0.410677
7.51 -0.413475
7.52 -0.41593
7.53 -0.418059
7.54 -0.41985
7.55 -0.421353
7.56 -0.422583
7.57 -0.423551
7.58 -0.424269
7.59 -0.424744
7.6 -0.424966
7.61 -0.424936
7.62 -0.424663
7.63 -0.424141
7.64 -0.423356
7.65 -0.422293
7.66 -0.420931
7.67 -0.419206
7.68 -0.417121
7.69 -0.414645
7.7 -0.411745
7.71 -0.408386
7.72 -0.404532
7.73 -0.400122
7.74 -0.395109
7.75 -0.389502
7.76 -0.383283
7.77 -0.376437
7.78 -0.36896
7.79 -0.360856
7.8 -0.352084
7.81 -0.342727
7.82 -0.33284
7.83 -0.322478
7.84 -0.311709
7.85 -0.300614
7.86 -0.28928
7.87 -0.277817
7.88 -0.266354
7.89 -0.255007
7.9 -0.243898
7.91 -0.233146
7.92 -0.222871
7.93 -0.21325
7.94 -0.204366
7.95 -0.196296
7.96 -0.189123
7.97 -0.182914
7.98 -0.177719
7.99 -0.173598
8 -0.170634
8.01 -0.16872
8.02 -0.167827
8.03 -0.167907
8.04 -0.168895
8.05 -0.170714
8.06 -0.173318
8.07 -0.176562
8.08 -0.180305
8.09 -0.184431
8.1 -0.188824
8.11 -0.193368
8.12 -0.197953
8.13 -0.202461
8.14 -0.206798
8.15 -0.210887
8.16 -0.214664
8.17 -0.218079
8.18 -0.221095
8.19 -0.223659
8.2 -0.225771
8.21 -0.227455
8.22 -0.228724
8.23 -0.229599
8.24 -0.230102
8.25 -0.230259
8.26 -0.23006
8.27 -0.229564
8.28 -0.228782
8.29 -0.227716
8.3 -0.22636
8.31 -0.224693
8.32 -0.22266
8.33 -0.220207
8.34 -0.217293
8.35 -0.213846
8.36 -0.209785
8.37 -0.205022
8.38 -0.199464
8.39 -0.192908
8.4 -0.185342
8.41 -0.176687
8.42 -0.166862
8.43 -0.155801
8.44 -0.143449
8.45 -0.129707
8.46 -0.114521
8.47 -0.0979921
8.48 -0.0801446
8.49 -0.0610242
8.5 -0.0406952
8.51 -0.0192399
8.52 0.00333331
8.53 0.0268162
8.54 0.0510647
8.55 0.0759469
8.56 0.101328
8.57 0.127072
8.58 0.15305
8.59 0.179124
8.6 0.205164
8.61 0.231066
8.62 0.256742
8.63 0.282117
8.64 0.307132
8.65 0.331704
8.66 0.355824
8.67 0.37949
8.68 0.402698
8.69 0.425451
8.7 0.447758
8.71 0.469618
8.72 0.491011
8.73 0.511982
8.74 0.532525
8.75 0.552625
8.76 0.572253
8.77 0.591368
8.78 0.609861
8.79 0.627665
8.8 0.644711
8.81 0.660888
8.82 0.676076
8.83 0.69014
8.84 0.702924
8.85 0.714129
8.86 0.723744
8.87 0.731623
8.88 0.737628
8.89 0.741629
8.9 0.74351
8.91 0.743024
8.92 0.740108
8.93 0.734827
8.94 0.72715
8.95 0.717071
8.96 0.704607
8.97 0.689796
8.98 0.672449
8.99 0.652926
9 0.631334
9.01 0.607795
9.02 0.582445
9.03 0.555427
9.04 0.526821
9.05 0.496793
9.06 0.465594
9.07 0.433377
9.08 0.400292
9.09 0.366483
9.1 0.332088
9.11 0.297202
9.12 0.262
9.13 0.226601
9.14 0.19111
9.15 0.155629
9.16 0.120255
9.17 0.0850935
9.18 0.050262
9.19 0.0158386
9.2 -0.0180796
9.21 -0.0513916
9.22 -0.0839916
9.23 -0.115769
9.24 -0.146505
9.25 -0.176133
9.26 -0.204546
9.27 -0.231613
9.28 -0.257203
9.29 -0.281184
9.3 -0.303367
9.31 -0.323512
9.32 -0.341656
9.33 -0.357696
9.34 -0.37154
9.35 -0.383115
9.36 -0.392361
9.37 -0.399037
9.38 -0.403248
9.39 -0.405075
9.4 -0.404547
9.41 -0.401707
9.42 -0.396622
9.43 -0.389329
9.44 -0.379785
9.45 -0.36831
9.46 -0.355028
9.47 -0.34007
9.48 -0.323573
9.49 -0.305675
9.5 -0.28643
9.51 -0.266031
9.52 -0.244661
9.53 -0.222441
9.54 -0.199486
9.55 -0.175903
9.56 -0.151785
9.57 -0.127187
9.58 -0.102243
9.59 -0.077026
9.6 -0.0516025
9.61 -0.026036
9.62 -0.000387724
9.63 0.025279
9.64 0.0508922
9.65 0.076386
9.66 0.10169
9.67 0.126731
9.68 0.151426
9.69 0.17569
9.7 0.199359
9.71 0.222385
9.72 0.244666
9.73 0.266099
9.74 0.286577
9.75 0.305998
9.76 0.324198
9.77 0.34105
9.78 0.356549
9.79 0.370622
9.8 0.383207
9.81 0.394259
9.82 0.403746
9.83 0.411488
9.84 0.417633
9.85 0.422222
9.86 0.425292
9.87 0.426894
9.88 0.427092
9.89 0.425908
9.9 0.423394
9.91 0.419741
9.92 0.415043
9.93 0.409393
9.94 0.402884
9.95 0.395604
9.96 0.387578
9.97 0.378937
9.98 0.369757
9.99 0.360093
10 0.349987
10.01 0.339469
10.02 0.328553
10.03 0.317229
10.04 0.305535
10.05 0.293471
10.06 0.28103
10.07 0.268207
10.08 0.254995
10.09 0.24136
10.1 0.227322
10.11 0.212904
10.12 0.198123
10.13 0.183005
10.14 0.167587
10.15 0.15191
10.16 0.136021
10.17 0.12001
10.18 0.103952
10.19 0.0879266
10.2 0.0720175
10.21 0.0563115
10.22 0.0409225
10.23 0.0259397
10.24 0.0114285
10.25 -0.00253837
10.26 -0.0158969
10.27 -0.0285933
10.28 -0.0405801
10.29 -0.0517499
10.3 -0.0621685
10.31 -0.0718365
10.32 -0.0807676
10.33 -0.0889883
10.34 -0.0965362
10.35 -0.103426
10.36 -0.109726
10.37 -0.115537
10.38 -0.120929
10.39 -0.125976
10.4 -0.13075
10.41 -0.135326
10.42 -0.139765
10.43 -0.144155
10.44 -0.148554
10.45 -0.153016
10.46 -0.157587
10.47 -0.162304
10.48 -0.16721
10.49 -0.172333
10.5 -0.177676
10.51 -0.183249
10.52 -0.189055
10.53 -0.195094
10.54 -0.201362
10.55 -0.207874
10.56 -0.214601
10.57 -0.22153
10.58 -0.228653
10.59 -0.235959
10.6 -0.243441
10.61 -0.251095
10.62 -0.258921
10.63 -0.266897
10.64 -0.275018
10.65 -0.283274
10.66 -0.291658
10.67 -0.300159
10.68 -0.308773
10.69 -0.317477
10.7 -0.326249
10.71 -0.335068
10.72 -0.343909
10.73 -0.352747
10.74 -0.361548
10.75 -0.370273
10.76 -0.378892
10.77 -0.387371
10.78 -0.395677
10.79 -0.403778
10.8 -0.411645
10.81 -0.419228
10.82 -0.426516
10.83 -0.433502
10.84 -0.440176
10.85 -0.446535
10.86 -0.45258
10.87 -0.458314
10.88 -0.463727
10.89 -0.468869
10.9 -0.473763
10.91 -0.478431
10.92 -0.482901
10.93 -0.487196
10.94 -0.491332
10.95 -0.495332
10.96 -0.499217
10.97 -0.502993
10.98 -0.50666
10.99 -0.510209
11 -0.513619
11.01 -0.516842
11.02 -0.519853
11.03 -0.522604
11.04 -0.525041
11.05 -0.5271
11.06 -0.528714
11.07 -0.529779
11.08 -0.530209
11.09 -0.529966
11.1 -0.528982
11.11 -0.527193
11.12 -0.524546
11.13 -0.520995
11.14 -0.516399
11.15 -0.510833
11.16 -0.504297
11.17 -0.496799
11.18 -0.488363
11.19 -0.479022
11.2 -0.468789
11.21 -0.457714
11.22 -0.445932
11.23 -0.433521
11.24 -0.420567
11.25 -0.407161
11.26 -0.393393
11.27 -0.379333
11.28 -0.365096
11.29 -0.350764
11.3 -0.336406
11.31 -0.322079
11.32 -0.307829
11.33 -0.293694
11.34 -0.279701
11.35 -0.265844
11.36 -0.252112
11.37 -0.238483
11.38 -0.224923
11.39 -0.211388
11.4 -0.197819
11.41 -0.184152
11.42 -0.170325
11.43 -0.156274
11.44 -0.141936
11.45 -0.127252
11.46 -0.112154
11.47 -0.0965577
11.48 -0.0804632
11.49 -0.0638419
11.5 -0.0466754
11.51 -0.0289563
11.52 -0.0106876
11.53 0.00815588
11.54 0.0275253
11.55 0.0473635
11.56 0.0676269
11.57 0.0882651
11.58 0.109222
11.59 0.130442
11.6 0.151872
11.61 0.173425
11.62 0.195038
11.63 0.216652
11.64 0.238211
11.65 0.25966
11.66 0.280938
11.67 0.301997
11.68 0.322809
11.69 0.343338
11.7 0.363556
11.71 0.383435
11.72 0.402953
11.73 0.42204
11.74 0.440719
11.75 0.458968
11.76 0.476764
11.77 0.494084
11.78 0.5109
11.79 0.527149
11.8 0.542788
11.81 0.55781
11.82 0.57217
11.83 0.585821
11.84 0.598711
11.85 0.610783
11.86 0.621881
11.87 0.632024
11.88 0.64116
11.89 0.649228
11.9 0.656169
11.91 0.661927
11.92 0.666391
11.93 0.669467
11.94 0.671204
11.95 0.671564
11.96 0.670517
11.97 0.668037
11.98 0.664109
11.99 0.658582
12 0.651565
12.01 0.643096
12.02 0.633189
12.03 0.621865
12.04 0.609153
12.05 0.595043
12.06 0.579515
12.07 0.562729
12.08 0.54474
12.09 0.525606
12.1 0.505388
12.11 0.484156
12.12 0.461907
12.13 0.43878
12.14 0.414886
12.15 0.390313
12.16 0.365151
12.17 0.339495
12.18 0.313439
12.19 0.287077
12.2 0.260553
12.21 0.233978
12.22 0.207464
12.23 0.181126
12.24 0.155081
12.25 0.129485
12.26 0.104455
