# xPDFsuite Configuration #
[PDF]
wavelength = 0.1
dataformat = QA
inputfile = BiMsol6_insitu_700 C-00320.xy
backgroundfile = Quartz2mm-dist500-00000.xy
mode = xray
bgscale = 0.0042
composition = Bi2Fe4O9
outputtype = gr
qmaxinst = 24.998449118
qmin = 0.1
qmax = 21.4986662415
rmax = 80.0
rmin = 0.0
rstep = 0.01
rpoly = 0.9

[Misc]
inputdir = C:/Data/Seafile/CPH/Beamtime/Desy Oct 20/In situ data/Processed/BiMsol6/PDF
savedir = C:/Data/Seafile/CPH/Beamtime/Desy Oct 20/In situ data/PDF/BiMsol6
backgroundfilefull = C:/Data/Seafile/CPH/Beamtime/Desy Oct 20/In situ data/Processed/Standard_Empty_Cap/Quartz2mm-dist500-00000.xy

#### start data
#S 1
#L r($\AA$)  G($\AA^{-2}$)
0 0
0.01 0.00615684
0.02 0.011966
0.03 0.01713
0.04 0.0213817
0.05 0.024497
0.06 0.0263049
0.07 0.0266183
0.08 0.0253824
0.09 0.0227347
0.1 0.0187881
0.11 0.013718
0.12 0.00775452
0.13 0.00117235
0.14 -0.00571984
0.15 -0.0125328
0.16 -0.0189383
0.17 -0.024628
0.18 -0.0293258
0.19 -0.0328006
0.2 -0.0348153
0.21 -0.0352078
0.22 -0.0340724
0.23 -0.0314728
0.24 -0.0275484
0.25 -0.0225094
0.26 -0.0166291
0.27 -0.0102189
0.28 -0.00372687
0.29 0.00244812
0.3 0.00791821
0.31 0.0123145
0.32 0.0153051
0.33 0.0165536
0.34 0.0157306
0.35 0.0128864
0.36 0.00801776
0.37 0.00122294
0.38 -0.00729725
0.39 -0.0172418
0.4 -0.0282613
0.41 -0.0397532
0.42 -0.0511251
0.43 -0.0617737
0.44 -0.0710734
0.45 -0.0783998
0.46 -0.083091
0.47 -0.0842926
0.48 -0.0818133
0.49 -0.0753008
0.5 -0.0645215
0.51 -0.0493741
0.52 -0.0299
0.53 -0.00601408
0.54 0.0217553
0.55 0.0527045
0.56 0.0861821
0.57 0.121423
0.58 0.157567
0.59 0.193678
0.6 0.228563
0.61 0.261263
0.62 0.290821
0.63 0.316337
0.64 0.336995
0.65 0.352089
0.66 0.360645
0.67 0.362244
0.68 0.357033
0.69 0.344991
0.7 0.326276
0.71 0.301228
0.72 0.27035
0.73 0.233802
0.74 0.193055
0.75 0.14905
0.76 0.102791
0.77 0.0553268
0.78 0.00771743
0.79 -0.0388944
0.8 -0.083345
0.81 -0.124815
0.82 -0.162525
0.83 -0.195826
0.84 -0.224216
0.85 -0.247354
0.86 -0.264498
0.87 -0.276155
0.88 -0.28259
0.89 -0.284143
0.9 -0.281282
0.91 -0.274589
0.92 -0.264639
0.93 -0.25218
0.94 -0.238224
0.95 -0.223545
0.96 -0.208894
0.97 -0.194973
0.98 -0.182414
0.99 -0.171977
1 -0.164002
1.01 -0.158733
1.02 -0.156339
1.03 -0.156869
1.04 -0.160255
1.05 -0.166386
1.06 -0.175086
1.07 -0.185745
1.08 -0.197931
1.09 -0.211172
1.1 -0.224979
1.11 -0.238865
1.12 -0.252295
1.13 -0.264814
1.14 -0.276083
1.15 -0.285818
1.16 -0.293814
1.17 -0.299947
1.18 -0.304149
1.19 -0.306326
1.2 -0.306809
1.21 -0.305805
1.22 -0.303571
1.23 -0.300407
1.24 -0.296632
1.25 -0.292582
1.26 -0.288629
1.27 -0.285075
1.28 -0.282173
1.29 -0.280127
1.3 -0.279082
1.31 -0.279126
1.32 -0.280384
1.33 -0.282666
1.34 -0.285844
1.35 -0.289737
1.36 -0.294119
1.37 -0.298731
1.38 -0.303273
1.39 -0.307419
1.4 -0.310899
1.41 -0.313468
1.42 -0.314913
1.43 -0.315073
1.44 -0.313839
1.45 -0.311009
1.46 -0.306771
1.47 -0.301237
1.48 -0.294573
1.49 -0.286999
1.5 -0.278787
1.51 -0.270241
1.52 -0.261744
1.53 -0.253657
1.54 -0.246311
1.55 -0.240018
1.56 -0.235054
1.57 -0.231645
1.58 -0.230146
1.59 -0.23051
1.6 -0.232717
1.61 -0.2367
1.62 -0.242318
1.63 -0.249358
1.64 -0.257572
1.65 -0.266611
1.66 -0.276
1.67 -0.28533
1.68 -0.294178
1.69 -0.302126
1.7 -0.308777
1.71 -0.313588
1.72 -0.316321
1.73 -0.316786
1.74 -0.31482
1.75 -0.310337
1.76 -0.303333
1.77 -0.293832
1.78 -0.281875
1.79 -0.267937
1.8 -0.252339
1.81 -0.23545
1.82 -0.217681
1.83 -0.199468
1.84 -0.181293
1.85 -0.163651
1.86 -0.146951
1.87 -0.131564
1.88 -0.117808
1.89 -0.10594
1.9 -0.0961817
1.91 -0.0888389
1.92 -0.0837083
1.93 -0.0807249
1.94 -0.0797511
1.95 -0.0805838
1.96 -0.0829628
1.97 -0.0866425
1.98 -0.0912085
1.99 -0.0962419
2 -0.101382
2.01 -0.106284
2.02 -0.110627
2.03 -0.114129
2.04 -0.116423
2.05 -0.117458
2.06 -0.117148
2.07 -0.115475
2.08 -0.112494
2.09 -0.108323
2.1 -0.1031
2.11 -0.0971038
2.12 -0.0906833
2.13 -0.0841603
2.14 -0.0778737
2.15 -0.072167
2.16 -0.067375
2.17 -0.0639763
2.18 -0.0621447
2.19 -0.0620913
2.2 -0.0639816
2.21 -0.0679188
2.22 -0.0739411
2.23 -0.0821078
2.24 -0.0923508
2.25 -0.104348
2.26 -0.11787
2.27 -0.132639
2.28 -0.14834
2.29 -0.164634
2.3 -0.181152
2.31 -0.197478
2.32 -0.213268
2.33 -0.228203
2.34 -0.241999
2.35 -0.254418
2.36 -0.26521
2.37 -0.274152
2.38 -0.281318
2.39 -0.28671
2.4 -0.29039
2.41 -0.292474
2.42 -0.293124
2.43 -0.29246
2.44 -0.290827
2.45 -0.288526
2.46 -0.285835
2.47 -0.283034
2.48 -0.28039
2.49 -0.27817
2.5 -0.276667
2.51 -0.276019
2.52 -0.276366
2.53 -0.277803
2.54 -0.28038
2.55 -0.2841
2.56 -0.289003
2.57 -0.29495
2.58 -0.301769
2.59 -0.309304
2.6 -0.317377
2.61 -0.325795
2.62 -0.334353
2.63 -0.34282
2.64 -0.35099
2.65 -0.358684
2.66 -0.365742
2.67 -0.372025
2.68 -0.377423
2.69 -0.381785
2.7 -0.385065
2.71 -0.387292
2.72 -0.388472
2.73 -0.388629
2.74 -0.387808
2.75 -0.386066
2.76 -0.383378
2.77 -0.379921
2.78 -0.375765
2.79 -0.370974
2.8 -0.365601
2.81 -0.35969
2.82 -0.353243
2.83 -0.346269
2.84 -0.338796
2.85 -0.330804
2.86 -0.322263
2.87 -0.313134
2.88 -0.303371
2.89 -0.292849
2.9 -0.281584
2.91 -0.269543
2.92 -0.256699
2.93 -0.243037
2.94 -0.228559
2.95 -0.213251
2.96 -0.197139
2.97 -0.180346
2.98 -0.162957
2.99 -0.145074
3 -0.126814
3.01 -0.108307
3.02 -0.089696
3.03 -0.0711482
3.04 -0.0528076
3.05 -0.0348103
3.06 -0.0172823
3.07 -0.000334991
3.08 0.0159142
3.09 0.0313466
3.1 0.0459789
3.11 0.0597945
3.12 0.072802
3.13 0.0850348
3.14 0.0965499
3.15 0.107379
3.16 0.117667
3.17 0.127548
3.18 0.137142
3.19 0.146577
3.2 0.155977
3.21 0.165467
3.22 0.175185
3.23 0.185212
3.24 0.195623
3.25 0.206471
3.26 0.217786
3.27 0.229575
3.28 0.241852
3.29 0.254554
3.3 0.267592
3.31 0.280882
3.32 0.29432
3.33 0.307794
3.34 0.321179
3.35 0.334312
3.36 0.34708
3.37 0.359362
3.38 0.371046
3.39 0.382035
3.4 0.392245
3.41 0.401552
3.42 0.409914
3.43 0.417355
3.44 0.423875
3.45 0.429492
3.46 0.434243
3.47 0.438181
3.48 0.441298
3.49 0.443769
3.5 0.445684
3.51 0.447139
3.52 0.448231
3.53 0.449057
3.54 0.449704
3.55 0.450269
3.56 0.450835
3.57 0.451468
3.58 0.452218
3.59 0.453124
3.6 0.454213
3.61 0.455517
3.62 0.457018
3.63 0.4587
3.64 0.460538
3.65 0.462501
3.66 0.464549
3.67 0.46664
3.68 0.468716
3.69 0.470726
3.7 0.472619
3.71 0.474345
3.72 0.475857
3.73 0.477112
3.74 0.478035
3.75 0.478608
3.76 0.478806
3.77 0.478602
3.78 0.477974
3.79 0.476901
3.8 0.475354
3.81 0.473291
3.82 0.470744
3.83 0.467705
3.84 0.46417
3.85 0.460133
3.86 0.455593
3.87 0.450504
3.88 0.444889
3.89 0.438766
3.9 0.432132
3.91 0.424989
3.92 0.417334
3.93 0.409159
3.94 0.400422
3.95 0.391174
3.96 0.381414
3.97 0.37114
3.98 0.360353
3.99 0.34905
4 0.337193
4.01 0.324793
4.02 0.31187
4.03 0.298423
4.04 0.284449
4.05 0.269946
4.06 0.254911
4.07 0.239293
4.08 0.223153
4.09 0.206502
4.1 0.189353
4.11 0.171726
4.12 0.153647
4.13 0.135127
4.14 0.116218
4.15 0.0969964
4.16 0.0775264
4.17 0.0578804
4.18 0.0381407
4.19 0.0183985
4.2 -0.00122413
4.21 -0.0206203
4.22 -0.039678
4.23 -0.0582821
4.24 -0.0763168
4.25 -0.0936684
4.26 -0.110183
4.27 -0.125728
4.28 -0.14027
4.29 -0.153733
4.3 -0.166056
4.31 -0.177196
4.32 -0.187131
4.33 -0.195733
4.34 -0.203133
4.35 -0.209391
4.36 -0.214572
4.37 -0.218758
4.38 -0.222048
4.39 -0.224531
4.4 -0.226322
4.41 -0.227617
4.42 -0.228553
4.43 -0.229266
4.44 -0.229889
4.45 -0.230544
4.46 -0.231367
4.47 -0.232454
4.48 -0.233874
4.49 -0.23568
4.5 -0.237904
4.51 -0.240556
4.52 -0.243633
4.53 -0.247117
4.54 -0.250914
4.55 -0.254947
4.56 -0.259127
4.57 -0.263356
4.58 -0.267529
4.59 -0.271515
4.6 -0.275203
4.61 -0.278502
4.62 -0.281326
4.63 -0.2836
4.64 -0.28527
4.65 -0.286286
4.66 -0.286577
4.67 -0.286218
4.68 -0.285241
4.69 -0.283695
4.7 -0.28165
4.71 -0.27919
4.72 -0.2764
4.73 -0.27341
4.74 -0.270348
4.75 -0.267329
4.76 -0.264466
4.77 -0.261862
4.78 -0.259615
4.79 -0.257862
4.8 -0.256622
4.81 -0.255939
4.82 -0.255838
4.83 -0.256324
4.84 -0.257384
4.85 -0.259015
4.86 -0.261163
4.87 -0.263732
4.88 -0.266647
4.89 -0.26983
4.9 -0.273195
4.91 -0.276659
4.92 -0.280133
4.93 -0.283535
4.94 -0.286799
4.95 -0.289873
4.96 -0.292715
4.97 -0.295298
4.98 -0.297594
4.99 -0.299596
5 -0.301337
5.01 -0.302837
5.02 -0.304127
5.03 -0.305239
5.04 -0.306207
5.05 -0.307058
5.06 -0.307831
5.07 -0.308547
5.08 -0.309215
5.09 -0.309831
5.1 -0.31038
5.11 -0.310824
5.12 -0.311104
5.13 -0.311165
5.14 -0.31093
5.15 -0.310315
5.16 -0.309225
5.17 -0.307562
5.18 -0.305155
5.19 -0.301935
5.2 -0.297827
5.21 -0.292749
5.22 -0.286629
5.23 -0.27941
5.24 -0.271025
5.25 -0.261372
5.26 -0.250562
5.27 -0.238619
5.28 -0.225586
5.29 -0.211523
5.3 -0.196507
5.31 -0.18057
5.32 -0.163862
5.33 -0.146526
5.34 -0.128677
5.35 -0.110429
5.36 -0.0918922
5.37 -0.0731715
5.38 -0.0543656
5.39 -0.035574
5.4 -0.0168666
5.41 0.0016997
5.42 0.0200811
5.43 0.0382459
5.44 0.056157
5.45 0.0738059
5.46 0.091201
5.47 0.108342
5.48 0.125227
5.49 0.141852
5.5 0.158205
5.51 0.174231
5.52 0.189926
5.53 0.20524
5.54 0.220108
5.55 0.234451
5.56 0.248173
5.57 0.261116
5.58 0.273133
5.59 0.284136
5.6 0.293986
5.61 0.302541
5.62 0.309663
5.63 0.315223
5.64 0.318907
5.65 0.320775
5.66 0.320765
5.67 0.318827
5.68 0.314938
5.69 0.309106
5.7 0.30129
5.71 0.291522
5.72 0.280051
5.73 0.267014
5.74 0.252577
5.75 0.236926
5.76 0.220266
5.77 0.202759
5.78 0.184718
5.79 0.166385
5.8 0.147981
5.81 0.129718
5.82 0.11179
5.83 0.0943955
5.84 0.0777377
5.85 0.0618885
5.86 0.0469367
5.87 0.0329415
5.88 0.0199332
5.89 0.00791409
5.9 -0.00305995
5.91 -0.013097
5.92 -0.0222953
5.93 -0.0307364
5.94 -0.0385096
5.95 -0.0457072
5.96 -0.0524111
5.97 -0.0586851
5.98 -0.0646427
5.99 -0.0703369
6 -0.0758022
6.01 -0.0810526
6.02 -0.0860805
6.03 -0.090834
6.04 -0.0952609
6.05 -0.0992983
6.06 -0.102857
6.07 -0.105836
6.08 -0.108127
6.09 -0.109607
6.1 -0.110068
6.11 -0.109496
6.12 -0.107803
6.13 -0.104918
6.14 -0.100791
6.15 -0.0953946
6.16 -0.0886498
6.17 -0.0806054
6.18 -0.0713916
6.19 -0.0610979
6.2 -0.0498394
6.21 -0.0377537
6.22 -0.0249981
6.23 -0.0117084
6.24 0.00185584
6.25 0.0155049
6.26 0.0290503
6.27 0.0423094
6.28 0.0551109
6.29 0.067259
6.3 0.0785916
6.31 0.0890439
6.32 0.0985364
6.33 0.107018
6.34 0.114465
6.35 0.120884
6.36 0.12621
6.37 0.130604
6.38 0.134166
6.39 0.137002
6.4 0.139232
6.41 0.140987
6.42 0.142395
6.43 0.143609
6.44 0.144786
6.45 0.146053
6.46 0.147527
6.47 0.149308
6.48 0.151482
6.49 0.154164
6.5 0.157374
6.51 0.161124
6.52 0.165421
6.53 0.170254
6.54 0.175597
6.55 0.181424
6.56 0.187701
6.57 0.19433
6.58 0.201246
6.59 0.208385
6.6 0.215683
6.61 0.223082
6.62 0.230524
6.63 0.237957
6.64 0.245339
6.65 0.252643
6.66 0.259848
6.67 0.26694
6.68 0.273911
6.69 0.280751
6.7 0.287476
6.71 0.29409
6.72 0.300597
6.73 0.307
6.74 0.313294
6.75 0.319461
6.76 0.325483
6.77 0.331335
6.78 0.33698
6.79 0.342368
6.8 0.347441
6.81 0.352128
6.82 0.356297
6.83 0.359909
6.84 0.362874
6.85 0.365105
6.86 0.366511
6.87 0.367005
6.88 0.36644
6.89 0.364735
6.9 0.361884
6.91 0.357834
6.92 0.352545
6.93 0.345994
6.94 0.338167
6.95 0.328927
6.96 0.318436
6.97 0.306736
6.98 0.293874
6.99 0.279912
7 0.26492
7.01 0.248935
7.02 0.23204
7.03 0.214392
7.04 0.196084
7.05 0.177211
7.06 0.157867
7.07 0.138143
7.08 0.118107
7.09 0.0978773
7.1 0.0775338
7.11 0.0571488
7.12 0.0367885
7.13 0.0165137
7.14 -0.00361242
7.15 -0.0235246
7.16 -0.0431884
7.17 -0.0625607
7.18 -0.0816005
7.19 -0.100269
7.2 -0.118527
7.21 -0.136292
7.22 -0.153552
7.23 -0.17028
7.24 -0.186437
7.25 -0.201986
7.26 -0.216887
7.27 -0.231084
7.28 -0.244492
7.29 -0.257139
7.3 -0.268995
7.31 -0.280034
7.32 -0.290235
7.33 -0.299581
7.34 -0.307994
7.35 -0.315509
7.36 -0.322163
7.37 -0.32797
7.38 -0.332951
7.39 -0.337132
7.4 -0.340536
7.41 -0.343148
7.42 -0.345091
7.43 -0.346415
7.44 -0.347173
7.45 -0.347422
7.46 -0.347216
7.47 -0.346588
7.48 -0.345608
7.49 -0.344344
7.5 -0.342842
7.51 -0.341144
7.52 -0.339285
7.53 -0.337294
7.54 -0.335183
7.55 -0.332982
7.56 -0.330699
7.57 -0.328333
7.58 -0.32588
7.59 -0.323329
7.6 -0.320657
7.61 -0.317841
7.62 -0.314862
7.63 -0.311695
7.64 -0.308313
7.65 -0.304687
7.66 -0.30079
7.67 -0.296562
7.68 -0.292011
7.69 -0.287118
7.7 -0.28187
7.71 -0.276258
7.72 -0.270279
7.73 -0.263919
7.74 -0.257181
7.75 -0.250106
7.76 -0.24272
7.77 -0.235052
7.78 -0.227139
7.79 -0.219022
7.8 -0.210738
7.81 -0.20236
7.82 -0.193946
7.83 -0.185557
7.84 -0.177255
7.85 -0.169101
7.86 -0.16117
7.87 -0.153542
7.88 -0.146258
7.89 -0.139371
7.9 -0.13293
7.91 -0.12698
7.92 -0.121556
7.93 -0.116739
7.94 -0.112517
7.95 -0.108884
7.96 -0.10584
7.97 -0.103379
7.98 -0.101483
7.99 -0.100142
8 -0.0993522
8.01 -0.0990242
8.02 -0.0991133
8.03 -0.0995707
8.04 -0.100345
8.05 -0.101384
8.06 -0.102649
8.07 -0.104074
8.08 -0.105606
8.09 -0.107206
8.1 -0.108837
8.11 -0.110471
8.12 -0.112088
8.13 -0.113671
8.14 -0.115219
8.15 -0.116734
8.16 -0.118228
8.17 -0.119716
8.18 -0.121218
8.19 -0.122759
8.2 -0.124368
8.21 -0.126065
8.22 -0.127869
8.23 -0.129796
8.24 -0.131854
8.25 -0.134045
8.26 -0.136372
8.27 -0.138798
8.28 -0.141291
8.29 -0.143807
8.3 -0.14629
8.31 -0.148675
8.32 -0.150873
8.33 -0.152783
8.34 -0.154328
8.35 -0.15541
8.36 -0.155933
8.37 -0.155802
8.38 -0.154922
8.39 -0.153107
8.4 -0.150358
8.41 -0.146615
8.42 -0.141827
8.43 -0.135956
8.44 -0.128979
8.45 -0.12084
8.46 -0.111527
8.47 -0.101148
8.48 -0.0897523
8.49 -0.077399
8.5 -0.0641613
8.51 -0.0501222
8.52 -0.0353129
8.53 -0.0198977
8.54 -0.00398938
8.55 0.0123128
8.56 0.0289126
8.57 0.045719
8.58 0.0626499
8.59 0.0796238
8.6 0.0965702
8.61 0.113439
8.62 0.130191
8.63 0.146799
8.64 0.163244
8.65 0.179506
8.66 0.195593
8.67 0.211517
8.68 0.22729
8.69 0.24292
8.7 0.258417
8.71 0.273784
8.72 0.289009
8.73 0.304094
8.74 0.319017
8.75 0.333747
8.76 0.34824
8.77 0.36244
8.78 0.376248
8.79 0.389586
8.8 0.40238
8.81 0.414532
8.82 0.425942
8.83 0.436504
8.84 0.4461
8.85 0.454516
8.86 0.461757
8.87 0.467736
8.88 0.472374
8.89 0.475604
8.9 0.477374
8.91 0.477548
8.92 0.476123
8.93 0.473174
8.94 0.468717
8.95 0.46278
8.96 0.455404
8.97 0.446644
8.98 0.436421
8.99 0.424967
9 0.412364
9.01 0.398694
9.02 0.384042
9.03 0.368492
9.04 0.352083
9.05 0.334899
9.06 0.317061
9.07 0.298634
9.08 0.279677
9.09 0.260245
9.1 0.240386
9.11 0.22011
9.12 0.1995
9.13 0.178604
9.14 0.157463
9.15 0.136125
9.16 0.114639
9.17 0.0930607
9.18 0.0714644
9.19 0.0499304
9.2 0.0285422
9.21 0.00739274
9.22 -0.0134167
9.23 -0.0337768
9.24 -0.0535055
9.25 -0.0725091
9.26 -0.0906753
9.27 -0.107879
9.28 -0.123999
9.29 -0.138918
9.3 -0.152482
9.31 -0.164504
9.32 -0.175017
9.33 -0.183954
9.34 -0.191267
9.35 -0.196924
9.36 -0.200915
9.37 -0.203111
9.38 -0.203631
9.39 -0.202581
9.4 -0.200027
9.41 -0.196052
9.42 -0.190748
9.43 -0.184198
9.44 -0.176443
9.45 -0.167713
9.46 -0.158125
9.47 -0.147792
9.48 -0.136821
9.49 -0.125314
9.5 -0.113337
9.51 -0.100995
9.52 -0.0883736
9.53 -0.0755292
9.54 -0.0625065
9.55 -0.04934
9.56 -0.0360539
9.57 -0.0226574
9.58 -0.00917342
9.59 0.00439009
9.6 0.0180258
9.61 0.0317245
9.62 0.0454733
9.63 0.0592536
9.64 0.0730329
9.65 0.0867716
9.66 0.100422
9.67 0.113924
9.68 0.12721
9.69 0.140203
9.7 0.152759
9.71 0.164821
9.72 0.17629
9.73 0.187067
9.74 0.197051
9.75 0.20615
9.76 0.214219
9.77 0.221153
9.78 0.226955
9.79 0.231575
9.8 0.234978
9.81 0.237149
9.82 0.238089
9.83 0.237696
9.84 0.236125
9.85 0.233451
9.86 0.229746
9.87 0.225099
9.88 0.219604
9.89 0.213343
9.9 0.206417
9.91 0.198995
9.92 0.191185
9.93 0.183094
9.94 0.17482
9.95 0.166451
9.96 0.15807
9.97 0.149747
9.98 0.14153
9.99 0.133451
10 0.12553
10.01 0.117772
10.02 0.110174
10.03 0.102723
10.04 0.0953786
10.05 0.0881057
10.06 0.0808667
10.07 0.0736227
10.08 0.0663353
10.09 0.0589608
10.1 0.0514703
10.11 0.0438461
10.12 0.0360761
10.13 0.0281577
10.14 0.020098
10.15 0.0119127
10.16 0.003625
10.17 -0.00471526
10.18 -0.0130631
10.19 -0.0213679
10.2 -0.0295747
10.21 -0.0376268
10.22 -0.0454478
10.23 -0.0529803
10.24 -0.060184
10.25 -0.0670142
10.26 -0.0734335
10.27 -0.0794128
10.28 -0.0849288
10.29 -0.089923
10.3 -0.0944487
10.31 -0.098518
10.32 -0.102152
10.33 -0.105379
10.34 -0.108237
10.35 -0.110749
10.36 -0.11297
10.37 -0.114968
10.38 -0.116793
10.39 -0.118492
10.4 -0.120114
10.41 -0.121702
10.42 -0.123298
10.43 -0.124938
10.44 -0.126648
10.45 -0.128449
10.46 -0.130355
10.47 -0.132375
10.48 -0.134516
10.49 -0.136778
10.5 -0.139148
10.51 -0.141615
10.52 -0.144168
10.53 -0.146794
10.54 -0.149481
10.55 -0.152219
10.56 -0.154992
10.57 -0.157788
10.58 -0.160601
10.59 -0.163423
10.6 -0.166249
10.61 -0.169077
10.62 -0.171903
10.63 -0.174727
10.64 -0.177545
10.65 -0.180357
10.66 -0.183159
10.67 -0.185946
10.68 -0.188709
10.69 -0.191438
10.7 -0.194123
10.71 -0.19675
10.72 -0.199303
10.73 -0.201767
10.74 -0.204119
10.75 -0.206332
10.76 -0.208399
10.77 -0.210306
10.78 -0.21204
10.79 -0.213592
10.8 -0.214958
10.81 -0.216123
10.82 -0.217102
10.83 -0.217912
10.84 -0.218572
10.85 -0.219103
10.86 -0.219532
10.87 -0.219886
10.88 -0.220201
10.89 -0.220516
10.9 -0.220866
10.91 -0.221282
10.92 -0.221794
10.93 -0.222424
10.94 -0.223204
10.95 -0.22414
10.96 -0.225227
10.97 -0.226457
10.98 -0.227811
10.99 -0.229264
11 -0.230778
11.01 -0.232305
11.02 -0.233784
11.03 -0.235154
11.04 -0.236351
11.05 -0.237308
11.06 -0.237956
11.07 -0.238206
11.08 -0.237982
11.09 -0.237254
11.1 -0.235974
11.11 -0.234103
11.12 -0.231615
11.13 -0.228494
11.14 -0.224669
11.15 -0.22022
11.16 -0.215177
11.17 -0.209579
11.18 -0.203475
11.19 -0.196923
11.2 -0.189977
11.21 -0.182713
11.22 -0.175233
11.23 -0.167615
11.24 -0.159935
11.25 -0.152265
11.26 -0.144672
11.27 -0.137234
11.28 -0.129992
11.29 -0.122981
11.3 -0.116224
11.31 -0.109735
11.32 -0.103513
11.33 -0.097556
11.34 -0.0918485
11.35 -0.0863358
11.36 -0.0809764
11.37 -0.0757229
11.38 -0.0705239
11.39 -0.065326
11.4 -0.0600665
11.41 -0.0546913
11.42 -0.0491562
11.43 -0.0434207
11.44 -0.0374517
11.45 -0.0312243
11.46 -0.0247155
11.47 -0.017899
11.48 -0.0108049
11.49 -0.00344571
11.5 0.0041585
11.51 0.0119814
11.52 0.0199917
11.53 0.0281636
11.54 0.0364499
11.55 0.0448085
11.56 0.0532054
11.57 0.0616099
11.58 0.0699961
11.59 0.0783437
11.6 0.086634
11.61 0.0948673
11.62 0.103047
11.63 0.111184
11.64 0.119294
11.65 0.127398
11.66 0.135528
11.67 0.143715
11.68 0.151987
11.69 0.160372
11.7 0.168896
11.71 0.177578
11.72 0.186433
11.73 0.195486
11.74 0.20471
11.75 0.214088
11.76 0.223593
11.77 0.233187
11.78 0.242819
11.79 0.252426
11.8 0.261926
11.81 0.271242
11.82 0.28029
11.83 0.288983
11.84 0.29723
11.85 0.30494
11.86 0.311952
11.87 0.318235
11.88 0.323722
11.89 0.328347
11.9 0.332056
11.91 0.334805
11.92 0.336519
11.93 0.337149
11.94 0.336769
11.95 0.335389
11.96 0.333033
11.97 0.329738
11.98 0.325548
11.99 0.320441
12 0.314551
12.01 0.307962
12.02 0.300742
12.03 0.292963
12.04 0.284694
12.05 0.275992
12.06 0.266909
12.07 0.257538
12.08 0.247931
12.09 0.238132
12.1 0.228179
12.11 0.218106
12.12 0.207931
12.13 0.197682
12.14 0.187376
12.15 0.177025
12.16 0.166636
12.17 0.156219
12.18 0.145782
12.19 0.135335
12.2 0.124894
12.21 0.114475
12.22 0.104101
