# xPDFsuite Configuration #
[PDF]
wavelength = 0.1
dataformat = QA
inputfile = BiMsol6_insitu_700 C-00581.xy
backgroundfile = Quartz2mm-dist500-00000.xy
mode = xray
bgscale = 0.0042
composition = Bi2Fe4O9
outputtype = gr
qmaxinst = 24.998449118
qmin = 0.1
qmax = 21.4986662415
rmax = 80.0
rmin = 0.0
rstep = 0.01
rpoly = 0.9

[Misc]
inputdir = C:/Data/Seafile/CPH/Beamtime/Desy Oct 20/In situ data/Processed/BiMsol6/PDF
savedir = C:/Data/Seafile/CPH/Beamtime/Desy Oct 20/In situ data/PDF/BiMsol6
backgroundfilefull = C:/Data/Seafile/CPH/Beamtime/Desy Oct 20/In situ data/Processed/Standard_Empty_Cap/Quartz2mm-dist500-00000.xy

#### start data
#S 1
#L r($\AA$)  G($\AA^{-2}$)
0 0
0.01 0.00600115
0.02 0.0116593
0.03 0.0166808
0.04 0.0208027
0.05 0.0238043
0.06 0.0255178
0.07 0.0257602
0.08 0.0244794
0.09 0.0218128
0.1 0.0178738
0.11 0.0128377
0.12 0.00693354
0.13 0.000434171
0.14 -0.00635271
0.15 -0.013044
0.16 -0.019316
0.17 -0.0248659
0.18 -0.0294229
0.19 -0.0327622
0.2 -0.0346533
0.21 -0.0349417
0.22 -0.0337258
0.23 -0.0310744
0.24 -0.0271305
0.25 -0.022107
0.26 -0.0162782
0.27 -0.00995851
0.28 -0.00359055
0.29 0.00243173
0.3 0.00772651
0.31 0.0119325
0.32 0.0147266
0.33 0.0157831
0.34 0.0147857
0.35 0.0117953
0.36 0.00681954
0.37 -3.33313e-05
0.38 -0.00855378
0.39 -0.018434
0.4 -0.0293142
0.41 -0.0405942
0.42 -0.0516863
0.43 -0.0619933
0.44 -0.0708996
0.45 -0.0777939
0.46 -0.0820314
0.47 -0.0827807
0.48 -0.0798757
0.49 -0.0729898
0.5 -0.0619159
0.51 -0.0465797
0.52 -0.0270493
0.53 -0.00327745
0.54 0.0241871
0.55 0.0546304
0.56 0.0873881
0.57 0.121688
0.58 0.156669
0.59 0.191397
0.6 0.224676
0.61 0.255589
0.62 0.28321
0.63 0.306672
0.64 0.325197
0.65 0.338126
0.66 0.344535
0.67 0.344064
0.68 0.336908
0.69 0.323096
0.7 0.302833
0.71 0.276502
0.72 0.244643
0.73 0.207488
0.74 0.166493
0.75 0.12261
0.76 0.0768458
0.77 0.0302409
0.78 -0.01616
0.79 -0.0612257
0.8 -0.103828
0.81 -0.143212
0.82 -0.178647
0.83 -0.209538
0.84 -0.235438
0.85 -0.256062
0.86 -0.270734
0.87 -0.280017
0.88 -0.284224
0.89 -0.283736
0.9 -0.279058
0.91 -0.270798
0.92 -0.259561
0.93 -0.246117
0.94 -0.231453
0.95 -0.216335
0.96 -0.201494
0.97 -0.187608
0.98 -0.175277
0.99 -0.165239
1 -0.157779
1.01 -0.153097
1.02 -0.151323
1.03 -0.15247
1.04 -0.156436
1.05 -0.163078
1.06 -0.17219
1.07 -0.18315
1.08 -0.195519
1.09 -0.208822
1.1 -0.222572
1.11 -0.236292
1.12 -0.249456
1.13 -0.261633
1.14 -0.272508
1.15 -0.281818
1.16 -0.289381
1.17 -0.295091
1.18 -0.298898
1.19 -0.300725
1.2 -0.300907
1.21 -0.299651
1.22 -0.297212
1.23 -0.293876
1.24 -0.289951
1.25 -0.285748
1.26 -0.281613
1.27 -0.277823
1.28 -0.274605
1.29 -0.272136
1.3 -0.270538
1.31 -0.269879
1.32 -0.270252
1.33 -0.271478
1.34 -0.273432
1.35 -0.275941
1.36 -0.278799
1.37 -0.281774
1.38 -0.284598
1.39 -0.286992
1.4 -0.288739
1.41 -0.289643
1.42 -0.289546
1.43 -0.288336
1.44 -0.285953
1.45 -0.282271
1.46 -0.277489
1.47 -0.271741
1.48 -0.265206
1.49 -0.258107
1.5 -0.2507
1.51 -0.243279
1.52 -0.236186
1.53 -0.229706
1.54 -0.224107
1.55 -0.219627
1.56 -0.216463
1.57 -0.214758
1.58 -0.214757
1.59 -0.216337
1.6 -0.21941
1.61 -0.223842
1.62 -0.229441
1.63 -0.235954
1.64 -0.243092
1.65 -0.250479
1.66 -0.257706
1.67 -0.264397
1.68 -0.270188
1.69 -0.274733
1.7 -0.277721
1.71 -0.278703
1.72 -0.277572
1.73 -0.274254
1.74 -0.2687
1.75 -0.260933
1.76 -0.25105
1.77 -0.239178
1.78 -0.225476
1.79 -0.210425
1.8 -0.194371
1.81 -0.177691
1.82 -0.160776
1.83 -0.144022
1.84 -0.127879
1.85 -0.112721
1.86 -0.0988252
1.87 -0.0864392
1.88 -0.0757475
1.89 -0.066867
1.9 -0.0598702
1.91 -0.0548792
1.92 -0.0515894
1.93 -0.0498247
1.94 -0.0493554
1.95 -0.0499085
1.96 -0.0511798
1.97 -0.0528511
1.98 -0.0545429
1.99 -0.0559282
2 -0.0567251
2.01 -0.0566921
2.02 -0.0556387
2.03 -0.053429
2.04 -0.0498649
2.05 -0.0451037
2.06 -0.0392398
2.07 -0.0324349
2.08 -0.0249126
2.09 -0.0169507
2.1 -0.00888563
2.11 -0.0011307
2.12 0.0059346
2.13 0.0119343
2.14 0.0165064
2.15 0.0193163
2.16 0.0200702
2.17 0.0182547
2.18 0.0139205
2.19 0.00699579
2.2 -0.0025333
2.21 -0.0146034
2.22 -0.0290754
2.23 -0.0458243
2.24 -0.0645733
2.25 -0.0848207
2.26 -0.106176
2.27 -0.128219
2.28 -0.150514
2.29 -0.172619
2.3 -0.194007
2.31 -0.214286
2.32 -0.233115
2.33 -0.250192
2.34 -0.265277
2.35 -0.278192
2.36 -0.288754
2.37 -0.296822
2.38 -0.30264
2.39 -0.30633
2.4 -0.308071
2.41 -0.308094
2.42 -0.306673
2.43 -0.30404
2.44 -0.300624
2.45 -0.296787
2.46 -0.292851
2.47 -0.289118
2.48 -0.285861
2.49 -0.283339
2.5 -0.281829
2.51 -0.28139
2.52 -0.282101
2.53 -0.283988
2.54 -0.287029
2.55 -0.291151
2.56 -0.296305
2.57 -0.302282
2.58 -0.308863
2.59 -0.315848
2.6 -0.323029
2.61 -0.330198
2.62 -0.337151
2.63 -0.343647
2.64 -0.349556
2.65 -0.354752
2.66 -0.35914
2.67 -0.362657
2.68 -0.365276
2.69 -0.366945
2.7 -0.367724
2.71 -0.367726
2.72 -0.367042
2.73 -0.365778
2.74 -0.364049
2.75 -0.361974
2.76 -0.359657
2.77 -0.357243
2.78 -0.354827
2.79 -0.352484
2.8 -0.350274
2.81 -0.348234
2.82 -0.346387
2.83 -0.344729
2.84 -0.343217
2.85 -0.341807
2.86 -0.340443
2.87 -0.339059
2.88 -0.337586
2.89 -0.335931
2.9 -0.33404
2.91 -0.331859
2.92 -0.329344
2.93 -0.326467
2.94 -0.323212
2.95 -0.319562
2.96 -0.315523
2.97 -0.311151
2.98 -0.306483
2.99 -0.301561
3 -0.296428
3.01 -0.291123
3.02 -0.285666
3.03 -0.280088
3.04 -0.27439
3.05 -0.268551
3.06 -0.262527
3.07 -0.25625
3.08 -0.249615
3.09 -0.242463
3.1 -0.234683
3.11 -0.226119
3.12 -0.216599
3.13 -0.205948
3.14 -0.193989
3.15 -0.180411
3.16 -0.165117
3.17 -0.148025
3.18 -0.129031
3.19 -0.108067
3.2 -0.0851034
3.21 -0.0601127
3.22 -0.0330229
3.23 -0.00414399
3.24 0.0263582
3.25 0.0582731
3.26 0.0913495
3.27 0.1253
3.28 0.15982
3.29 0.194502
3.3 0.228964
3.31 0.262842
3.32 0.295776
3.33 0.327419
3.34 0.357423
3.35 0.38527
3.36 0.410886
3.37 0.434059
3.38 0.454622
3.39 0.472454
3.4 0.487485
3.41 0.499515
3.42 0.508603
3.43 0.51498
3.44 0.518763
3.45 0.520097
3.46 0.519157
3.47 0.516136
3.48 0.511046
3.49 0.504334
3.5 0.496211
3.51 0.48688
3.52 0.476529
3.53 0.46533
3.54 0.453407
3.55 0.440901
3.56 0.427956
3.57 0.414654
3.58 0.401057
3.59 0.387206
3.6 0.373132
3.61 0.358834
3.62 0.344343
3.63 0.329672
3.64 0.314835
3.65 0.299855
3.66 0.284764
3.67 0.269606
3.68 0.254455
3.69 0.239398
3.7 0.224535
3.71 0.209981
3.72 0.195868
3.73 0.18234
3.74 0.169631
3.75 0.157867
3.76 0.147189
3.77 0.137753
3.78 0.129704
3.79 0.123177
3.8 0.11834
3.81 0.115404
3.82 0.114293
3.83 0.115051
3.84 0.117695
3.85 0.122219
3.86 0.128587
3.87 0.13688
3.88 0.146917
3.89 0.158528
3.9 0.171588
3.91 0.185956
3.92 0.201485
3.93 0.218032
3.94 0.235487
3.95 0.253593
3.96 0.272194
3.97 0.291141
3.98 0.31029
3.99 0.329508
4 0.348657
4.01 0.36761
4.02 0.386268
4.03 0.404536
4.04 0.422329
4.05 0.439566
4.06 0.456169
4.07 0.471984
4.08 0.487015
4.09 0.501193
4.1 0.51445
4.11 0.526718
4.12 0.537926
4.13 0.547932
4.14 0.556659
4.15 0.564104
4.16 0.570199
4.17 0.574884
4.18 0.578101
4.19 0.579802
4.2 0.579769
4.21 0.578141
4.22 0.574912
4.23 0.570081
4.24 0.563662
4.25 0.555683
4.26 0.546112
4.27 0.534987
4.28 0.522478
4.29 0.508663
4.3 0.493627
4.31 0.477461
4.32 0.460259
4.33 0.442027
4.34 0.422948
4.35 0.403123
4.36 0.38263
4.37 0.361543
4.38 0.339922
4.39 0.317806
4.4 0.295224
4.41 0.272245
4.42 0.248894
4.43 0.225189
4.44 0.201144
4.45 0.17677
4.46 0.152052
4.47 0.127028
4.48 0.101728
4.49 0.0761826
4.5 0.0504307
4.51 0.0245237
4.52 -0.00147548
4.53 -0.0274798
4.54 -0.0533902
4.55 -0.0791032
4.56 -0.104505
4.57 -0.129476
4.58 -0.153888
4.59 -0.177549
4.6 -0.200342
4.61 -0.222172
4.62 -0.242927
4.63 -0.262506
4.64 -0.280822
4.65 -0.297787
4.66 -0.313229
4.67 -0.327265
4.68 -0.339895
4.69 -0.351144
4.7 -0.361058
4.71 -0.369704
4.72 -0.37709
4.73 -0.38336
4.74 -0.388686
4.75 -0.393193
4.76 -0.397008
4.77 -0.400263
4.78 -0.403082
4.79 -0.405564
4.8 -0.407863
4.81 -0.410071
4.82 -0.412266
4.83 -0.414511
4.84 -0.416847
4.85 -0.419307
4.86 -0.421898
4.87 -0.424599
4.88 -0.427383
4.89 -0.430211
4.9 -0.433033
4.91 -0.435794
4.92 -0.438415
4.93 -0.440841
4.94 -0.443015
4.95 -0.444884
4.96 -0.446402
4.97 -0.447529
4.98 -0.448216
4.99 -0.448431
5 -0.448196
5.01 -0.447512
5.02 -0.446388
5.03 -0.444839
5.04 -0.442883
5.05 -0.440507
5.06 -0.437766
5.07 -0.434687
5.08 -0.431287
5.09 -0.427575
5.1 -0.423556
5.11 -0.419218
5.12 -0.414532
5.13 -0.409507
5.14 -0.404118
5.15 -0.398338
5.16 -0.392135
5.17 -0.385477
5.18 -0.378292
5.19 -0.370582
5.2 -0.362343
5.21 -0.353571
5.22 -0.344271
5.23 -0.334463
5.24 -0.324169
5.25 -0.313419
5.26 -0.302323
5.27 -0.290963
5.28 -0.279435
5.29 -0.267844
5.3 -0.256304
5.31 -0.244958
5.32 -0.233935
5.33 -0.223346
5.34 -0.213304
5.35 -0.20391
5.36 -0.195254
5.37 -0.18742
5.38 -0.180544
5.39 -0.17457
5.4 -0.169505
5.41 -0.165335
5.42 -0.162022
5.43 -0.159511
5.44 -0.157771
5.45 -0.156685
5.46 -0.156115
5.47 -0.155949
5.48 -0.156073
5.49 -0.156372
5.5 -0.156737
5.51 -0.157051
5.52 -0.157224
5.53 -0.157182
5.54 -0.156871
5.55 -0.156252
5.56 -0.155307
5.57 -0.154016
5.58 -0.152397
5.59 -0.150502
5.6 -0.148376
5.61 -0.146071
5.62 -0.143642
5.63 -0.141148
5.64 -0.138644
5.65 -0.136181
5.66 -0.13379
5.67 -0.131488
5.68 -0.129277
5.69 -0.127139
5.7 -0.125036
5.71 -0.122901
5.72 -0.120656
5.73 -0.118207
5.74 -0.115451
5.75 -0.112274
5.76 -0.10856
5.77 -0.104117
5.78 -0.0988725
5.79 -0.0927415
5.8 -0.0856413
5.81 -0.077509
5.82 -0.0683048
5.83 -0.0579799
5.84 -0.0465003
5.85 -0.0340087
5.86 -0.0205855
5.87 -0.00633852
5.88 0.0085997
5.89 0.0240748
5.9 0.0399301
5.91 0.0559365
5.92 0.0718906
5.93 0.0876003
5.94 0.102879
5.95 0.117553
5.96 0.131443
5.97 0.144335
5.98 0.156202
5.99 0.166973
6 0.176606
6.01 0.185094
6.02 0.192463
6.03 0.198693
6.04 0.203917
6.05 0.208295
6.06 0.211957
6.07 0.215048
6.08 0.21772
6.09 0.220124
6.1 0.222414
6.11 0.224748
6.12 0.227241
6.13 0.229987
6.14 0.233051
6.15 0.236472
6.16 0.240277
6.17 0.24443
6.18 0.248846
6.19 0.253435
6.2 0.258077
6.21 0.262636
6.22 0.266954
6.23 0.270799
6.24 0.274031
6.25 0.27648
6.26 0.277985
6.27 0.2784
6.28 0.277598
6.29 0.275402
6.3 0.271713
6.31 0.266581
6.32 0.26
6.33 0.251998
6.34 0.242633
6.35 0.231995
6.36 0.22009
6.37 0.207181
6.38 0.193443
6.39 0.179044
6.4 0.164163
6.41 0.148976
6.42 0.133658
6.43 0.118392
6.44 0.103328
6.45 0.0885901
6.46 0.0742766
6.47 0.0604626
6.48 0.0471967
6.49 0.0345551
6.5 0.0224886
6.51 0.0109517
6.52 -0.00010865
6.53 -0.0107621
6.54 -0.0210911
6.55 -0.0311829
6.56 -0.0411377
6.57 -0.0510676
6.58 -0.0610596
6.59 -0.0711908
6.6 -0.0815242
6.61 -0.0921065
6.62 -0.102989
6.63 -0.114164
6.64 -0.125603
6.65 -0.137267
6.66 -0.149098
6.67 -0.161021
6.68 -0.172943
6.69 -0.184741
6.7 -0.196303
6.71 -0.207515
6.72 -0.218258
6.73 -0.228419
6.74 -0.237891
6.75 -0.24651
6.76 -0.2542
6.77 -0.260928
6.78 -0.266636
6.79 -0.271283
6.8 -0.274843
6.81 -0.277294
6.82 -0.278527
6.83 -0.278675
6.84 -0.277762
6.85 -0.275815
6.86 -0.272864
6.87 -0.268944
6.88 -0.264027
6.89 -0.258152
6.9 -0.25139
6.91 -0.243756
6.92 -0.235256
6.93 -0.22589
6.94 -0.215647
6.95 -0.20441
6.96 -0.192255
6.97 -0.179158
6.98 -0.165094
6.99 -0.150038
7 -0.133969
7.01 -0.11682
7.02 -0.0985653
7.03 -0.0792811
7.04 -0.0589854
7.05 -0.03771
7.06 -0.0155013
7.07 0.00757945
7.08 0.0315295
7.09 0.0561759
7.1 0.0814022
7.11 0.107092
7.12 0.133121
7.13 0.159357
7.14 0.185663
7.15 0.211881
7.16 0.237875
7.17 0.263513
7.18 0.288675
7.19 0.313247
7.2 0.337125
7.21 0.360137
7.22 0.382249
7.23 0.403415
7.24 0.423583
7.25 0.442711
7.26 0.460764
7.27 0.477688
7.28 0.493393
7.29 0.507965
7.3 0.521391
7.31 0.533658
7.32 0.544752
7.33 0.554655
7.34 0.563242
7.35 0.570535
7.36 0.576538
7.37 0.581208
7.38 0.584496
7.39 0.586346
7.4 0.586673
7.41 0.585281
7.42 0.582262
7.43 0.577561
7.44 0.571127
7.45 0.562921
7.46 0.552912
7.47 0.540957
7.48 0.5271
7.49 0.511448
7.5 0.494043
7.51 0.474944
7.52 0.454234
7.53 0.432005
7.54 0.408248
7.55 0.383273
7.56 0.35724
7.57 0.330322
7.58 0.302704
7.59 0.274579
7.6 0.24614
7.61 0.217618
7.62 0.18923
7.63 0.161169
7.64 0.133621
7.65 0.10676
7.66 0.080748
7.67 0.0558581
7.68 0.0321223
7.69 0.00964121
7.7 -0.0114987
7.71 -0.0312305
7.72 -0.0495071
7.73 -0.0662288
7.74 -0.0813548
7.75 -0.0949997
7.76 -0.10719
7.77 -0.117966
7.78 -0.12738
7.79 -0.135492
7.8 -0.142254
7.81 -0.147855
7.82 -0.152392
7.83 -0.155945
7.84 -0.158595
7.85 -0.160418
7.86 -0.161464
7.87 -0.161784
7.88 -0.1615
7.89 -0.160671
7.9 -0.159349
7.91 -0.157578
7.92 -0.155398
7.93 -0.152811
7.94 -0.149871
7.95 -0.146609
7.96 -0.143041
7.97 -0.139181
7.98 -0.135039
7.99 -0.130618
8 -0.125909
8.01 -0.120945
8.02 -0.115735
8.03 -0.110291
8.04 -0.104628
8.05 -0.0987614
8.06 -0.0927023
8.07 -0.0864877
8.08 -0.0801562
8.09 -0.0737445
8.1 -0.0672938
8.11 -0.0608497
8.12 -0.054463
8.13 -0.0482029
8.14 -0.0421178
8.15 -0.0362639
8.16 -0.0306971
8.17 -0.025472
8.18 -0.02064
8.19 -0.0162813
8.2 -0.0124343
8.21 -0.00910953
8.22 -0.00633055
8.23 -0.00411147
8.24 -0.00245583
8.25 -0.00135782
8.26 -0.000853802
8.27 -0.000846972
8.28 -0.00129233
8.29 -0.00213453
8.3 -0.00330891
8.31 -0.00474294
8.32 -0.00636311
8.33 -0.00807355
8.34 -0.00977891
8.35 -0.0113951
8.36 -0.0128414
8.37 -0.0140431
8.38 -0.0149339
8.39 -0.0154128
8.4 -0.0154723
8.41 -0.0150903
8.42 -0.0142579
8.43 -0.0129826
8.44 -0.0112888
8.45 -0.00920344
8.46 -0.00678574
8.47 -0.00413784
8.48 -0.0013477
8.49 0.00148662
8.5 0.00425962
8.51 0.00686125
8.52 0.00914123
8.53 0.011001
8.54 0.0123435
8.55 0.0130753
8.56 0.013115
8.57 0.0123954
8.58 0.010837
8.59 0.00836452
8.6 0.00503797
8.61 0.000869164
8.62 -0.00411072
8.63 -0.00985217
8.64 -0.0162888
8.65 -0.0233844
8.66 -0.0309968
8.67 -0.0390031
8.68 -0.0472929
8.69 -0.0557543
8.7 -0.0642768
8.71 -0.0727512
8.72 -0.0810586
8.73 -0.0891217
8.74 -0.0968713
8.75 -0.104254
8.76 -0.111233
8.77 -0.117789
8.78 -0.12389
8.79 -0.12957
8.8 -0.134881
8.81 -0.139871
8.82 -0.144599
8.83 -0.149129
8.84 -0.153534
8.85 -0.157888
8.86 -0.162275
8.87 -0.166759
8.88 -0.171395
8.89 -0.176228
8.9 -0.18129
8.91 -0.186615
8.92 -0.192198
8.93 -0.198008
8.94 -0.204011
8.95 -0.210159
8.96 -0.216389
8.97 -0.222629
8.98 -0.22878
8.99 -0.234755
9 -0.240466
9.01 -0.245825
9.02 -0.25075
9.03 -0.255165
9.04 -0.258974
9.05 -0.262111
9.06 -0.264582
9.07 -0.266368
9.08 -0.267469
9.09 -0.267902
9.1 -0.267698
9.11 -0.266849
9.12 -0.265478
9.13 -0.263667
9.14 -0.261496
9.15 -0.25905
9.16 -0.256419
9.17 -0.253687
9.18 -0.250948
9.19 -0.248281
9.2 -0.24575
9.21 -0.243407
9.22 -0.241289
9.23 -0.239421
9.24 -0.237839
9.25 -0.236514
9.26 -0.235421
9.27 -0.234527
9.28 -0.233788
9.29 -0.233153
9.3 -0.232566
9.31 -0.231958
9.32 -0.231267
9.33 -0.230435
9.34 -0.229412
9.35 -0.228154
9.36 -0.226623
9.37 -0.22477
9.38 -0.222595
9.39 -0.220108
9.4 -0.217319
9.41 -0.21425
9.42 -0.210929
9.43 -0.20739
9.44 -0.203667
9.45 -0.199826
9.46 -0.195911
9.47 -0.191965
9.48 -0.188025
9.49 -0.184122
9.5 -0.180283
9.51 -0.176518
9.52 -0.172822
9.53 -0.169178
9.54 -0.165559
9.55 -0.161927
9.56 -0.15823
9.57 -0.154388
9.58 -0.15034
9.59 -0.146012
9.6 -0.141326
9.61 -0.136206
9.62 -0.130576
9.63 -0.124325
9.64 -0.117386
9.65 -0.10974
9.66 -0.101346
9.67 -0.0921769
9.68 -0.082217
9.69 -0.0714658
9.7 -0.0598494
9.71 -0.0474874
9.72 -0.0344226
9.73 -0.0207075
9.74 -0.00640309
9.75 0.00842217
9.76 0.0237137
9.77 0.0393885
9.78 0.0553406
9.79 0.0714944
9.8 0.0877773
9.81 0.104122
9.82 0.120465
9.83 0.136742
9.84 0.152905
9.85 0.168917
9.86 0.184744
9.87 0.200362
9.88 0.215747
9.89 0.230873
9.9 0.245714
9.91 0.260275
9.92 0.274542
9.93 0.288498
9.94 0.302126
9.95 0.315401
9.96 0.328256
9.97 0.340681
9.98 0.352646
9.99 0.364105
10 0.375012
10.01 0.385317
10.02 0.394946
10.03 0.403801
10.04 0.411892
10.05 0.419175
10.06 0.425611
10.07 0.431173
10.08 0.435839
10.09 0.439526
10.1 0.442283
10.11 0.444161
10.12 0.445191
10.13 0.445419
10.14 0.444901
10.15 0.443696
10.16 0.441845
10.17 0.4395
10.18 0.436755
10.19 0.433705
10.2 0.430448
10.21 0.427078
10.22 0.42369
10.23 0.420378
10.24 0.417214
10.25 0.41426
10.26 0.411563
10.27 0.409158
10.28 0.407067
10.29 0.405327
10.3 0.403892
10.31 0.402735
10.32 0.401819
10.33 0.401095
10.34 0.400505
10.35 0.399984
10.36 0.39945
10.37 0.398825
10.38 0.398036
10.39 0.39701
10.4 0.395678
10.41 0.393976
10.42 0.391791
10.43 0.389116
10.44 0.385911
10.45 0.382144
10.46 0.377791
10.47 0.372835
10.48 0.367237
10.49 0.360983
10.5 0.354119
10.51 0.346654
10.52 0.338599
10.53 0.329968
10.54 0.320775
10.55 0.310982
10.56 0.300651
10.57 0.289803
10.58 0.278451
10.59 0.266603
10.6 0.254269
10.61 0.24144
10.62 0.228104
10.63 0.214308
10.64 0.200062
10.65 0.185378
10.66 0.170273
10.67 0.154765
10.68 0.138848
10.69 0.12258
10.7 0.106007
10.71 0.0891717
10.72 0.0721208
10.73 0.0549067
10.74 0.0375844
10.75 0.0202187
10.76 0.00288014
10.77 -0.0143692
10.78 -0.0314683
10.79 -0.0483585
10.8 -0.0649855
10.81 -0.0812719
10.82 -0.0971843
10.83 -0.112703
10.84 -0.127804
10.85 -0.142474
10.86 -0.156709
10.87 -0.170509
10.88 -0.183856
10.89 -0.196818
10.9 -0.209429
10.91 -0.221727
10.92 -0.233755
10.93 -0.245558
10.94 -0.257173
10.95 -0.268654
10.96 -0.28005
10.97 -0.291395
10.98 -0.302718
10.99 -0.314037
11 -0.325363
11.01 -0.336693
11.02 -0.348013
11.03 -0.359297
11.04 -0.370509
11.05 -0.381602
11.06 -0.39252
11.07 -0.403183
11.08 -0.413509
11.09 -0.423436
11.1 -0.432887
11.11 -0.441785
11.12 -0.450054
11.13 -0.45762
11.14 -0.464324
11.15 -0.470181
11.16 -0.475147
11.17 -0.479182
11.18 -0.482254
11.19 -0.484347
11.2 -0.485405
11.21 -0.485411
11.22 -0.484449
11.23 -0.482545
11.24 -0.479733
11.25 -0.476053
11.26 -0.471551
11.27 -0.466206
11.28 -0.460141
11.29 -0.453423
11.3 -0.446105
11.31 -0.43824
11.32 -0.429874
11.33 -0.421038
11.34 -0.411755
11.35 -0.402094
11.36 -0.392081
11.37 -0.381734
11.38 -0.371069
11.39 -0.360093
11.4 -0.348784
11.41 -0.337159
11.42 -0.325223
11.43 -0.31297
11.44 -0.300394
11.45 -0.28749
11.46 -0.274244
11.47 -0.260634
11.48 -0.246692
11.49 -0.232426
11.5 -0.217849
11.51 -0.202981
11.52 -0.187844
11.53 -0.172456
11.54 -0.156869
11.55 -0.141137
11.56 -0.12531
11.57 -0.109445
11.58 -0.0936011
11.59 -0.077844
11.6 -0.062262
11.61 -0.0469131
11.62 -0.0318651
11.63 -0.0171853
11.64 -0.00293882
11.65 0.0108124
11.66 0.0239704
11.67 0.0364841
11.68 0.0483373
11.69 0.0594922
11.7 0.069919
11.71 0.0795958
11.72 0.0885076
11.73 0.0965638
11.74 0.103859
11.75 0.110408
11.76 0.116234
11.77 0.121369
11.78 0.125849
11.79 0.129688
11.8 0.13294
11.81 0.135695
11.82 0.138009
11.83 0.13994
11.84 0.141546
11.85 0.142882
11.86 0.143982
11.87 0.14492
11.88 0.145741
11.89 0.146478
11.9 0.147159
11.91 0.147801
11.92 0.148414
11.93 0.148993
11.94 0.149528
11.95 0.149998
11.96 0.150369
11.97 0.150602
11.98 0.150649
11.99 0.150425
12 0.149879
12.01 0.148951
12.02 0.147572
12.03 0.145672
12.04 0.143183
12.05 0.140013
12.06 0.136056
12.07 0.131312
12.08 0.125733
12.09 0.119278
12.1 0.111917
12.11 0.103631
12.12 0.0943292
12.13 0.0840677
12.14 0.0728924
12.15 0.0608318
12.16 0.047925
12.17 0.034222
