# xPDFsuite Configuration #
[PDF]
wavelength = 0.1
dataformat = QA
inputfile = BiMsol6_insitu_700 C-00531.xy
backgroundfile = Quartz2mm-dist500-00000.xy
mode = xray
bgscale = 0.0042
composition = Bi2Fe4O9
outputtype = gr
qmaxinst = 24.998449118
qmin = 0.1
qmax = 21.4986662415
rmax = 80.0
rmin = 0.0
rstep = 0.01
rpoly = 0.9

[Misc]
inputdir = C:/Data/Seafile/CPH/Beamtime/Desy Oct 20/In situ data/Processed/BiMsol6/PDF
savedir = C:/Data/Seafile/CPH/Beamtime/Desy Oct 20/In situ data/PDF/BiMsol6
backgroundfilefull = C:/Data/Seafile/CPH/Beamtime/Desy Oct 20/In situ data/Processed/Standard_Empty_Cap/Quartz2mm-dist500-00000.xy

#### start data
#S 1
#L r($\AA$)  G($\AA^{-2}$)
0 0
0.01 0.00563633
0.02 0.0109461
0.03 0.0156501
0.04 0.0194982
0.05 0.0222811
0.06 0.0238401
0.07 0.0240028
0.08 0.0227218
0.09 0.02013
0.1 0.0163379
0.11 0.011515
0.12 0.00588193
0.13 -0.000299319
0.14 -0.00673154
0.15 -0.0130506
0.16 -0.0189486
0.17 -0.0241376
0.18 -0.028362
0.19 -0.0314106
0.2 -0.0330681
0.21 -0.0331935
0.22 -0.0318882
0.23 -0.0292253
0.24 -0.0253492
0.25 -0.020471
0.26 -0.0148607
0.27 -0.00883028
0.28 -0.00280616
0.29 0.00283186
0.3 0.00771621
0.31 0.0115009
0.32 0.0138789
0.33 0.0145412
0.34 0.0131906
0.35 0.00989963
0.36 0.0046877
0.37 -0.00232748
0.38 -0.0109294
0.39 -0.0208059
0.4 -0.0315889
0.41 -0.0426846
0.42 -0.0535135
0.43 -0.063486
0.44 -0.0719962
0.45 -0.0784448
0.46 -0.0821992
0.47 -0.0824422
0.48 -0.0790252
0.49 -0.0716356
0.5 -0.0600794
0.51 -0.0442941
0.52 -0.0243579
0.53 -0.000235991
0.54 0.0275178
0.55 0.0581888
0.56 0.091112
0.57 0.125516
0.58 0.160545
0.59 0.195269
0.6 0.228494
0.61 0.259319
0.62 0.286823
0.63 0.31015
0.64 0.32853
0.65 0.34131
0.66 0.347573
0.67 0.346963
0.68 0.339678
0.69 0.325746
0.7 0.305372
0.71 0.278933
0.72 0.246967
0.73 0.209694
0.74 0.168564
0.75 0.124522
0.76 0.0785642
0.77 0.0317243
0.78 -0.01496
0.79 -0.060366
0.8 -0.10337
0.81 -0.143215
0.82 -0.179167
0.83 -0.210627
0.84 -0.237141
0.85 -0.258414
0.86 -0.273758
0.87 -0.283717
0.88 -0.288587
0.89 -0.288731
0.9 -0.284636
0.91 -0.27689
0.92 -0.266078
0.93 -0.252947
0.94 -0.238479
0.95 -0.223428
0.96 -0.20852
0.97 -0.194429
0.98 -0.181757
0.99 -0.171235
1 -0.16317
1.01 -0.15778
1.02 -0.155213
1.03 -0.155505
1.04 -0.158576
1.05 -0.164314
1.06 -0.17254
1.07 -0.182667
1.08 -0.194277
1.09 -0.206923
1.1 -0.220141
1.11 -0.233472
1.12 -0.246419
1.13 -0.258555
1.14 -0.269565
1.15 -0.279183
1.16 -0.287221
1.17 -0.293562
1.18 -0.298141
1.19 -0.300866
1.2 -0.302035
1.21 -0.301826
1.22 -0.300461
1.23 -0.298198
1.24 -0.295312
1.25 -0.292078
1.26 -0.28881
1.27 -0.285765
1.28 -0.283147
1.29 -0.281117
1.3 -0.279787
1.31 -0.279215
1.32 -0.279476
1.33 -0.280416
1.34 -0.281921
1.35 -0.283834
1.36 -0.285968
1.37 -0.288113
1.38 -0.290026
1.39 -0.291458
1.4 -0.292226
1.41 -0.292163
1.42 -0.291137
1.43 -0.289061
1.44 -0.285899
1.45 -0.281556
1.46 -0.276238
1.47 -0.270086
1.48 -0.263287
1.49 -0.256062
1.5 -0.248668
1.51 -0.241395
1.52 -0.234574
1.53 -0.228469
1.54 -0.223331
1.55 -0.219379
1.56 -0.216792
1.57 -0.215693
1.58 -0.216307
1.59 -0.218495
1.6 -0.222149
1.61 -0.227127
1.62 -0.233223
1.63 -0.24018
1.64 -0.247701
1.65 -0.255408
1.66 -0.262895
1.67 -0.269793
1.68 -0.275743
1.69 -0.280405
1.7 -0.283477
1.71 -0.284516
1.72 -0.283425
1.73 -0.280139
1.74 -0.274612
1.75 -0.266871
1.76 -0.257016
1.77 -0.245171
1.78 -0.231495
1.79 -0.216461
1.8 -0.20041
1.81 -0.18371
1.82 -0.166744
1.83 -0.149898
1.84 -0.133608
1.85 -0.118242
1.86 -0.104072
1.87 -0.0913398
1.88 -0.0802292
1.89 -0.0708575
1.9 -0.0633005
1.91 -0.0576833
1.92 -0.0537198
1.93 -0.0512483
1.94 -0.0500567
1.95 -0.0498916
1.96 -0.0504704
1.97 -0.0515021
1.98 -0.0526326
1.99 -0.0535546
2 -0.0540067
2.01 -0.0537654
2.02 -0.052655
2.03 -0.0505515
2.04 -0.0472816
2.05 -0.0429842
2.06 -0.0377483
2.07 -0.0317246
2.08 -0.0251206
2.09 -0.0181927
2.1 -0.0112544
2.11 -0.00468433
2.12 0.00117738
2.13 0.00599075
2.14 0.00943064
2.15 0.0111994
2.16 0.0110386
2.17 0.008489
2.18 0.00361664
2.19 -0.00362786
2.2 -0.0132401
2.21 -0.025145
2.22 -0.039198
2.23 -0.0552652
2.24 -0.0730748
2.25 -0.0921608
2.26 -0.112157
2.27 -0.132674
2.28 -0.153308
2.29 -0.173661
2.3 -0.193244
2.31 -0.211718
2.32 -0.228788
2.33 -0.244194
2.34 -0.257737
2.35 -0.269277
2.36 -0.27867
2.37 -0.285816
2.38 -0.290961
2.39 -0.294239
2.4 -0.295836
2.41 -0.295979
2.42 -0.294934
2.43 -0.292935
2.44 -0.290374
2.45 -0.287577
2.46 -0.284834
2.47 -0.282412
2.48 -0.280548
2.49 -0.279462
2.5 -0.279389
2.51 -0.28035
2.52 -0.282391
2.53 -0.285509
2.54 -0.289656
2.55 -0.29474
2.56 -0.300685
2.57 -0.307276
2.58 -0.314298
2.59 -0.321553
2.6 -0.328841
2.61 -0.335966
2.62 -0.342736
2.63 -0.348919
2.64 -0.354421
2.65 -0.359136
2.66 -0.36299
2.67 -0.365944
2.68 -0.367987
2.69 -0.36909
2.7 -0.369327
2.71 -0.368823
2.72 -0.367679
2.73 -0.366005
2.74 -0.363918
2.75 -0.361538
2.76 -0.358968
2.77 -0.356343
2.78 -0.353746
2.79 -0.351246
2.8 -0.348891
2.81 -0.346707
2.82 -0.344708
2.83 -0.342875
2.84 -0.341162
2.85 -0.339516
2.86 -0.337876
2.87 -0.336175
2.88 -0.334343
2.89 -0.332283
2.9 -0.329949
2.91 -0.327291
2.92 -0.324272
2.93 -0.320869
2.94 -0.317074
2.95 -0.312877
2.96 -0.308291
2.97 -0.303379
2.98 -0.298182
2.99 -0.292746
3 -0.287117
3.01 -0.281336
3.02 -0.275427
3.03 -0.269416
3.04 -0.263305
3.05 -0.257071
3.06 -0.250669
3.07 -0.244029
3.08 -0.237047
3.09 -0.229565
3.1 -0.221474
3.11 -0.21262
3.12 -0.202839
3.13 -0.191961
3.14 -0.179817
3.15 -0.166113
3.16 -0.150762
3.17 -0.133691
3.18 -0.114812
3.19 -0.0940661
3.2 -0.0714371
3.21 -0.0469112
3.22 -0.0204358
3.23 0.00768576
3.24 0.0372848
3.25 0.0681516
3.26 0.100039
3.27 0.132667
3.28 0.165736
3.29 0.19886
3.3 0.231682
3.31 0.263861
3.32 0.295063
3.33 0.324966
3.34 0.353253
3.35 0.379442
3.36 0.403485
3.37 0.425195
3.38 0.444429
3.39 0.461089
3.4 0.47512
3.41 0.486349
3.42 0.494842
3.43 0.500822
3.44 0.504403
3.45 0.505726
3.46 0.504952
3.47 0.50226
3.48 0.497658
3.49 0.491554
3.5 0.484137
3.51 0.475586
3.52 0.466067
3.53 0.455733
3.54 0.444688
3.55 0.433054
3.56 0.420968
3.57 0.408502
3.58 0.395717
3.59 0.382659
3.6 0.369364
3.61 0.355843
3.62 0.342145
3.63 0.328303
3.64 0.314351
3.65 0.30033
3.66 0.286295
3.67 0.272314
3.68 0.258484
3.69 0.244895
3.7 0.231653
3.71 0.218877
3.72 0.206693
3.73 0.195232
3.74 0.184723
3.75 0.175254
3.76 0.16693
3.77 0.15987
3.78 0.154176
3.79 0.149939
3.8 0.147275
3.81 0.146327
3.82 0.146984
3.83 0.149243
3.84 0.153082
3.85 0.158456
3.86 0.165301
3.87 0.173641
3.88 0.183299
3.89 0.194116
3.9 0.205974
3.91 0.218748
3.92 0.232315
3.93 0.246561
3.94 0.261396
3.95 0.276646
3.96 0.292207
3.97 0.307985
3.98 0.323894
3.99 0.339856
4 0.355797
4.01 0.371645
4.02 0.387346
4.03 0.402844
4.04 0.418084
4.05 0.43301
4.06 0.447558
4.07 0.46161
4.08 0.475135
4.09 0.488052
4.1 0.500274
4.11 0.511704
4.12 0.522244
4.13 0.531721
4.14 0.540015
4.15 0.547077
4.16 0.552806
4.17 0.557104
4.18 0.559887
4.19 0.561079
4.2 0.560431
4.21 0.55808
4.22 0.554016
4.23 0.548241
4.24 0.540776
4.25 0.531666
4.26 0.520898
4.27 0.508537
4.28 0.494787
4.29 0.479757
4.3 0.463564
4.31 0.446327
4.32 0.42817
4.33 0.409142
4.34 0.389435
4.35 0.369163
4.36 0.348414
4.37 0.327263
4.38 0.305771
4.39 0.28397
4.4 0.261883
4.41 0.239544
4.42 0.216955
4.43 0.194107
4.44 0.170988
4.45 0.147582
4.46 0.123847
4.47 0.0997927
4.48 0.0754302
4.49 0.0507735
4.5 0.0258521
4.51 0.000711695
4.52 -0.0245856
4.53 -0.0499491
4.54 -0.0752614
4.55 -0.100402
4.56 -0.125238
4.57 -0.149625
4.58 -0.173413
4.59 -0.196375
4.6 -0.218373
4.61 -0.239296
4.62 -0.259014
4.63 -0.277416
4.64 -0.29441
4.65 -0.309907
4.66 -0.323734
4.67 -0.33604
4.68 -0.34685
4.69 -0.356218
4.7 -0.364226
4.71 -0.370979
4.72 -0.376539
4.73 -0.381095
4.74 -0.384861
4.75 -0.388003
4.76 -0.390688
4.77 -0.393078
4.78 -0.395325
4.79 -0.39758
4.8 -0.399969
4.81 -0.402583
4.82 -0.405487
4.83 -0.408719
4.84 -0.412291
4.85 -0.416204
4.86 -0.420409
4.87 -0.424821
4.88 -0.429353
4.89 -0.433908
4.9 -0.438378
4.91 -0.442649
4.92 -0.446565
4.93 -0.450041
4.94 -0.452987
4.95 -0.455321
4.96 -0.456981
4.97 -0.457924
4.98 -0.458093
4.99 -0.457472
5 -0.456136
5.01 -0.454129
5.02 -0.451508
5.03 -0.448344
5.04 -0.444717
5.05 -0.440683
5.06 -0.436366
5.07 -0.431852
5.08 -0.427214
5.09 -0.422509
5.1 -0.417782
5.11 -0.413059
5.12 -0.408346
5.13 -0.403627
5.14 -0.398865
5.15 -0.394009
5.16 -0.388993
5.17 -0.383738
5.18 -0.378123
5.19 -0.372068
5.2 -0.365497
5.21 -0.358331
5.22 -0.350503
5.23 -0.341962
5.24 -0.332657
5.25 -0.32253
5.26 -0.311671
5.27 -0.300127
5.28 -0.287969
5.29 -0.275295
5.3 -0.262222
5.31 -0.248878
5.32 -0.23545
5.33 -0.22211
5.34 -0.209028
5.35 -0.196372
5.36 -0.184303
5.37 -0.172981
5.38 -0.162631
5.39 -0.15328
5.4 -0.145006
5.41 -0.13786
5.42 -0.131865
5.43 -0.127013
5.44 -0.123334
5.45 -0.120732
5.46 -0.119055
5.47 -0.118185
5.48 -0.117988
5.49 -0.11832
5.5 -0.119029
5.51 -0.119971
5.52 -0.120961
5.53 -0.121863
5.54 -0.122556
5.55 -0.122939
5.56 -0.12293
5.57 -0.122443
5.58 -0.121439
5.59 -0.119942
5.6 -0.117967
5.61 -0.11555
5.62 -0.112745
5.63 -0.109616
5.64 -0.106217
5.65 -0.102658
5.66 -0.0990167
5.67 -0.0953615
5.68 -0.0917505
5.69 -0.0882277
5.7 -0.0848258
5.71 -0.0815549
5.72 -0.0783891
5.73 -0.0752911
5.74 -0.0722049
5.75 -0.0690578
5.76 -0.0657631
5.77 -0.06219
5.78 -0.0582421
5.79 -0.0538207
5.8 -0.0488265
5.81 -0.0431698
5.82 -0.0367749
5.83 -0.0295568
5.84 -0.0214353
5.85 -0.0124736
5.86 -0.00269329
5.87 0.00785713
5.88 0.019103
5.89 0.0309451
5.9 0.0432906
5.91 0.0559535
5.92 0.0687627
5.93 0.0815538
5.94 0.0941602
5.95 0.106419
5.96 0.11816
5.97 0.129183
5.98 0.139421
5.99 0.148786
6 0.157214
6.01 0.164673
6.02 0.171159
6.03 0.176633
6.04 0.181197
6.05 0.18498
6.06 0.188093
6.07 0.190666
6.08 0.192842
6.09 0.194765
6.1 0.196593
6.11 0.19849
6.12 0.20058
6.13 0.202971
6.14 0.205747
6.15 0.208965
6.16 0.212681
6.17 0.216878
6.18 0.221484
6.19 0.22642
6.2 0.23158
6.21 0.236829
6.22 0.242014
6.23 0.246913
6.24 0.251353
6.25 0.255149
6.26 0.258116
6.27 0.260082
6.28 0.26089
6.29 0.26033
6.3 0.258267
6.31 0.254714
6.32 0.249637
6.33 0.243036
6.34 0.234946
6.35 0.225436
6.36 0.214483
6.37 0.202362
6.38 0.189249
6.39 0.175324
6.4 0.16078
6.41 0.145817
6.42 0.130633
6.43 0.115449
6.44 0.100456
6.45 0.0858156
6.46 0.0716641
6.47 0.0581133
6.48 0.0452462
6.49 0.0331874
6.5 0.0219033
6.51 0.0113621
6.52 0.0015216
6.53 -0.0076847
6.54 -0.0163437
6.55 -0.0245485
6.56 -0.0324115
6.57 -0.0400903
6.58 -0.0477049
6.59 -0.0553696
6.6 -0.063188
6.61 -0.071249
6.62 -0.0796534
6.63 -0.0884369
6.64 -0.0976076
6.65 -0.10716
6.66 -0.117065
6.67 -0.127268
6.68 -0.137696
6.69 -0.148252
6.7 -0.1588
6.71 -0.169215
6.72 -0.179363
6.73 -0.18911
6.74 -0.19832
6.75 -0.206805
6.76 -0.214449
6.77 -0.221177
6.78 -0.226899
6.79 -0.231543
6.8 -0.235056
6.81 -0.237391
6.82 -0.238416
6.83 -0.238264
6.84 -0.236958
6.85 -0.234533
6.86 -0.231036
6.87 -0.226524
6.88 -0.221003
6.89 -0.214551
6.9 -0.207283
6.91 -0.199257
6.92 -0.190525
6.93 -0.181132
6.94 -0.171111
6.95 -0.160421
6.96 -0.149141
6.97 -0.137274
6.98 -0.124812
6.99 -0.11174
7 -0.0980361
7.01 -0.0836406
7.02 -0.0685115
7.03 -0.0526681
7.04 -0.0360895
7.05 -0.0187615
7.06 -0.000678206
7.07 0.0181556
7.08 0.0377962
7.09 0.0581423
7.1 0.0791368
7.11 0.100718
7.12 0.122813
7.13 0.145333
7.14 0.168188
7.15 0.191263
7.16 0.214413
7.17 0.237515
7.18 0.260443
7.19 0.283069
7.2 0.305266
7.21 0.326848
7.22 0.347722
7.23 0.367792
7.24 0.386958
7.25 0.405129
7.26 0.422222
7.27 0.438135
7.28 0.452724
7.29 0.466047
7.3 0.478064
7.31 0.488745
7.32 0.498068
7.33 0.506016
7.34 0.512464
7.35 0.517467
7.36 0.521073
7.37 0.523279
7.38 0.524086
7.39 0.523493
7.4 0.521478
7.41 0.517926
7.42 0.512979
7.43 0.506641
7.44 0.498914
7.45 0.489808
7.46 0.47933
7.47 0.467404
7.48 0.454082
7.49 0.439455
7.5 0.42356
7.51 0.406438
7.52 0.388142
7.53 0.368726
7.54 0.348161
7.55 0.326653
7.56 0.304296
7.57 0.281191
7.58 0.257451
7.59 0.233193
7.6 0.208531
7.61 0.183617
7.62 0.158612
7.63 0.133655
7.64 0.108889
7.65 0.0844553
7.66 0.0604929
7.67 0.0372204
7.68 0.0147152
7.69 -0.0069044
7.7 -0.0275253
7.71 -0.0470444
7.72 -0.06537
7.73 -0.0823582
7.74 -0.097906
7.75 -0.112054
7.76 -0.124768
7.77 -0.136029
7.78 -0.145833
7.79 -0.154189
7.8 -0.160985
7.81 -0.166384
7.82 -0.170466
7.83 -0.173298
7.84 -0.174957
7.85 -0.175529
7.86 -0.175076
7.87 -0.173673
7.88 -0.171504
7.89 -0.168674
7.9 -0.165288
7.91 -0.161452
7.92 -0.157264
7.93 -0.152802
7.94 -0.148178
7.95 -0.143474
7.96 -0.138755
7.97 -0.134075
7.98 -0.129477
7.99 -0.124995
8 -0.120659
8.01 -0.116463
8.02 -0.112404
8.03 -0.108468
8.04 -0.104636
8.05 -0.10088
8.06 -0.097173
8.07 -0.0934751
8.08 -0.0897529
8.09 -0.0859767
8.1 -0.0821207
8.11 -0.0781646
8.12 -0.0740935
8.13 -0.0698923
8.14 -0.0655788
8.15 -0.0611684
8.16 -0.0566855
8.17 -0.0521631
8.18 -0.0476418
8.19 -0.0431756
8.2 -0.0388237
8.21 -0.034639
8.22 -0.0306771
8.23 -0.0269924
8.24 -0.0236351
8.25 -0.0206507
8.26 -0.0181236
8.27 -0.0160342
8.28 -0.0143945
8.29 -0.013204
8.3 -0.0124493
8.31 -0.0121041
8.32 -0.0121474
8.33 -0.0125205
8.34 -0.0131379
8.35 -0.0139286
8.36 -0.014816
8.37 -0.0157205
8.38 -0.0165623
8.39 -0.0172407
8.4 -0.0176925
8.41 -0.0178579
8.42 -0.0176874
8.43 -0.0171447
8.44 -0.0162086
8.45 -0.0148567
8.46 -0.0130949
8.47 -0.0109853
8.48 -0.00857718
8.49 -0.00593473
8.5 -0.00313495
8.51 -0.000265411
8.52 0.0025659
8.53 0.00524922
8.54 0.00768381
8.55 0.00977116
8.56 0.0114189
8.57 0.012544
8.58 0.013053
8.59 0.0128526
8.6 0.011958
8.61 0.0103526
8.62 0.00803846
8.63 0.00503641
8.64 0.0013852
8.65 -0.00290531
8.66 -0.00772012
8.67 -0.0129568
8.68 -0.0185224
8.69 -0.0243187
8.7 -0.0302464
8.71 -0.0362065
8.72 -0.0420923
8.73 -0.0478223
8.74 -0.0533292
8.75 -0.0585601
8.76 -0.0634791
8.77 -0.0680675
8.78 -0.072301
8.79 -0.0762138
8.8 -0.079858
8.81 -0.0832866
8.82 -0.0865649
8.83 -0.0897677
8.84 -0.092977
8.85 -0.0962952
8.86 -0.0998019
8.87 -0.103573
8.88 -0.107677
8.89 -0.112168
8.9 -0.117087
8.91 -0.122489
8.92 -0.128372
8.93 -0.134695
8.94 -0.141419
8.95 -0.148491
8.96 -0.155839
8.97 -0.163379
8.98 -0.171011
8.99 -0.17861
9 -0.186063
9.01 -0.193262
9.02 -0.200099
9.03 -0.206476
9.04 -0.21227
9.05 -0.217394
9.06 -0.22183
9.07 -0.225545
9.08 -0.228527
9.09 -0.230781
9.1 -0.232335
9.11 -0.233172
9.12 -0.233429
9.13 -0.233194
9.14 -0.232559
9.15 -0.231624
9.16 -0.230493
9.17 -0.229272
9.18 -0.228073
9.19 -0.226993
9.2 -0.226109
9.21 -0.225485
9.22 -0.22517
9.23 -0.225191
9.24 -0.225592
9.25 -0.226332
9.26 -0.227372
9.27 -0.228662
9.28 -0.230137
9.29 -0.23172
9.3 -0.233323
9.31 -0.234837
9.32 -0.236166
9.33 -0.237219
9.34 -0.237909
9.35 -0.23816
9.36 -0.237905
9.37 -0.237043
9.38 -0.235566
9.39 -0.233479
9.4 -0.230785
9.41 -0.227506
9.42 -0.22368
9.43 -0.219348
9.44 -0.214551
9.45 -0.20941
9.46 -0.204007
9.47 -0.198422
9.48 -0.192736
9.49 -0.187025
9.5 -0.181363
9.51 -0.175811
9.52 -0.170404
9.53 -0.165165
9.54 -0.160099
9.55 -0.155194
9.56 -0.15042
9.57 -0.14573
9.58 -0.141045
9.59 -0.136286
9.6 -0.131362
9.61 -0.126179
9.62 -0.120635
9.63 -0.114594
9.64 -0.107949
9.65 -0.100638
9.66 -0.0925805
9.67 -0.0837134
9.68 -0.0739865
9.69 -0.0633678
9.7 -0.0517393
9.71 -0.039214
9.72 -0.0258228
9.73 -0.0116134
9.74 0.00334985
9.75 0.0189876
9.76 0.0352324
9.77 0.0519722
9.78 0.0690593
9.79 0.0863795
9.8 0.103818
9.81 0.121264
9.82 0.138609
9.83 0.155723
9.84 0.172527
9.85 0.188946
9.86 0.204917
9.87 0.220387
9.88 0.235317
9.89 0.249655
9.9 0.263363
9.91 0.27648
9.92 0.289009
9.93 0.300958
9.94 0.312342
9.95 0.323175
9.96 0.333424
9.97 0.343142
9.98 0.35235
9.99 0.361055
10 0.369259
10.01 0.376957
10.02 0.384124
10.03 0.390711
10.04 0.396747
10.05 0.402207
10.06 0.40707
10.07 0.411311
10.08 0.41491
10.09 0.417792
10.1 0.419977
10.11 0.421481
10.12 0.422309
10.13 0.422474
10.14 0.421995
10.15 0.420896
10.16 0.419178
10.17 0.416953
10.18 0.414282
10.19 0.411231
10.2 0.407874
10.21 0.404285
10.22 0.400537
10.23 0.396721
10.24 0.392914
10.25 0.389184
10.26 0.385591
10.27 0.382186
10.28 0.379011
10.29 0.376125
10.3 0.373517
10.31 0.371187
10.32 0.369125
10.33 0.367308
10.34 0.365705
10.35 0.364277
10.36 0.362963
10.37 0.361693
10.38 0.360402
10.39 0.359021
10.4 0.357481
10.41 0.355713
10.42 0.353609
10.43 0.351134
10.44 0.348232
10.45 0.344853
10.46 0.340955
10.47 0.3365
10.48 0.331431
10.49 0.325715
10.5 0.319381
10.51 0.312422
10.52 0.304841
10.53 0.296644
10.54 0.287841
10.55 0.278388
10.56 0.268355
10.57 0.257768
10.58 0.246649
10.59 0.235017
10.6 0.222892
10.61 0.210278
10.62 0.197179
10.63 0.183653
10.64 0.16972
10.65 0.155403
10.66 0.140723
10.67 0.125706
10.68 0.110353
10.69 0.0947174
10.7 0.0788397
10.71 0.0627563
10.72 0.0465064
10.73 0.0301324
10.74 0.0136784
10.75 -0.00280381
10.76 -0.0192588
10.77 -0.0356368
10.78 -0.0518887
10.79 -0.0679667
10.8 -0.0838256
10.81 -0.0993996
10.82 -0.114659
10.83 -0.129584
10.84 -0.144151
10.85 -0.158344
10.86 -0.172155
10.87 -0.185577
10.88 -0.198587
10.89 -0.21124
10.9 -0.223559
10.91 -0.235571
10.92 -0.247309
10.93 -0.258809
10.94 -0.270097
10.95 -0.281219
10.96 -0.29222
10.97 -0.30313
10.98 -0.313977
10.99 -0.324778
11 -0.335547
11.01 -0.346282
11.02 -0.356978
11.03 -0.367617
11.04 -0.378169
11.05 -0.388596
11.06 -0.398852
11.07 -0.408863
11.08 -0.418558
11.09 -0.427881
11.1 -0.43676
11.11 -0.44512
11.12 -0.452888
11.13 -0.459993
11.14 -0.466277
11.15 -0.471749
11.16 -0.476361
11.17 -0.480068
11.18 -0.482834
11.19 -0.484634
11.2 -0.485409
11.21 -0.485131
11.22 -0.483881
11.23 -0.481678
11.24 -0.478553
11.25 -0.474541
11.26 -0.469688
11.27 -0.463969
11.28 -0.457509
11.29 -0.450378
11.3 -0.442632
11.31 -0.434325
11.32 -0.425509
11.33 -0.416219
11.34 -0.406484
11.35 -0.396375
11.36 -0.385923
11.37 -0.375151
11.38 -0.364074
11.39 -0.352702
11.4 -0.341015
11.41 -0.329027
11.42 -0.316741
11.43 -0.304149
11.44 -0.291242
11.45 -0.278009
11.46 -0.264435
11.47 -0.250491
11.48 -0.236207
11.49 -0.221588
11.5 -0.206645
11.51 -0.191394
11.52 -0.175862
11.53 -0.160065
11.54 -0.144057
11.55 -0.127897
11.56 -0.111641
11.57 -0.0953507
11.58 -0.0790909
11.59 -0.062934
11.6 -0.0469767
11.61 -0.0312805
11.62 -0.0159176
11.63 -0.00095803
11.64 0.0135316
11.65 0.02749
11.66 0.0408195
11.67 0.0534754
11.68 0.0654506
11.69 0.0767169
11.7 0.0872554
11.71 0.0970574
11.72 0.106122
11.73 0.11438
11.74 0.121937
11.75 0.128822
11.76 0.135074
11.77 0.140734
11.78 0.14585
11.79 0.150448
11.8 0.154587
11.81 0.15835
11.82 0.161789
11.83 0.164952
11.84 0.167884
11.85 0.170626
11.86 0.173196
11.87 0.175636
11.88 0.177965
11.89 0.180188
11.9 0.182304
11.91 0.184303
11.92 0.186157
11.93 0.18783
11.94 0.189294
11.95 0.190505
11.96 0.191415
11.97 0.191967
11.98 0.192107
11.99 0.191721
12 0.190781
12.01 0.189235
12.02 0.187027
12.03 0.184104
12.04 0.180417
12.05 0.175894
12.06 0.170452
12.07 0.164133
12.08 0.156917
12.09 0.148794
12.1 0.139762
12.11 0.12983
12.12 0.118938
12.13 0.107166
12.14 0.0945763
12.15 0.0812123
12.16 0.0671248
