# xPDFsuite Configuration #
[PDF]
wavelength = 0.1
dataformat = QA
inputfile = BiMsol6_insitu_700 C-00510.xy
backgroundfile = Quartz2mm-dist500-00000.xy
mode = xray
bgscale = 0.0042
composition = Bi2Fe4O9
outputtype = gr
qmaxinst = 24.998449118
qmin = 0.1
qmax = 21.4986662415
rmax = 80.0
rmin = 0.0
rstep = 0.01
rpoly = 0.9

[Misc]
inputdir = C:/Data/Seafile/CPH/Beamtime/Desy Oct 20/In situ data/Processed/BiMsol6/PDF
savedir = C:/Data/Seafile/CPH/Beamtime/Desy Oct 20/In situ data/PDF/BiMsol6
backgroundfilefull = C:/Data/Seafile/CPH/Beamtime/Desy Oct 20/In situ data/Processed/Standard_Empty_Cap/Quartz2mm-dist500-00000.xy

#### start data
#S 1
#L r($\AA$)  G($\AA^{-2}$)
0 0
0.01 0.00668951
0.02 0.0130024
0.03 0.0186164
0.04 0.0232422
0.05 0.0266367
0.06 0.0286146
0.07 0.028973
0.08 0.0276521
0.09 0.0248003
0.1 0.0205395
0.11 0.0150588
0.12 0.0086069
0.13 0.00148056
0.14 -0.00598728
0.15 -0.0133754
0.16 -0.0203285
0.17 -0.0265135
0.18 -0.0316311
0.19 -0.0354311
0.2 -0.0376561
0.21 -0.0381297
0.22 -0.0369516
0.23 -0.0341885
0.24 -0.0299885
0.25 -0.0245754
0.26 -0.0182411
0.27 -0.0113164
0.28 -0.00428144
0.29 0.0024366
0.3 0.00842324
0.31 0.0132842
0.32 0.0166647
0.33 0.0182058
0.34 0.0175565
0.35 0.014768
0.36 0.00983568
0.37 0.00286265
0.38 -0.00593939
0.39 -0.0162529
0.4 -0.0277103
0.41 -0.0396766
0.42 -0.0515285
0.43 -0.0626329
0.44 -0.0723352
0.45 -0.0799836
0.46 -0.08489
0.47 -0.0861698
0.48 -0.083631
0.49 -0.0769179
0.5 -0.0658006
0.51 -0.0501898
0.52 -0.0301472
0.53 -0.00561228
0.54 0.0228441
0.55 0.0544737
0.56 0.0885799
0.57 0.12435
0.58 0.160878
0.59 0.197178
0.6 0.231989
0.61 0.264339
0.62 0.293247
0.63 0.317796
0.64 0.337163
0.65 0.35065
0.66 0.357283
0.67 0.356683
0.68 0.349055
0.69 0.334433
0.7 0.31304
0.71 0.285283
0.72 0.251741
0.73 0.212671
0.74 0.169615
0.75 0.123585
0.76 0.0756512
0.77 0.0269183
0.78 -0.0215056
0.79 -0.0684185
0.8 -0.112627
0.81 -0.153343
0.82 -0.189801
0.83 -0.22138
0.84 -0.247621
0.85 -0.268236
0.86 -0.282528
0.87 -0.291116
0.88 -0.294351
0.89 -0.29266
0.9 -0.286598
0.91 -0.276829
0.92 -0.264018
0.93 -0.249005
0.94 -0.23284
0.95 -0.216343
0.96 -0.200297
0.97 -0.185419
0.98 -0.172343
0.99 -0.161853
1 -0.154229
1.01 -0.14966
1.02 -0.148262
1.03 -0.150023
1.04 -0.154808
1.05 -0.162436
1.06 -0.172652
1.07 -0.184771
1.08 -0.198297
1.09 -0.212703
1.1 -0.227454
1.11 -0.242025
1.12 -0.255836
1.13 -0.268433
1.14 -0.279489
1.15 -0.288737
1.16 -0.295996
1.17 -0.301178
1.18 -0.304255
1.19 -0.305176
1.2 -0.30434
1.21 -0.302006
1.22 -0.29848
1.23 -0.294105
1.24 -0.289243
1.25 -0.284272
1.26 -0.279584
1.27 -0.275487
1.28 -0.272233
1.29 -0.270018
1.3 -0.268968
1.31 -0.269146
1.32 -0.270651
1.33 -0.273239
1.34 -0.276741
1.35 -0.280933
1.36 -0.285549
1.37 -0.290293
1.38 -0.294825
1.39 -0.29879
1.4 -0.301913
1.41 -0.30394
1.42 -0.304666
1.43 -0.30394
1.44 -0.301677
1.45 -0.297693
1.46 -0.292229
1.47 -0.28544
1.48 -0.277535
1.49 -0.26878
1.5 -0.259487
1.51 -0.250008
1.52 -0.240765
1.53 -0.232132
1.54 -0.224455
1.55 -0.218049
1.56 -0.213183
1.57 -0.210067
1.58 -0.209041
1.59 -0.210003
1.6 -0.212884
1.61 -0.217568
1.62 -0.223859
1.63 -0.23149
1.64 -0.240151
1.65 -0.24943
1.66 -0.258824
1.67 -0.26789
1.68 -0.276182
1.69 -0.283274
1.7 -0.288769
1.71 -0.292116
1.72 -0.293127
1.73 -0.291662
1.74 -0.287609
1.75 -0.280941
1.76 -0.27172
1.77 -0.260039
1.78 -0.246022
1.79 -0.230206
1.8 -0.212965
1.81 -0.194719
1.82 -0.175915
1.83 -0.157011
1.84 -0.138525
1.85 -0.120927
1.86 -0.104583
1.87 -0.0898208
1.88 -0.0769017
1.89 -0.0660136
1.9 -0.0572962
1.91 -0.050957
1.92 -0.0466973
1.93 -0.0443627
1.94 -0.0437313
1.95 -0.0445238
1.96 -0.0464157
1.97 -0.0490764
1.98 -0.0520675
1.99 -0.0549888
2 -0.0574956
2.01 -0.0592788
2.02 -0.0600783
2.03 -0.0596891
2.04 -0.0578288
2.05 -0.0546011
2.06 -0.0500491
2.07 -0.0442927
2.08 -0.0375245
2.09 -0.0300023
2.1 -0.0220367
2.11 -0.0140459
2.12 -0.00644684
2.13 0.000356714
2.14 0.00596633
2.15 0.0100044
2.16 0.0121288
2.17 0.0117795
2.18 0.00894088
2.19 0.0034905
2.2 -0.0046316
2.21 -0.0154029
2.22 -0.0287181
2.23 -0.0444867
2.24 -0.0624551
2.25 -0.0821148
2.26 -0.103072
2.27 -0.124894
2.28 -0.147125
2.29 -0.169299
2.3 -0.190862
2.31 -0.211375
2.32 -0.230458
2.33 -0.247775
2.34 -0.263049
2.35 -0.276075
2.36 -0.286638
2.37 -0.294571
2.38 -0.30012
2.39 -0.303404
2.4 -0.304609
2.41 -0.303982
2.42 -0.301817
2.43 -0.298371
2.44 -0.294115
2.45 -0.28945
2.46 -0.284737
2.47 -0.280315
2.48 -0.276495
2.49 -0.273573
2.5 -0.271868
2.51 -0.271445
2.52 -0.272395
2.53 -0.274746
2.54 -0.278471
2.55 -0.283483
2.56 -0.289724
2.57 -0.296943
2.58 -0.304875
2.59 -0.313277
2.6 -0.321897
2.61 -0.330479
2.62 -0.338771
2.63 -0.346471
2.64 -0.35342
2.65 -0.359456
2.66 -0.36446
2.67 -0.36835
2.68 -0.371091
2.69 -0.372615
2.7 -0.372997
2.71 -0.372385
2.72 -0.370899
2.73 -0.368678
2.74 -0.36588
2.75 -0.362667
2.76 -0.359193
2.77 -0.355654
2.78 -0.352189
2.79 -0.348913
2.8 -0.345917
2.81 -0.343264
2.82 -0.341007
2.83 -0.339149
2.84 -0.337633
2.85 -0.3364
2.86 -0.335371
2.87 -0.334448
2.88 -0.333525
2.89 -0.332463
2.9 -0.331149
2.91 -0.329479
2.92 -0.32736
2.93 -0.324713
2.94 -0.321481
2.95 -0.317597
2.96 -0.313028
2.97 -0.307829
2.98 -0.302032
2.99 -0.295683
3 -0.288839
3.01 -0.281568
3.02 -0.273908
3.03 -0.26596
3.04 -0.257785
3.05 -0.249424
3.06 -0.240898
3.07 -0.232205
3.08 -0.223315
3.09 -0.214151
3.1 -0.204648
3.11 -0.194698
3.12 -0.184173
3.13 -0.172929
3.14 -0.16081
3.15 -0.147552
3.16 -0.133032
3.17 -0.117136
3.18 -0.0997332
3.19 -0.0807192
3.2 -0.0600192
3.21 -0.037559
3.22 -0.0132178
3.23 0.0127787
3.24 0.0403248
3.25 0.069269
3.26 0.0994154
3.27 0.130527
3.28 0.162358
3.29 0.194537
3.3 0.226702
3.31 0.258506
3.32 0.289598
3.33 0.319632
3.34 0.348254
3.35 0.374949
3.36 0.399598
3.37 0.421962
3.38 0.441844
3.39 0.459094
3.4 0.473613
3.41 0.485174
3.42 0.493809
3.43 0.499728
3.44 0.503034
3.45 0.503869
3.46 0.502407
3.47 0.498847
3.48 0.493219
3.49 0.485993
3.5 0.477407
3.51 0.467694
3.52 0.457076
3.53 0.445762
3.54 0.433921
3.55 0.421735
3.56 0.409369
3.57 0.396929
3.58 0.384499
3.59 0.372135
3.6 0.359875
3.61 0.347751
3.62 0.335756
3.63 0.323881
3.64 0.312117
3.65 0.300454
3.66 0.288889
3.67 0.277429
3.68 0.266101
3.69 0.254929
3.7 0.243965
3.71 0.233276
3.72 0.222943
3.73 0.213064
3.74 0.203812
3.75 0.195282
3.76 0.187585
3.77 0.180849
3.78 0.175197
3.79 0.170745
3.8 0.167641
3.81 0.166066
3.82 0.165972
3.83 0.167405
3.84 0.170388
3.85 0.174922
3.86 0.180983
3.87 0.188637
3.88 0.197733
3.89 0.208123
3.9 0.219697
3.91 0.232329
3.92 0.245881
3.93 0.260223
3.94 0.275239
3.95 0.290708
3.96 0.306487
3.97 0.322439
3.98 0.338436
3.99 0.354358
4 0.370076
4.01 0.385485
4.02 0.400511
4.03 0.41508
4.04 0.429128
4.05 0.442595
4.06 0.455426
4.07 0.467498
4.08 0.478834
4.09 0.489389
4.1 0.499117
4.11 0.507969
4.12 0.515893
4.13 0.52277
4.14 0.528538
4.15 0.533193
4.16 0.536675
4.17 0.538925
4.18 0.539885
4.19 0.539503
4.2 0.537575
4.21 0.534212
4.22 0.529397
4.23 0.523121
4.24 0.515386
4.25 0.50621
4.26 0.495558
4.27 0.483458
4.28 0.470069
4.29 0.455466
4.3 0.439732
4.31 0.422959
4.32 0.405244
4.33 0.386609
4.34 0.367238
4.35 0.347238
4.36 0.326696
4.37 0.305695
4.38 0.284305
4.39 0.262575
4.4 0.240548
4.41 0.218284
4.42 0.195805
4.43 0.173126
4.44 0.150254
4.45 0.127189
4.46 0.103911
4.47 0.080431
4.48 0.0567561
4.49 0.0328944
4.5 0.00886284
4.51 -0.0153104
4.52 -0.0395855
4.53 -0.0639008
4.54 -0.0881743
4.55 -0.112317
4.56 -0.136228
4.57 -0.159792
4.58 -0.182886
4.59 -0.20532
4.6 -0.226968
4.61 -0.24772
4.62 -0.267448
4.63 -0.286032
4.64 -0.303368
4.65 -0.319343
4.66 -0.333762
4.67 -0.346721
4.68 -0.358204
4.69 -0.368223
4.7 -0.376812
4.71 -0.384033
4.72 -0.38989
4.73 -0.394537
4.74 -0.398163
4.75 -0.400913
4.76 -0.40294
4.77 -0.404403
4.78 -0.40546
4.79 -0.406258
4.8 -0.406982
4.81 -0.407762
4.82 -0.40871
4.83 -0.40992
4.84 -0.411461
4.85 -0.413403
4.86 -0.415769
4.87 -0.418529
4.88 -0.421651
4.89 -0.425086
4.9 -0.428765
4.91 -0.432605
4.92 -0.436508
4.93 -0.440356
4.94 -0.444044
4.95 -0.447468
4.96 -0.450532
4.97 -0.453146
4.98 -0.455204
4.99 -0.456619
5 -0.457383
5.01 -0.457466
5.02 -0.456852
5.03 -0.455542
5.04 -0.453549
5.05 -0.450837
5.06 -0.4475
5.07 -0.443595
5.08 -0.439169
5.09 -0.434271
5.1 -0.42895
5.11 -0.423238
5.12 -0.417161
5.13 -0.41078
5.14 -0.404115
5.15 -0.397179
5.16 -0.389974
5.17 -0.382497
5.18 -0.37471
5.19 -0.36661
5.2 -0.358187
5.21 -0.349419
5.22 -0.34029
5.23 -0.330786
5.24 -0.32089
5.25 -0.31058
5.26 -0.299906
5.27 -0.288895
5.28 -0.277586
5.29 -0.26603
5.3 -0.254288
5.31 -0.242432
5.32 -0.230559
5.33 -0.218763
5.34 -0.207137
5.35 -0.195776
5.36 -0.18477
5.37 -0.174213
5.38 -0.164241
5.39 -0.15487
5.4 -0.146154
5.41 -0.138129
5.42 -0.130817
5.43 -0.124224
5.44 -0.118386
5.45 -0.113258
5.46 -0.108762
5.47 -0.104841
5.48 -0.101431
5.49 -0.0984616
5.5 -0.0958565
5.51 -0.0935628
5.52 -0.0914669
5.53 -0.0895003
5.54 -0.0876023
5.55 -0.0857216
5.56 -0.0838176
5.57 -0.081858
5.58 -0.079825
5.59 -0.0777202
5.6 -0.0755523
5.61 -0.0733385
5.62 -0.0711029
5.63 -0.068874
5.64 -0.0666891
5.65 -0.0645761
5.66 -0.0625581
5.67 -0.060652
5.68 -0.058865
5.69 -0.0571934
5.7 -0.0556241
5.71 -0.0541239
5.72 -0.05264
5.73 -0.0511144
5.74 -0.0494784
5.75 -0.0476548
5.76 -0.0455602
5.77 -0.0430645
5.78 -0.0401
5.79 -0.0365931
5.8 -0.0324711
5.81 -0.0276733
5.82 -0.0221534
5.83 -0.0158572
5.84 -0.00873809
5.85 -0.000876702
5.86 0.00768825
5.87 0.016897
5.88 0.0266698
5.89 0.0369089
5.9 0.0475206
5.91 0.0583431
5.92 0.069231
5.93 0.080047
5.94 0.0906554
5.95 0.100927
5.96 0.11073
5.97 0.119907
5.98 0.128425
5.99 0.136224
6 0.143268
6.01 0.149546
6.02 0.155073
6.03 0.159836
6.04 0.163932
6.05 0.167474
6.06 0.17056
6.07 0.173301
6.08 0.175812
6.09 0.178212
6.1 0.180628
6.11 0.183171
6.12 0.185928
6.13 0.188969
6.14 0.19234
6.15 0.196066
6.16 0.200163
6.17 0.20459
6.18 0.209264
6.19 0.214099
6.2 0.218987
6.21 0.2238
6.22 0.228397
6.23 0.232568
6.24 0.236186
6.25 0.239099
6.26 0.241164
6.27 0.242251
6.28 0.242246
6.29 0.240995
6.3 0.238412
6.31 0.234545
6.32 0.229393
6.33 0.222988
6.34 0.215388
6.35 0.206678
6.36 0.196877
6.37 0.186225
6.38 0.174884
6.39 0.163012
6.4 0.150773
6.41 0.138329
6.42 0.125842
6.43 0.113478
6.44 0.101363
6.45 0.0896008
6.46 0.0782728
6.47 0.067434
6.48 0.0571144
6.49 0.0473649
6.5 0.0381202
6.51 0.0293191
6.52 0.0208931
6.53 0.0127589
6.54 0.00482266
6.55 -0.00301624
6.56 -0.0108726
6.57 -0.0188489
6.58 -0.0270309
6.59 -0.0354905
6.6 -0.0442823
6.61 -0.0534406
6.62 -0.0630078
6.63 -0.0729477
6.64 -0.0832058
6.65 -0.0937177
6.66 -0.104398
6.67 -0.115145
6.68 -0.125834
6.69 -0.136308
6.7 -0.146435
6.71 -0.156079
6.72 -0.165106
6.73 -0.173392
6.74 -0.180824
6.75 -0.187229
6.76 -0.192547
6.77 -0.196769
6.78 -0.199868
6.79 -0.201834
6.8 -0.202684
6.81 -0.202444
6.82 -0.201074
6.83 -0.198763
6.84 -0.195594
6.85 -0.191659
6.86 -0.18705
6.87 -0.18186
6.88 -0.176149
6.89 -0.170009
6.9 -0.163526
6.91 -0.156746
6.92 -0.149697
6.93 -0.142386
6.94 -0.134805
6.95 -0.126886
6.96 -0.118607
6.97 -0.109908
6.98 -0.100712
6.99 -0.0909379
7 -0.0804985
7.01 -0.0692661
7.02 -0.0571347
7.03 -0.0440858
7.04 -0.0300637
7.05 -0.0150294
7.06 0.0010364
7.07 0.0181311
7.08 0.0363272
7.09 0.0554757
7.1 0.0754829
7.11 0.0962472
7.12 0.117647
7.13 0.139541
7.14 0.161784
7.15 0.184193
7.16 0.206571
7.17 0.228743
7.18 0.250541
7.19 0.271798
7.2 0.292361
7.21 0.312003
7.22 0.330644
7.23 0.348205
7.24 0.364607
7.25 0.37979
7.26 0.393717
7.27 0.406332
7.28 0.417556
7.29 0.427523
7.3 0.436261
7.31 0.44381
7.32 0.450213
7.33 0.455519
7.34 0.459691
7.35 0.462824
7.36 0.464989
7.37 0.466212
7.38 0.466504
7.39 0.465867
7.4 0.464276
7.41 0.461622
7.42 0.457963
7.43 0.453255
7.44 0.447444
7.45 0.440476
7.46 0.432291
7.47 0.422743
7.48 0.411805
7.49 0.399499
7.5 0.385799
7.51 0.370694
7.52 0.354193
7.53 0.336314
7.54 0.316974
7.55 0.296401
7.56 0.274692
7.57 0.251964
7.58 0.228356
7.59 0.204023
7.6 0.179114
7.61 0.153842
7.62 0.12843
7.63 0.103077
7.64 0.0779812
7.65 0.0533366
7.66 0.0293318
7.67 0.00625477
7.68 -0.0158044
7.69 -0.036707
7.7 -0.0563291
7.71 -0.0745677
7.72 -0.0913422
7.73 -0.10652
7.74 -0.120031
7.75 -0.131974
7.76 -0.142365
7.77 -0.151238
7.78 -0.158644
7.79 -0.164652
7.8 -0.16922
7.81 -0.172561
7.82 -0.174799
7.83 -0.176038
7.84 -0.176386
7.85 -0.175951
7.86 -0.174815
7.87 -0.173067
7.88 -0.17085
7.89 -0.168248
7.9 -0.165335
7.91 -0.162177
7.92 -0.158827
7.93 -0.155323
7.94 -0.151712
7.95 -0.148023
7.96 -0.144272
7.97 -0.14047
7.98 -0.136621
7.99 -0.132725
8 -0.128775
8.01 -0.124769
8.02 -0.120703
8.03 -0.116569
8.04 -0.112366
8.05 -0.108092
8.06 -0.103745
8.07 -0.0993326
8.08 -0.0948698
8.09 -0.090371
8.1 -0.0858553
8.11 -0.0813452
8.12 -0.0768678
8.13 -0.0724613
8.14 -0.0681536
8.15 -0.0639775
8.16 -0.059966
8.17 -0.0561516
8.18 -0.0525651
8.19 -0.0492537
8.2 -0.0462406
8.21 -0.043532
8.22 -0.0411414
8.23 -0.0390765
8.24 -0.0373384
8.25 -0.0359224
8.26 -0.0348473
8.27 -0.0340551
8.28 -0.0335171
8.29 -0.0331984
8.3 -0.0330586
8.31 -0.0330521
8.32 -0.0331315
8.33 -0.0332364
8.34 -0.0333089
8.35 -0.0332955
8.36 -0.033145
8.37 -0.032809
8.38 -0.032244
8.39 -0.0313796
8.4 -0.030211
8.41 -0.0287205
8.42 -0.0268977
8.43 -0.0247419
8.44 -0.0222628
8.45 -0.019468
8.46 -0.0163863
8.47 -0.0130809
8.48 -0.00960246
8.49 -0.00600842
8.5 -0.0023623
8.51 0.00126814
8.52 0.00479702
8.53 0.00815236
8.54 0.0112668
8.55 0.0140748
8.56 0.0165162
8.57 0.0185379
8.58 0.0200778
8.59 0.0210733
8.6 0.021542
8.61 0.0214736
8.62 0.0208693
8.63 0.0197414
8.64 0.018113
8.65 0.0159795
8.66 0.0134157
8.67 0.0104853
8.68 0.00724311
8.69 0.00374698
8.7 5.57044e-05
8.71 -0.00377468
8.72 -0.00768844
8.73 -0.0116252
8.74 -0.0155431
8.75 -0.0194085
8.76 -0.023197
8.77 -0.0268936
8.78 -0.0304866
8.79 -0.033987
8.8 -0.0374161
8.81 -0.0407995
8.82 -0.04417
8.83 -0.047566
8.84 -0.0510315
8.85 -0.0546271
8.86 -0.058389
8.87 -0.0623593
8.88 -0.0665754
8.89 -0.0710689
8.9 -0.0758639
8.91 -0.0809966
8.92 -0.0864675
8.93 -0.0922523
8.94 -0.0983327
8.95 -0.10468
8.96 -0.111257
8.97 -0.118018
8.98 -0.124916
8.99 -0.131871
9 -0.13882
9.01 -0.145699
9.02 -0.152444
9.03 -0.158993
9.04 -0.165276
9.05 -0.171232
9.06 -0.176838
9.07 -0.182066
9.08 -0.186894
9.09 -0.191315
9.1 -0.195328
9.11 -0.198905
9.12 -0.202109
9.13 -0.204975
9.14 -0.20754
9.15 -0.209845
9.16 -0.211937
9.17 -0.213856
9.18 -0.21565
9.19 -0.21737
9.2 -0.219054
9.21 -0.220732
9.22 -0.222424
9.23 -0.224144
9.24 -0.2259
9.25 -0.227681
9.26 -0.22947
9.27 -0.231241
9.28 -0.232963
9.29 -0.234597
9.3 -0.236093
9.31 -0.23739
9.32 -0.23845
9.33 -0.239228
9.34 -0.239679
9.35 -0.239764
9.36 -0.239448
9.37 -0.238667
9.38 -0.237422
9.39 -0.235719
9.4 -0.233557
9.41 -0.230946
9.42 -0.2279
9.43 -0.224434
9.44 -0.220553
9.45 -0.21633
9.46 -0.2118
9.47 -0.207
9.48 -0.201966
9.49 -0.19673
9.5 -0.19131
9.51 -0.185737
9.52 -0.180032
9.53 -0.1742
9.54 -0.168239
9.55 -0.16214
9.56 -0.15588
9.57 -0.149412
9.58 -0.142717
9.59 -0.135756
9.6 -0.128484
9.61 -0.120855
9.62 -0.112823
9.63 -0.104311
9.64 -0.0952765
9.65 -0.0857075
9.66 -0.0755762
9.67 -0.0648622
9.68 -0.0535544
9.69 -0.0416516
9.7 -0.0290975
9.71 -0.0159823
9.72 -0.00233943
9.73 0.0117893
9.74 0.0263536
9.75 0.041296
9.76 0.0565653
9.77 0.0720865
9.78 0.0877683
9.79 0.103539
9.8 0.119327
9.81 0.135064
9.82 0.150684
9.83 0.166103
9.84 0.181277
9.85 0.196162
9.86 0.210716
9.87 0.224906
9.88 0.238703
9.89 0.252069
9.9 0.264968
9.91 0.277422
9.92 0.28942
9.93 0.300957
9.94 0.312026
9.95 0.322621
9.96 0.33269
9.97 0.342254
9.98 0.351313
9.99 0.359853
10 0.367856
10.01 0.375302
10.02 0.38215
10.03 0.388337
10.04 0.393889
10.05 0.398782
10.06 0.402992
10.07 0.406499
10.08 0.409287
10.09 0.411284
10.1 0.412519
10.11 0.413022
10.12 0.412806
10.13 0.411891
10.14 0.410307
10.15 0.408082
10.16 0.405224
10.17 0.401851
10.18 0.398027
10.19 0.393823
10.2 0.389312
10.21 0.384572
10.22 0.379677
10.23 0.374721
10.24 0.369785
10.25 0.36494
10.26 0.360253
10.27 0.355781
10.28 0.351577
10.29 0.347715
10.3 0.344191
10.31 0.341022
10.32 0.338211
10.33 0.33575
10.34 0.33362
10.35 0.331807
10.36 0.330262
10.37 0.328917
10.38 0.327712
10.39 0.326583
10.4 0.325458
10.41 0.324263
10.42 0.322896
10.43 0.321289
10.44 0.319366
10.45 0.317053
10.46 0.31428
10.47 0.31098
10.48 0.307062
10.49 0.302454
10.5 0.297151
10.51 0.291117
10.52 0.284322
10.53 0.276749
10.54 0.268384
10.55 0.259146
10.56 0.24911
10.57 0.238306
10.58 0.226759
10.59 0.214499
10.6 0.201565
10.61 0.187983
10.62 0.173786
10.63 0.159082
10.64 0.143932
10.65 0.128402
10.66 0.112559
10.67 0.0964732
10.68 0.0802039
10.69 0.0638401
10.7 0.0474536
10.71 0.031109
10.72 0.0148674
10.73 -0.00121473
10.74 -0.0170793
10.75 -0.0326602
10.76 -0.0479412
10.77 -0.0628937
10.78 -0.0774974
10.79 -0.0917397
10.8 -0.105616
10.81 -0.119103
10.82 -0.132228
10.83 -0.145027
10.84 -0.157524
10.85 -0.169752
10.86 -0.181745
10.87 -0.19354
10.88 -0.205168
10.89 -0.216688
10.9 -0.228138
10.91 -0.239552
10.92 -0.250963
10.93 -0.262395
10.94 -0.273871
10.95 -0.285402
10.96 -0.296987
10.97 -0.308619
10.98 -0.320282
10.99 -0.33195
11 -0.34359
11.01 -0.355147
11.02 -0.366576
11.03 -0.37782
11.04 -0.388819
11.05 -0.399509
11.06 -0.409825
11.07 -0.41967
11.08 -0.42897
11.09 -0.437688
11.1 -0.445767
11.11 -0.453152
11.12 -0.459798
11.13 -0.465662
11.14 -0.470621
11.15 -0.474731
11.16 -0.477983
11.17 -0.480369
11.18 -0.48189
11.19 -0.48255
11.2 -0.482326
11.21 -0.481219
11.22 -0.479311
11.23 -0.47663
11.24 -0.473206
11.25 -0.469069
11.26 -0.46425
11.27 -0.458717
11.28 -0.452558
11.29 -0.44581
11.3 -0.438499
11.31 -0.430647
11.32 -0.422275
11.33 -0.413381
11.34 -0.403961
11.35 -0.394066
11.36 -0.383709
11.37 -0.372897
11.38 -0.36164
11.39 -0.349946
11.4 -0.337787
11.41 -0.325199
11.42 -0.312207
11.43 -0.298824
11.44 -0.285065
11.45 -0.270949
11.46 -0.256488
11.47 -0.241688
11.48 -0.226605
11.49 -0.211269
11.5 -0.19571
11.51 -0.179961
11.52 -0.164057
11.53 -0.148029
11.54 -0.131922
11.55 -0.11578
11.56 -0.0996427
11.57 -0.0835489
11.58 -0.0675385
11.59 -0.0516535
11.6 -0.0359534
11.61 -0.0204643
11.62 -0.00522538
11.63 0.00972422
11.64 0.0243459
11.65 0.0386017
11.66 0.0524249
11.67 0.06578
11.68 0.0786528
11.69 0.0910098
11.7 0.102819
11.71 0.114052
11.72 0.124681
11.73 0.134609
11.74 0.143889
11.75 0.152507
11.76 0.160454
11.77 0.167726
11.78 0.174328
11.79 0.18023
11.8 0.185446
11.81 0.19004
11.82 0.194039
11.83 0.197475
11.84 0.200386
11.85 0.202814
11.86 0.204758
11.87 0.206313
11.88 0.207528
11.89 0.208448
11.9 0.209113
11.91 0.209561
11.92 0.209816
11.93 0.2099
11.94 0.20984
11.95 0.209643
11.96 0.209302
11.97 0.208803
11.98 0.208121
11.99 0.207193
12 0.205985
12.01 0.204444
12.02 0.202508
12.03 0.200106
12.04 0.197164
12.05 0.193584
12.06 0.189244
12.07 0.184123
12.08 0.178153
12.09 0.171272
12.1 0.163428
12.11 0.154578
12.12 0.144603
12.13 0.133543
12.14 0.121435
12.15 0.108298
12.16 0.0941655
12.17 0.0790887
12.18 0.0631159
