# xPDFsuite Configuration #
[PDF]
wavelength = 0.1
dataformat = QA
inputfile = BiMsol6_insitu_700 C-00644.xy
backgroundfile = Quartz2mm-dist500-00000.xy
mode = xray
bgscale = 0.0042
composition = Bi2Fe4O9
outputtype = gr
qmaxinst = 24.998449118
qmin = 0.1
qmax = 21.4986662415
rmax = 80.0
rmin = 0.0
rstep = 0.01
rpoly = 0.9

[Misc]
inputdir = C:/Data/Seafile/CPH/Beamtime/Desy Oct 20/In situ data/Processed/BiMsol6/PDF
savedir = C:/Data/Seafile/CPH/Beamtime/Desy Oct 20/In situ data/PDF/BiMsol6
backgroundfilefull = C:/Data/Seafile/CPH/Beamtime/Desy Oct 20/In situ data/Processed/Standard_Empty_Cap/Quartz2mm-dist500-00000.xy

#### start data
#S 1
#L r($\AA$)  G($\AA^{-2}$)
0 0
0.01 0.00672791
0.02 0.0130766
0.03 0.0187213
0.04 0.0233709
0.05 0.0267808
0.06 0.0287643
0.07 0.0291174
0.08 0.0277801
0.09 0.0249023
0.1 0.0206069
0.11 0.0150849
0.12 0.0085869
0.13 0.00141218
0.14 -0.00610346
0.15 -0.0135359
0.16 -0.0205274
0.17 -0.0267424
0.18 -0.0318799
0.19 -0.0356881
0.2 -0.0379081
0.21 -0.0383627
0.22 -0.037153
0.23 -0.0343466
0.24 -0.0300931
0.25 -0.0246185
0.26 -0.0182169
0.27 -0.0112216
0.28 -0.00411646
0.29 0.00266874
0.3 0.00871674
0.31 0.0136308
0.32 0.0170542
0.33 0.0186259
0.34 0.0179927
0.35 0.0152066
0.36 0.010263
0.37 0.00326535
0.38 -0.00557368
0.39 -0.0159353
0.4 -0.0274513
0.41 -0.0394843
0.42 -0.0514093
0.43 -0.0625917
0.44 -0.0723758
0.45 -0.0801091
0.46 -0.085103
0.47 -0.0864732
0.48 -0.0840282
0.49 -0.077413
0.5 -0.0663989
0.51 -0.0508982
0.52 -0.030974
0.53 -0.00656777
0.54 0.0217484
0.55 0.0532263
0.56 0.0871691
0.57 0.122765
0.58 0.159109
0.59 0.195218
0.6 0.229834
0.61 0.261991
0.62 0.290711
0.63 0.315084
0.64 0.334293
0.65 0.347647
0.66 0.354178
0.67 0.353516
0.68 0.345869
0.69 0.331274
0.7 0.309958
0.71 0.282328
0.72 0.248965
0.73 0.210129
0.74 0.167351
0.75 0.121639
0.76 0.0740544
0.77 0.0256938
0.78 -0.0223445
0.79 -0.0688695
0.8 -0.112701
0.81 -0.153061
0.82 -0.189195
0.83 -0.220491
0.84 -0.246498
0.85 -0.266935
0.86 -0.281115
0.87 -0.289652
0.88 -0.292897
0.89 -0.291271
0.9 -0.285324
0.91 -0.275712
0.92 -0.263089
0.93 -0.248284
0.94 -0.23233
0.95 -0.216035
0.96 -0.200167
0.97 -0.185433
0.98 -0.172455
0.99 -0.162003
1 -0.154354
1.01 -0.149697
1.02 -0.148147
1.03 -0.149698
1.04 -0.15422
1.05 -0.161544
1.06 -0.171427
1.07 -0.183203
1.08 -0.196394
1.09 -0.210491
1.1 -0.224976
1.11 -0.239344
1.12 -0.253035
1.13 -0.265605
1.14 -0.276736
1.15 -0.286162
1.16 -0.293703
1.17 -0.299267
1.18 -0.302815
1.19 -0.304287
1.2 -0.304052
1.21 -0.302343
1.22 -0.29944
1.23 -0.295656
1.24 -0.291322
1.25 -0.286775
1.26 -0.282379
1.27 -0.278418
1.28 -0.275124
1.29 -0.272674
1.3 -0.271185
1.31 -0.270715
1.32 -0.271346
1.33 -0.272872
1.34 -0.275143
1.35 -0.277963
1.36 -0.281102
1.37 -0.284303
1.38 -0.287273
1.39 -0.289709
1.4 -0.291388
1.41 -0.292103
1.42 -0.291694
1.43 -0.29005
1.44 -0.28712
1.45 -0.282782
1.46 -0.277266
1.47 -0.270731
1.48 -0.263383
1.49 -0.255472
1.5 -0.247286
1.51 -0.239152
1.52 -0.231446
1.53 -0.224473
1.54 -0.218522
1.55 -0.213846
1.56 -0.210653
1.57 -0.20909
1.58 -0.209417
1.59 -0.211488
1.6 -0.215195
1.61 -0.220385
1.62 -0.226841
1.63 -0.234282
1.64 -0.242389
1.65 -0.25075
1.66 -0.25892
1.67 -0.266496
1.68 -0.273084
1.69 -0.278313
1.7 -0.281854
1.71 -0.283228
1.72 -0.282328
1.73 -0.279082
1.74 -0.273443
1.75 -0.265442
1.76 -0.25519
1.77 -0.242826
1.78 -0.228528
1.79 -0.212808
1.8 -0.196035
1.81 -0.178609
1.82 -0.160945
1.83 -0.143456
1.84 -0.126615
1.85 -0.110808
1.86 -0.0963199
1.87 -0.0834033
1.88 -0.0722436
1.89 -0.0629549
1.9 -0.0556043
1.91 -0.0503076
1.92 -0.0467441
1.93 -0.0447261
1.94 -0.0440124
1.95 -0.0443196
1.96 -0.0453349
1.97 -0.046733
1.98 -0.0481323
1.99 -0.0492088
2 -0.0496867
2.01 -0.0493347
2.02 -0.0479757
2.03 -0.0454914
2.04 -0.0417107
2.05 -0.0368085
2.06 -0.030901
2.07 -0.0241705
2.08 -0.0168598
2.09 -0.00926233
2.1 -0.00173575
2.11 0.00529929
2.12 0.0114746
2.13 0.0164219
2.14 0.0197939
2.15 0.0212775
2.16 0.0206065
2.17 0.0172987
2.18 0.0114546
2.19 0.00304611
2.2 -0.00789546
2.21 -0.0212612
2.22 -0.0368674
2.23 -0.0545369
2.24 -0.0739452
2.25 -0.0945771
2.26 -0.116022
2.27 -0.137847
2.28 -0.159614
2.29 -0.180893
2.3 -0.201148
2.31 -0.220044
2.32 -0.237287
2.33 -0.252624
2.34 -0.26587
2.35 -0.276909
2.36 -0.285622
2.37 -0.291947
2.38 -0.296187
2.39 -0.29852
2.4 -0.299178
2.41 -0.298435
2.42 -0.296596
2.43 -0.293949
2.44 -0.29091
2.45 -0.287823
2.46 -0.284989
2.47 -0.28268
2.48 -0.281124
2.49 -0.280531
2.5 -0.281118
2.51 -0.282854
2.52 -0.285745
2.53 -0.289745
2.54 -0.294758
2.55 -0.300644
2.56 -0.307269
2.57 -0.314375
2.58 -0.321715
2.59 -0.329063
2.6 -0.336199
2.61 -0.342916
2.62 -0.349021
2.63 -0.354271
2.64 -0.358624
2.65 -0.362007
2.66 -0.364389
2.67 -0.365777
2.68 -0.366219
2.69 -0.365746
2.7 -0.364501
2.71 -0.362666
2.72 -0.360395
2.73 -0.357847
2.74 -0.355181
2.75 -0.352547
2.76 -0.350113
2.77 -0.347981
2.78 -0.346232
2.79 -0.344916
2.8 -0.344055
2.81 -0.343637
2.82 -0.34364
2.83 -0.343983
2.84 -0.344545
2.85 -0.345213
2.86 -0.345862
2.87 -0.346364
2.88 -0.346592
2.89 -0.346373
2.9 -0.345634
2.91 -0.344297
2.92 -0.342304
2.93 -0.339625
2.94 -0.336252
2.95 -0.332178
2.96 -0.327437
2.97 -0.322149
2.98 -0.316397
2.99 -0.310276
3 -0.303883
3.01 -0.29731
3.02 -0.290641
3.03 -0.283954
3.04 -0.277289
3.05 -0.270658
3.06 -0.26404
3.07 -0.257381
3.08 -0.250584
3.09 -0.243494
3.1 -0.235962
3.11 -0.227804
3.12 -0.218815
3.13 -0.208778
3.14 -0.197472
3.15 -0.184536
3.16 -0.169823
3.17 -0.153206
3.18 -0.134544
3.19 -0.113736
3.2 -0.0907252
3.21 -0.0654641
3.22 -0.037855
3.23 -0.00823336
3.24 0.0232217
3.25 0.0562775
3.26 0.0906527
3.27 0.126023
3.28 0.162044
3.29 0.198253
3.3 0.234217
3.31 0.269525
3.32 0.30377
3.33 0.336565
3.34 0.367525
3.35 0.396078
3.36 0.422154
3.37 0.445529
3.38 0.466037
3.39 0.483566
3.4 0.498061
3.41 0.509337
3.42 0.517491
3.43 0.522803
3.44 0.52543
3.45 0.525561
3.46 0.523412
3.47 0.519218
3.48 0.51304
3.49 0.50535
3.5 0.496385
3.51 0.486363
3.52 0.475482
3.53 0.463916
3.54 0.451787
3.55 0.43922
3.56 0.426327
3.57 0.413159
3.58 0.399745
3.59 0.386091
3.6 0.37219
3.61 0.357993
3.62 0.343501
3.63 0.328699
3.64 0.313577
3.65 0.298139
3.66 0.282409
3.67 0.266422
3.68 0.250254
3.69 0.234024
3.7 0.217855
3.71 0.201894
3.72 0.18631
3.73 0.171285
3.74 0.157106
3.75 0.143944
3.76 0.131985
3.77 0.121422
3.78 0.112437
3.79 0.105195
3.8 0.0998933
3.81 0.0967735
3.82 0.0957408
3.83 0.0968344
3.84 0.100058
3.85 0.105382
3.86 0.112743
3.87 0.122194
3.88 0.133501
3.89 0.146442
3.9 0.160849
3.91 0.176536
3.92 0.193312
3.93 0.210995
3.94 0.229427
3.95 0.248339
3.96 0.26756
3.97 0.286935
3.98 0.306322
3.99 0.325602
4 0.344649
4.01 0.363374
4.02 0.381724
4.03 0.399647
4.04 0.417106
4.05 0.434069
4.06 0.450506
4.07 0.466336
4.08 0.48159
4.09 0.496235
4.1 0.510234
4.11 0.523536
4.12 0.536085
4.13 0.547754
4.14 0.558453
4.15 0.568136
4.16 0.576703
4.17 0.584051
4.18 0.590071
4.19 0.594659
4.2 0.597528
4.21 0.598746
4.22 0.598239
4.23 0.595945
4.24 0.591816
4.25 0.585825
4.26 0.577874
4.27 0.56795
4.28 0.55622
4.29 0.542746
4.3 0.52761
4.31 0.510909
4.32 0.492753
4.33 0.473141
4.34 0.452335
4.35 0.430488
4.36 0.407735
4.37 0.384206
4.38 0.360026
4.39 0.335297
4.4 0.310122
4.41 0.284633
4.42 0.25891
4.43 0.233021
4.44 0.207023
4.45 0.180962
4.46 0.154877
4.47 0.128805
4.48 0.102772
4.49 0.0768046
4.5 0.0509292
4.51 0.0251762
4.52 -0.000413359
4.53 -0.0257778
4.54 -0.0508793
4.55 -0.0756569
4.56 -0.100041
4.57 -0.123955
4.58 -0.147316
4.59 -0.169977
4.6 -0.191862
4.61 -0.212907
4.62 -0.233024
4.63 -0.252133
4.64 -0.270163
4.65 -0.287035
4.66 -0.302597
4.67 -0.316938
4.68 -0.330051
4.69 -0.341942
4.7 -0.352638
4.71 -0.362182
4.72 -0.370562
4.73 -0.377888
4.74 -0.3843
4.75 -0.389894
4.76 -0.394773
4.77 -0.399041
4.78 -0.402803
4.79 -0.406126
4.8 -0.409156
4.81 -0.411977
4.82 -0.41466
4.83 -0.417261
4.84 -0.419825
4.85 -0.42238
4.86 -0.424943
4.87 -0.42751
4.88 -0.430067
4.89 -0.432589
4.9 -0.435044
4.91 -0.437391
4.92 -0.439567
4.93 -0.441537
4.94 -0.443261
4.95 -0.444698
4.96 -0.445813
4.97 -0.446577
4.98 -0.446951
4.99 -0.446909
5 -0.446471
5.01 -0.445639
5.02 -0.444417
5.03 -0.442817
5.04 -0.44085
5.05 -0.438495
5.06 -0.435795
5.07 -0.432765
5.08 -0.429411
5.09 -0.425733
5.1 -0.421725
5.11 -0.417363
5.12 -0.41261
5.13 -0.407471
5.14 -0.401919
5.15 -0.395925
5.16 -0.389461
5.17 -0.3825
5.18 -0.374973
5.19 -0.366897
5.2 -0.358283
5.21 -0.349141
5.22 -0.339493
5.23 -0.329376
5.24 -0.318835
5.25 -0.307923
5.26 -0.296765
5.27 -0.285461
5.28 -0.274119
5.29 -0.26286
5.3 -0.251806
5.31 -0.241119
5.32 -0.230927
5.33 -0.221332
5.34 -0.21244
5.35 -0.204343
5.36 -0.197117
5.37 -0.190828
5.38 -0.185599
5.39 -0.181337
5.4 -0.178021
5.41 -0.17561
5.42 -0.174037
5.43 -0.173218
5.44 -0.173088
5.45 -0.173502
5.46 -0.174302
5.47 -0.175356
5.48 -0.176535
5.49 -0.177714
5.5 -0.178774
5.51 -0.179577
5.52 -0.180057
5.53 -0.180151
5.54 -0.179815
5.55 -0.179029
5.56 -0.177795
5.57 -0.17611
5.58 -0.174021
5.59 -0.171613
5.6 -0.168954
5.61 -0.166122
5.62 -0.163195
5.63 -0.160251
5.64 -0.15737
5.65 -0.154611
5.66 -0.152012
5.67 -0.149594
5.68 -0.147354
5.69 -0.14527
5.7 -0.143296
5.71 -0.141349
5.72 -0.139328
5.73 -0.137118
5.74 -0.134593
5.75 -0.131615
5.76 -0.128044
5.77 -0.123656
5.78 -0.11836
5.79 -0.112055
5.8 -0.104643
5.81 -0.0960481
5.82 -0.086224
5.83 -0.0751124
5.84 -0.0626724
5.85 -0.0490664
5.86 -0.0343847
5.87 -0.0187481
5.88 -0.00230568
5.89 0.0147696
5.9 0.0323051
5.91 0.0500431
5.92 0.0677563
5.93 0.0852311
5.94 0.102261
5.95 0.118652
5.96 0.134209
5.97 0.148697
5.98 0.162083
5.99 0.174286
6 0.185262
6.01 0.194999
6.02 0.203522
6.03 0.210807
6.04 0.216992
6.05 0.222243
6.06 0.226695
6.07 0.230497
6.08 0.233802
6.09 0.236764
6.1 0.23953
6.11 0.242265
6.12 0.245081
6.13 0.248066
6.14 0.251283
6.15 0.254762
6.16 0.258519
6.17 0.262507
6.18 0.266645
6.19 0.270834
6.2 0.274953
6.21 0.278863
6.22 0.282409
6.23 0.285349
6.24 0.287565
6.25 0.2889
6.26 0.289207
6.27 0.288357
6.28 0.286245
6.29 0.282714
6.3 0.277695
6.31 0.271261
6.32 0.263433
6.33 0.254261
6.34 0.243825
6.35 0.232232
6.36 0.219517
6.37 0.205945
6.38 0.191689
6.39 0.176921
6.4 0.161809
6.41 0.146521
6.42 0.131218
6.43 0.116061
6.44 0.101167
6.45 0.0866308
6.46 0.0725199
6.47 0.058878
6.48 0.0457225
6.49 0.0330887
6.5 0.0209043
6.51 0.0091034
6.52 -0.00238446
6.53 -0.0136411
6.54 -0.024755
6.55 -0.0358181
6.56 -0.0469316
6.57 -0.0581767
6.58 -0.0696195
6.59 -0.0813104
6.6 -0.0932819
6.61 -0.105546
6.62 -0.118117
6.63 -0.130941
6.64 -0.143955
6.65 -0.157084
6.66 -0.170238
6.67 -0.183315
6.68 -0.196197
6.69 -0.208724
6.7 -0.220799
6.71 -0.232302
6.72 -0.243125
6.73 -0.253165
6.74 -0.262334
6.75 -0.270484
6.76 -0.277575
6.77 -0.283614
6.78 -0.288578
6.79 -0.292461
6.8 -0.295269
6.81 -0.297015
6.82 -0.297627
6.83 -0.297257
6.84 -0.295942
6.85 -0.293723
6.86 -0.290633
6.87 -0.286703
6.88 -0.281905
6.89 -0.276256
6.9 -0.2698
6.91 -0.262523
6.92 -0.254402
6.93 -0.245401
6.94 -0.23548
6.95 -0.224472
6.96 -0.212427
6.97 -0.199294
6.98 -0.185023
6.99 -0.169568
7 -0.152896
7.01 -0.134918
7.02 -0.115605
7.03 -0.0950537
7.04 -0.0732924
7.05 -0.0503703
7.06 -0.026355
7.07 -0.0013324
7.08 0.0246752
7.09 0.051453
7.1 0.0788537
7.11 0.106733
7.12 0.134939
7.13 0.163317
7.14 0.191707
7.15 0.21993
7.16 0.247844
7.17 0.275312
7.18 0.302212
7.19 0.32843
7.2 0.353871
7.21 0.378362
7.22 0.401888
7.23 0.424414
7.24 0.4459
7.25 0.466312
7.26 0.485624
7.27 0.503786
7.28 0.520707
7.29 0.536472
7.3 0.55106
7.31 0.564449
7.32 0.57661
7.33 0.587507
7.34 0.596987
7.35 0.605051
7.36 0.611689
7.37 0.616837
7.38 0.620428
7.39 0.622392
7.4 0.622633
7.41 0.620933
7.42 0.617407
7.43 0.612008
7.44 0.604705
7.45 0.595477
7.46 0.584324
7.47 0.571132
7.48 0.55599
7.49 0.53905
7.5 0.520395
7.51 0.500127
7.52 0.478367
7.53 0.455244
7.54 0.430803
7.55 0.405357
7.56 0.37908
7.57 0.352149
7.58 0.324744
7.59 0.297046
7.6 0.269231
7.61 0.241493
7.62 0.213993
7.63 0.186876
7.64 0.160274
7.65 0.134304
7.66 0.10907
7.67 0.0847642
7.68 0.0613791
7.69 0.0389704
7.7 0.017587
7.71 -0.00273238
7.72 -0.0219576
7.73 -0.0400115
7.74 -0.0568505
7.75 -0.0725402
7.76 -0.0870717
7.77 -0.100438
7.78 -0.112634
7.79 -0.123656
7.8 -0.133384
7.81 -0.141915
7.82 -0.149271
7.83 -0.155459
7.84 -0.160489
7.85 -0.164375
7.86 -0.167099
7.87 -0.168648
7.88 -0.169149
7.89 -0.168649
7.9 -0.167205
7.91 -0.164879
7.92 -0.161744
7.93 -0.15782
7.94 -0.15325
7.95 -0.148143
7.96 -0.142592
7.97 -0.136689
7.98 -0.130525
7.99 -0.124188
8 -0.117762
8.01 -0.111336
8.02 -0.104972
8.03 -0.0987238
8.04 -0.0926341
8.05 -0.0867332
8.06 -0.0810574
8.07 -0.0756059
8.08 -0.0703659
8.09 -0.0653247
8.1 -0.0604624
8.11 -0.0557547
8.12 -0.0511758
8.13 -0.0467031
8.14 -0.0422987
8.15 -0.0379413
8.16 -0.0336154
8.17 -0.0293127
8.18 -0.0250335
8.19 -0.02079
8.2 -0.0166042
8.21 -0.0125035
8.22 -0.00852488
8.23 -0.00471149
8.24 -0.00111111
8.25 0.00222487
8.26 0.00520541
8.27 0.00781414
8.28 0.0100088
8.29 0.0117545
8.3 0.0130259
8.31 0.0138088
8.32 0.0140744
8.33 0.0138362
8.34 0.0131527
8.35 0.0120658
8.36 0.0106292
8.37 0.00890743
8.38 0.00697314
8.39 0.00489946
8.4 0.00279011
8.41 0.000727204
8.42 -0.00121218
8.43 -0.0029582
8.44 -0.00445119
8.45 -0.00562921
8.46 -0.0064497
8.47 -0.00692491
8.48 -0.00706337
8.49 -0.00689221
8.5 -0.00645678
8.51 -0.00581966
8.52 -0.0050559
8.53 -0.00427884
8.54 -0.00359437
8.55 -0.00311211
8.56 -0.00294392
8.57 -0.00320003
8.58 -0.00400687
8.59 -0.00550199
8.6 -0.00771883
8.61 -0.0107197
8.62 -0.014548
8.63 -0.0192266
8.64 -0.0247567
8.65 -0.0311867
8.66 -0.038418
8.67 -0.0463587
8.68 -0.0549242
8.69 -0.0640151
8.7 -0.0735207
8.71 -0.0833262
8.72 -0.0933049
8.73 -0.103309
8.74 -0.113223
8.75 -0.122937
8.76 -0.132355
8.77 -0.141396
8.78 -0.149957
8.79 -0.158005
8.8 -0.165535
8.81 -0.172545
8.82 -0.17905
8.83 -0.18508
8.84 -0.190678
8.85 -0.195874
8.86 -0.200779
8.87 -0.205465
8.88 -0.210005
8.89 -0.214466
8.9 -0.218911
8.91 -0.223398
8.92 -0.227973
8.93 -0.232656
8.94 -0.237455
8.95 -0.242361
8.96 -0.247351
8.97 -0.252385
8.98 -0.257403
8.99 -0.262335
9 -0.267106
9.01 -0.271637
9.02 -0.275849
9.03 -0.279661
9.04 -0.282973
9.05 -0.285704
9.06 -0.287835
9.07 -0.289328
9.08 -0.290162
9.09 -0.290332
9.1 -0.28985
9.11 -0.288681
9.12 -0.286937
9.13 -0.284685
9.14 -0.281997
9.15 -0.278954
9.16 -0.275641
9.17 -0.272143
9.18 -0.268553
9.19 -0.264966
9.2 -0.261453
9.21 -0.258076
9.22 -0.254883
9.23 -0.251908
9.24 -0.249195
9.25 -0.246725
9.26 -0.244481
9.27 -0.242432
9.28 -0.240538
9.29 -0.23875
9.3 -0.23701
9.31 -0.23525
9.32 -0.233405
9.33 -0.231416
9.34 -0.229233
9.35 -0.226813
9.36 -0.224124
9.37 -0.22112
9.38 -0.217814
9.39 -0.214226
9.4 -0.210383
9.41 -0.206324
9.42 -0.202098
9.43 -0.197763
9.44 -0.193389
9.45 -0.189055
9.46 -0.184828
9.47 -0.180769
9.48 -0.176935
9.49 -0.173368
9.5 -0.170123
9.51 -0.167203
9.52 -0.164588
9.53 -0.16225
9.54 -0.160143
9.55 -0.158204
9.56 -0.15635
9.57 -0.15447
9.58 -0.152447
9.59 -0.150159
9.6 -0.147484
9.61 -0.144297
9.62 -0.140477
9.63 -0.135855
9.64 -0.130324
9.65 -0.12384
9.66 -0.11634
9.67 -0.107779
9.68 -0.0981346
9.69 -0.0874078
9.7 -0.0755049
9.71 -0.0626008
9.72 -0.0487685
9.73 -0.0340971
9.74 -0.0186903
9.75 -0.00266315
9.76 0.0138803
9.77 0.0307996
9.78 0.0479377
9.79 0.065174
9.8 0.0823962
9.81 0.0995032
9.82 0.116408
9.83 0.133004
9.84 0.149259
9.85 0.165143
9.86 0.180639
9.87 0.195747
9.88 0.210477
9.89 0.224842
9.9 0.238865
9.91 0.252611
9.92 0.26612
9.93 0.279427
9.94 0.292564
9.95 0.305553
9.96 0.318393
9.97 0.331092
9.98 0.343635
9.99 0.355987
10 0.368102
10.01 0.379919
10.02 0.391354
10.03 0.402284
10.04 0.412653
10.05 0.42237
10.06 0.431341
10.07 0.439479
10.08 0.446704
10.09 0.452863
10.1 0.457944
10.11 0.46195
10.12 0.464869
10.13 0.466709
10.14 0.4675
10.15 0.467278
10.16 0.466052
10.17 0.464013
10.18 0.461273
10.19 0.457954
10.2 0.454189
10.21 0.450114
10.22 0.445865
10.23 0.441598
10.24 0.437446
10.25 0.433521
10.26 0.429921
10.27 0.426723
10.28 0.42399
10.29 0.421813
10.3 0.420146
10.31 0.418975
10.32 0.418264
10.33 0.417955
10.34 0.417974
10.35 0.418239
10.36 0.418629
10.37 0.41902
10.38 0.419293
10.39 0.419333
10.4 0.419026
10.41 0.418263
10.42 0.416873
10.43 0.414825
10.44 0.412051
10.45 0.408498
10.46 0.404129
10.47 0.398922
10.48 0.39283
10.49 0.385848
10.5 0.378059
10.51 0.369498
10.52 0.360208
10.53 0.350239
10.54 0.339643
10.55 0.328421
10.56 0.316682
10.57 0.304482
10.58 0.291865
10.59 0.278871
10.6 0.265529
10.61 0.251853
10.62 0.23785
10.63 0.223555
10.64 0.208974
10.65 0.194108
10.66 0.178959
10.67 0.163526
10.68 0.147786
10.69 0.131762
10.7 0.115474
10.71 0.0989365
10.72 0.0821752
10.73 0.0652209
10.74 0.0481099
10.75 0.0308886
10.76 0.0136247
10.77 -0.00362221
10.78 -0.0207892
10.79 -0.0378113
10.8 -0.0546241
10.81 -0.0711387
10.82 -0.0873022
10.83 -0.103076
10.84 -0.118419
10.85 -0.133301
10.86 -0.147704
10.87 -0.161614
10.88 -0.174998
10.89 -0.187926
10.9 -0.200434
10.91 -0.212563
10.92 -0.224366
10.93 -0.235901
10.94 -0.247222
10.95 -0.258406
10.96 -0.269524
10.97 -0.280635
10.98 -0.291787
10.99 -0.303023
11 -0.31437
11.01 -0.325858
11.02 -0.337469
11.03 -0.349185
11.04 -0.360969
11.05 -0.372772
11.06 -0.384527
11.07 -0.396145
11.08 -0.407521
11.09 -0.418564
11.1 -0.42917
11.11 -0.439235
11.12 -0.448651
11.13 -0.457319
11.14 -0.465042
11.15 -0.471816
11.16 -0.477578
11.17 -0.482273
11.18 -0.485861
11.19 -0.48832
11.2 -0.489591
11.21 -0.489661
11.22 -0.488641
11.23 -0.486574
11.24 -0.483516
11.25 -0.479533
11.26 -0.474698
11.27 -0.469022
11.28 -0.462656
11.29 -0.455693
11.3 -0.448209
11.31 -0.440273
11.32 -0.431946
11.33 -0.423269
11.34 -0.414273
11.35 -0.405013
11.36 -0.395501
11.37 -0.385742
11.38 -0.375727
11.39 -0.365442
11.4 -0.354832
11.41 -0.343883
11.42 -0.332569
11.43 -0.320857
11.44 -0.308715
11.45 -0.296114
11.46 -0.283022
11.47 -0.269391
11.48 -0.255264
11.49 -0.240653
11.5 -0.225581
11.51 -0.210081
11.52 -0.194203
11.53 -0.177985
11.54 -0.161522
11.55 -0.144907
11.56 -0.128231
11.57 -0.111588
11.58 -0.0950775
11.59 -0.0788028
11.6 -0.0629047
11.61 -0.0474513
11.62 -0.0325303
11.63 -0.0182218
11.64 -0.0045962
11.65 0.00828721
11.66 0.0203265
11.67 0.0314962
11.68 0.0418194
11.69 0.0512914
11.7 0.0599206
11.71 0.0677272
11.72 0.074741
11.73 0.0809242
11.74 0.0864185
11.75 0.0912817
11.76 0.0955761
11.77 0.099367
11.78 0.102721
11.79 0.105686
11.8 0.108335
11.81 0.110747
11.82 0.112978
11.83 0.115075
11.84 0.117078
11.85 0.11902
11.86 0.120925
11.87 0.122812
11.88 0.124687
11.89 0.126548
11.9 0.128384
11.91 0.130176
11.92 0.131895
11.93 0.1335
11.94 0.134958
11.95 0.136225
11.96 0.137253
11.97 0.13799
11.98 0.138384
11.99 0.138336
12 0.137815
12.01 0.136774
12.02 0.135158
12.03 0.132918
12.04 0.130004
12.05 0.126346
12.06 0.121861
12.07 0.116575
12.08 0.110463
12.09 0.103503
12.1 0.0956819
12.11 0.0869945
12.12 0.0773704
12.13 0.0668712
12.14 0.0555464
12.15 0.0434272
12.16 0.030554
12.17 0.0169755
