# xPDFsuite Configuration #
[PDF]
wavelength = 0.1
dataformat = QA
inputfile = BiMsol6_insitu_700 C-00703.xy
backgroundfile = Quartz2mm-dist500-00000.xy
mode = xray
bgscale = 0.0042
composition = Bi2Fe4O9
outputtype = gr
qmaxinst = 24.998449118
qmin = 0.1
qmax = 21.4986662415
rmax = 80.0
rmin = 0.0
rstep = 0.01
rpoly = 0.9

[Misc]
inputdir = C:/Data/Seafile/CPH/Beamtime/Desy Oct 20/In situ data/Processed/BiMsol6/PDF
savedir = C:/Data/Seafile/CPH/Beamtime/Desy Oct 20/In situ data/PDF/BiMsol6
backgroundfilefull = C:/Data/Seafile/CPH/Beamtime/Desy Oct 20/In situ data/Processed/Standard_Empty_Cap/Quartz2mm-dist500-00000.xy

#### start data
#S 1
#L r($\AA$)  G($\AA^{-2}$)
0 0
0.01 0.00632621
0.02 0.0122951
0.03 0.0176009
0.04 0.0219692
0.05 0.0251694
0.06 0.0270258
0.07 0.0273458
0.08 0.0260731
0.09 0.0233484
0.1 0.0192876
0.11 0.0140704
0.12 0.00793284
0.13 0.00115663
0.14 -0.00594199
0.15 -0.0129633
0.16 -0.0195704
0.17 -0.025447
0.18 -0.0303092
0.19 -0.0339198
0.2 -0.0360347
0.21 -0.0364868
0.22 -0.0353711
0.23 -0.0327515
0.24 -0.0287687
0.25 -0.023636
0.26 -0.0176307
0.27 -0.0110677
0.28 -0.00440318
0.29 0.00195691
0.3 0.00761858
0.31 0.012207
0.32 0.0153851
0.33 0.0168114
0.34 0.016152
0.35 0.0134557
0.36 0.00871802
0.37 0.00203681
0.38 -0.00638677
0.39 -0.0162509
0.4 -0.0272065
0.41 -0.0386492
0.42 -0.0499861
0.43 -0.0606145
0.44 -0.0699107
0.45 -0.0772537
0.46 -0.0819871
0.47 -0.0832666
0.48 -0.0809069
0.49 -0.0745659
0.5 -0.064021
0.51 -0.0491827
0.52 -0.0301046
0.53 -0.00672142
0.54 0.0204293
0.55 0.0506398
0.56 0.0832526
0.57 0.117499
0.58 0.152522
0.59 0.187386
0.6 0.2209
0.61 0.252133
0.62 0.280148
0.63 0.304071
0.64 0.323113
0.65 0.336602
0.66 0.343602
0.67 0.34374
0.68 0.337193
0.69 0.323979
0.7 0.304292
0.71 0.278502
0.72 0.247141
0.73 0.210423
0.74 0.169805
0.75 0.126234
0.76 0.0807122
0.77 0.0342783
0.78 -0.0120232
0.79 -0.0570639
0.8 -0.0997141
0.81 -0.139211
0.82 -0.174818
0.83 -0.205936
0.84 -0.232114
0.85 -0.253058
0.86 -0.268091
0.87 -0.277763
0.88 -0.282381
0.89 -0.28232
0.9 -0.278076
0.91 -0.270252
0.92 -0.259445
0.93 -0.246417
0.94 -0.23215
0.95 -0.217402
0.96 -0.2029
0.97 -0.189316
0.98 -0.177244
0.99 -0.16741
1 -0.1601
1.01 -0.15551
1.02 -0.153767
1.03 -0.154879
1.04 -0.158744
1.05 -0.165217
1.06 -0.174086
1.07 -0.18474
1.08 -0.196739
1.09 -0.209615
1.1 -0.222888
1.11 -0.236085
1.12 -0.248689
1.13 -0.260281
1.14 -0.270559
1.15 -0.279272
1.16 -0.286248
1.17 -0.291397
1.18 -0.294681
1.19 -0.296042
1.2 -0.295822
1.21 -0.29424
1.22 -0.291557
1.23 -0.28807
1.24 -0.284091
1.25 -0.279941
1.26 -0.275966
1.27 -0.272436
1.28 -0.269572
1.29 -0.267545
1.3 -0.266468
1.31 -0.266398
1.32 -0.267418
1.33 -0.269328
1.34 -0.271984
1.35 -0.275199
1.36 -0.278747
1.37 -0.282381
1.38 -0.285812
1.39 -0.288742
1.4 -0.290947
1.41 -0.292217
1.42 -0.292385
1.43 -0.291333
1.44 -0.288998
1.45 -0.285241
1.46 -0.280274
1.47 -0.274239
1.48 -0.267323
1.49 -0.259759
1.5 -0.251817
1.51 -0.243804
1.52 -0.236079
1.53 -0.228948
1.54 -0.222698
1.55 -0.217584
1.56 -0.21382
1.57 -0.211566
1.58 -0.211087
1.59 -0.212271
1.6 -0.215038
1.61 -0.219262
1.62 -0.224754
1.63 -0.231266
1.64 -0.238511
1.65 -0.246113
1.66 -0.253646
1.67 -0.260729
1.68 -0.266983
1.69 -0.27205
1.7 -0.275604
1.71 -0.277181
1.72 -0.276654
1.73 -0.273932
1.74 -0.268947
1.75 -0.261706
1.76 -0.252291
1.77 -0.240812
1.78 -0.22741
1.79 -0.212561
1.8 -0.196603
1.81 -0.179908
1.82 -0.162863
1.83 -0.145863
1.84 -0.129352
1.85 -0.113711
1.86 -0.0992315
1.87 -0.0861684
1.88 -0.0747179
1.89 -0.06501
1.9 -0.0571311
1.91 -0.0512178
1.92 -0.0469879
1.93 -0.0442829
1.94 -0.0428912
1.95 -0.0425578
1.96 -0.0429962
1.97 -0.0439109
1.98 -0.0449395
1.99 -0.0457659
2 -0.0461212
2.01 -0.045775
2.02 -0.0445456
2.03 -0.0423047
2.04 -0.0388751
2.05 -0.0343989
2.06 -0.0289689
2.07 -0.0227428
2.08 -0.0159374
2.09 -0.00882126
2.1 -0.00172454
2.11 0.00495568
2.12 0.0108638
2.13 0.0156427
2.14 0.0189505
2.15 0.0204743
2.16 0.0199425
2.17 0.0168695
2.18 0.0113287
2.19 0.00327011
2.2 -0.00729892
2.21 -0.0202954
2.22 -0.0355625
2.23 -0.0529523
2.24 -0.0721698
2.25 -0.0927148
2.26 -0.114191
2.27 -0.136177
2.28 -0.158237
2.29 -0.179937
2.3 -0.200741
2.31 -0.220286
2.32 -0.238251
2.33 -0.254353
2.34 -0.268374
2.35 -0.280163
2.36 -0.28956
2.37 -0.296455
2.38 -0.301123
2.39 -0.303715
2.4 -0.304435
2.41 -0.303541
2.42 -0.301328
2.43 -0.298063
2.44 -0.294188
2.45 -0.290071
2.46 -0.286042
2.47 -0.282409
2.48 -0.279444
2.49 -0.277405
2.5 -0.276571
2.51 -0.276968
2.52 -0.278657
2.53 -0.281642
2.54 -0.285874
2.55 -0.291254
2.56 -0.297703
2.57 -0.304977
2.58 -0.312821
2.59 -0.321006
2.6 -0.329295
2.61 -0.337453
2.62 -0.345248
2.63 -0.352401
2.64 -0.358781
2.65 -0.36425
2.66 -0.368707
2.67 -0.372087
2.68 -0.374367
2.69 -0.375493
2.7 -0.375542
2.71 -0.374659
2.72 -0.372958
2.73 -0.370573
2.74 -0.36765
2.75 -0.364342
2.76 -0.360791
2.77 -0.357181
2.78 -0.35364
2.79 -0.35028
2.8 -0.34719
2.81 -0.344434
2.82 -0.342075
2.83 -0.340128
2.84 -0.338554
2.85 -0.337316
2.86 -0.336359
2.87 -0.335612
2.88 -0.334998
2.89 -0.334425
2.9 -0.333794
2.91 -0.333021
2.92 -0.332033
2.93 -0.330762
2.94 -0.329156
2.95 -0.327158
2.96 -0.324725
2.97 -0.321876
2.98 -0.318609
2.99 -0.314932
3 -0.310856
3.01 -0.306395
3.02 -0.301525
3.03 -0.296278
3.04 -0.290652
3.05 -0.284627
3.06 -0.278164
3.07 -0.271208
3.08 -0.263666
3.09 -0.255396
3.1 -0.246338
3.11 -0.236365
3.12 -0.225346
3.13 -0.213142
3.14 -0.199613
3.15 -0.184494
3.16 -0.167725
3.17 -0.149256
3.18 -0.129013
3.19 -0.10695
3.2 -0.0830567
3.21 -0.0573211
3.22 -0.0296911
3.23 -0.000456539
3.24 0.0302255
3.25 0.0621594
3.26 0.0951139
3.27 0.128826
3.28 0.163018
3.29 0.197318
3.3 0.231384
3.31 0.264883
3.32 0.297489
3.33 0.328883
3.34 0.358747
3.35 0.3866
3.36 0.41237
3.37 0.435856
3.38 0.45689
3.39 0.47535
3.4 0.491153
3.41 0.504088
3.42 0.514184
3.43 0.521635
3.44 0.52652
3.45 0.528949
3.46 0.529053
3.47 0.526986
3.48 0.522698
3.49 0.516609
3.5 0.508897
3.51 0.499735
3.52 0.489287
3.53 0.47771
3.54 0.465103
3.55 0.451601
3.56 0.43738
3.57 0.422536
3.58 0.407157
3.59 0.391317
3.6 0.375083
3.61 0.358487
3.62 0.341626
3.63 0.324562
3.64 0.30736
3.65 0.290088
3.66 0.272824
3.67 0.255664
3.68 0.238727
3.69 0.222116
3.7 0.205952
3.71 0.190363
3.72 0.175483
3.73 0.161453
3.74 0.148519
3.75 0.136764
3.76 0.126297
3.77 0.117238
3.78 0.109698
3.79 0.103771
3.8 0.099586
3.81 0.0973077
3.82 0.0968187
3.83 0.0981296
3.84 0.10123
3.85 0.106089
3.86 0.112658
3.87 0.120997
3.88 0.130933
3.89 0.142312
3.9 0.155027
3.91 0.168965
3.92 0.184007
3.93 0.20005
3.94 0.21703
3.95 0.234736
3.96 0.253057
3.97 0.271885
3.98 0.291117
3.99 0.310656
4 0.330415
4.01 0.350285
4.02 0.370168
4.03 0.389976
4.04 0.409618
4.05 0.429
4.06 0.448024
4.07 0.466527
4.08 0.484444
4.09 0.50166
4.1 0.518059
4.11 0.533518
4.12 0.547915
4.13 0.561045
4.14 0.572772
4.15 0.583047
4.16 0.591762
4.17 0.598819
4.18 0.604133
4.19 0.607634
4.2 0.609055
4.21 0.608568
4.22 0.606175
4.23 0.60189
4.24 0.59575
4.25 0.58781
4.26 0.578065
4.27 0.566592
4.28 0.553615
4.29 0.539251
4.3 0.523626
4.31 0.506864
4.32 0.489093
4.33 0.470354
4.34 0.45085
4.35 0.430691
4.36 0.409964
4.37 0.38874
4.38 0.367074
4.39 0.344991
4.4 0.322501
4.41 0.299643
4.42 0.276411
4.43 0.252793
4.44 0.228774
4.45 0.204334
4.46 0.179416
4.47 0.154038
4.48 0.128216
4.49 0.101965
4.5 0.0753161
4.51 0.0483203
4.52 0.0210411
4.53 -0.00643087
4.54 -0.0339597
4.55 -0.0614162
4.56 -0.0886569
4.57 -0.115527
4.58 -0.141862
4.59 -0.167428
4.6 -0.192067
4.61 -0.215647
4.62 -0.238023
4.63 -0.259065
4.64 -0.278663
4.65 -0.296703
4.66 -0.312985
4.67 -0.32764
4.68 -0.340673
4.69 -0.352116
4.7 -0.362031
4.71 -0.370504
4.72 -0.377563
4.73 -0.383385
4.74 -0.388183
4.75 -0.392114
4.76 -0.395339
4.77 -0.39802
4.78 -0.400312
4.79 -0.402351
4.8 -0.404304
4.81 -0.406281
4.82 -0.408369
4.83 -0.410636
4.84 -0.413122
4.85 -0.41586
4.86 -0.418844
4.87 -0.422028
4.88 -0.425365
4.89 -0.428793
4.9 -0.432238
4.91 -0.435618
4.92 -0.438823
4.93 -0.441777
4.94 -0.444401
4.95 -0.446624
4.96 -0.448385
4.97 -0.449636
4.98 -0.450315
4.99 -0.450388
5 -0.449889
5.01 -0.448831
5.02 -0.447235
5.03 -0.445131
5.04 -0.44256
5.05 -0.439526
5.06 -0.436113
5.07 -0.432371
5.08 -0.428339
5.09 -0.424049
5.1 -0.419523
5.11 -0.414768
5.12 -0.409776
5.13 -0.404557
5.14 -0.399091
5.15 -0.393353
5.16 -0.387309
5.17 -0.380923
5.18 -0.374123
5.19 -0.366892
5.2 -0.359213
5.21 -0.351066
5.22 -0.342444
5.23 -0.33335
5.24 -0.323794
5.25 -0.313792
5.26 -0.303441
5.27 -0.292815
5.28 -0.282001
5.29 -0.271101
5.3 -0.260225
5.31 -0.249514
5.32 -0.239101
5.33 -0.229103
5.34 -0.219636
5.35 -0.210812
5.36 -0.202725
5.37 -0.19547
5.38 -0.189195
5.39 -0.183851
5.4 -0.179452
5.41 -0.175993
5.42 -0.173442
5.43 -0.171751
5.44 -0.170896
5.45 -0.170765
5.46 -0.171216
5.47 -0.172138
5.48 -0.173417
5.49 -0.174936
5.5 -0.176584
5.51 -0.178246
5.52 -0.179817
5.53 -0.181219
5.54 -0.18239
5.55 -0.183282
5.56 -0.183867
5.57 -0.184115
5.58 -0.184027
5.59 -0.183643
5.6 -0.18299
5.61 -0.182105
5.62 -0.181024
5.63 -0.179785
5.64 -0.178408
5.65 -0.17693
5.66 -0.175362
5.67 -0.173698
5.68 -0.171917
5.69 -0.169978
5.7 -0.167815
5.71 -0.165331
5.72 -0.162453
5.73 -0.159078
5.74 -0.155096
5.75 -0.150392
5.76 -0.144855
5.77 -0.138276
5.78 -0.130623
5.79 -0.12184
5.8 -0.111873
5.81 -0.100692
5.82 -0.0882976
5.83 -0.0746806
5.84 -0.0598569
5.85 -0.0440253
5.86 -0.027315
5.87 -0.00988189
5.88 0.00809481
5.89 0.0264174
5.9 0.0448673
5.91 0.063191
5.92 0.0811672
5.93 0.0985855
5.94 0.11525
5.95 0.130983
5.96 0.145609
5.97 0.158907
5.98 0.170905
5.99 0.181563
6 0.190879
6.01 0.198888
6.02 0.205659
6.03 0.21122
6.04 0.215763
6.05 0.219494
6.06 0.222588
6.07 0.225228
6.08 0.227599
6.09 0.229882
6.1 0.232269
6.11 0.234907
6.12 0.23791
6.13 0.241362
6.14 0.245312
6.15 0.249773
6.16 0.254745
6.17 0.260148
6.18 0.265848
6.19 0.27171
6.2 0.277568
6.21 0.283241
6.22 0.28853
6.23 0.293137
6.24 0.296907
6.25 0.299647
6.26 0.301176
6.27 0.301339
6.28 0.300007
6.29 0.296994
6.3 0.292217
6.31 0.285764
6.32 0.277662
6.33 0.26797
6.34 0.256787
6.35 0.24424
6.36 0.230376
6.37 0.215508
6.38 0.199847
6.39 0.183597
6.4 0.166962
6.41 0.150143
6.42 0.133335
6.43 0.116737
6.44 0.10049
6.45 0.0847068
6.46 0.0694756
6.47 0.0548518
6.48 0.0408608
6.49 0.0275544
6.5 0.0148466
6.51 0.00266079
6.52 -0.00908508
6.53 -0.0204875
6.54 -0.0316523
6.55 -0.0426891
6.56 -0.0537193
6.57 -0.0648511
6.58 -0.0761708
6.59 -0.0877478
6.6 -0.0996317
6.61 -0.111849
6.62 -0.124431
6.63 -0.137331
6.64 -0.150487
6.65 -0.163827
6.66 -0.177259
6.67 -0.190674
6.68 -0.203947
6.69 -0.216911
6.7 -0.229451
6.71 -0.241435
6.72 -0.252738
6.73 -0.263246
6.74 -0.272857
6.75 -0.281406
6.76 -0.288845
6.77 -0.295172
6.78 -0.300359
6.79 -0.304397
6.8 -0.307291
6.81 -0.309053
6.82 -0.30961
6.83 -0.309126
6.84 -0.307646
6.85 -0.305217
6.86 -0.301884
6.87 -0.297684
6.88 -0.292599
6.89 -0.286654
6.9 -0.279899
6.91 -0.272327
6.92 -0.263917
6.93 -0.254635
6.94 -0.244439
6.95 -0.233159
6.96 -0.220841
6.97 -0.207427
6.98 -0.192858
6.99 -0.177082
7 -0.160054
7.01 -0.141677
7.02 -0.121912
7.03 -0.100848
7.04 -0.0785118
7.05 -0.0549475
7.06 -0.0302217
7.07 -0.00442136
7.08 0.022434
7.09 0.0501171
7.1 0.0784711
7.11 0.107341
7.12 0.136563
7.13 0.165969
7.14 0.195384
7.15 0.224612
7.16 0.253496
7.17 0.281887
7.18 0.30965
7.19 0.336664
7.2 0.362823
7.21 0.387944
7.22 0.412014
7.23 0.435004
7.24 0.456876
7.25 0.477605
7.26 0.497175
7.27 0.515546
7.28 0.532642
7.29 0.548567
7.3 0.563315
7.31 0.57688
7.32 0.589246
7.33 0.60039
7.34 0.610177
7.35 0.618613
7.36 0.62569
7.37 0.631345
7.38 0.635509
7.39 0.638106
7.4 0.639031
7.41 0.638052
7.42 0.635265
7.43 0.630605
7.44 0.624018
7.45 0.615464
7.46 0.604919
7.47 0.592242
7.48 0.5775
7.49 0.560832
7.5 0.542306
7.51 0.522012
7.52 0.500062
7.53 0.476581
7.54 0.451597
7.55 0.425447
7.56 0.398312
7.57 0.370386
7.58 0.341865
7.59 0.312948
7.6 0.283831
7.61 0.254737
7.62 0.225855
7.63 0.197356
7.64 0.169397
7.65 0.142117
7.66 0.115644
7.67 0.0901973
7.68 0.0657782
7.69 0.042453
7.7 0.0202781
7.71 -0.00070375
7.72 -0.0204623
7.73 -0.038918
7.74 -0.0560328
7.75 -0.0718912
7.76 -0.0864966
7.77 -0.0998564
7.78 -0.111981
7.79 -0.122881
7.8 -0.132451
7.81 -0.140809
7.82 -0.147991
7.83 -0.154015
7.84 -0.1589
7.85 -0.16267
7.86 -0.165313
7.87 -0.16682
7.88 -0.167317
7.89 -0.166849
7.9 -0.165466
7.91 -0.163228
7.92 -0.160199
7.93 -0.156393
7.94 -0.151942
7.95 -0.146946
7.96 -0.141492
7.97 -0.135664
7.98 -0.129548
7.99 -0.123225
8 -0.116774
8.01 -0.110285
8.02 -0.103821
8.03 -0.0974363
8.04 -0.0911765
8.05 -0.0850757
8.06 -0.079173
8.07 -0.0734745
8.08 -0.0679739
8.09 -0.0626639
8.1 -0.05753
8.11 -0.0525524
8.12 -0.0477097
8.13 -0.0429838
8.14 -0.0383386
8.15 -0.0337541
8.16 -0.0292156
8.17 -0.0247151
8.18 -0.0202521
8.19 -0.0158391
8.2 -0.0114965
8.21 -0.00725013
8.22 -0.00313615
8.23 0.000802574
8.24 0.00451808
8.25 0.00795806
8.26 0.0110283
8.27 0.0137114
8.28 0.0159619
8.29 0.0177417
8.3 0.0190214
8.31 0.0197829
8.32 0.0199916
8.33 0.0196567
8.34 0.0188361
8.35 0.0175699
8.36 0.0159112
8.37 0.0139248
8.38 0.0116854
8.39 0.0092656
8.4 0.00677829
8.41 0.00431199
8.42 0.00195087
8.43 -0.000227356
8.44 -0.00215473
8.45 -0.00376029
8.46 -0.00499196
8.47 -0.00585555
8.48 -0.00635381
8.49 -0.00650972
8.5 -0.00636643
8.51 -0.00598645
8.52 -0.00544437
8.53 -0.00486184
8.54 -0.00435305
8.55 -0.0040375
8.56 -0.00403878
8.57 -0.00448034
8.58 -0.0055044
8.59 -0.00726735
8.6 -0.00981422
8.61 -0.0132205
8.62 -0.0175413
8.63 -0.0228086
8.64 -0.02903
8.65 -0.0362659
8.66 -0.0444101
8.67 -0.0533615
8.68 -0.0630254
8.69 -0.0732882
8.7 -0.0840214
8.71 -0.0950889
8.72 -0.106337
8.73 -0.11759
8.74 -0.128703
8.75 -0.139539
8.76 -0.149977
8.77 -0.15991
8.78 -0.169202
8.79 -0.177804
8.8 -0.185706
8.81 -0.192901
8.82 -0.199401
8.83 -0.205245
8.84 -0.210482
8.85 -0.21515
8.86 -0.219402
8.87 -0.223338
8.88 -0.227061
8.89 -0.230674
8.9 -0.234276
8.91 -0.237964
8.92 -0.241821
8.93 -0.245895
8.94 -0.250219
8.95 -0.254803
8.96 -0.259638
8.97 -0.264689
8.98 -0.269911
8.99 -0.275203
9 -0.28047
9.01 -0.285606
9.02 -0.290496
9.03 -0.295023
9.04 -0.299039
9.05 -0.302412
9.06 -0.305075
9.07 -0.306948
9.08 -0.307967
9.09 -0.308092
9.1 -0.307304
9.11 -0.305516
9.12 -0.302855
9.13 -0.299393
9.14 -0.295212
9.15 -0.290416
9.16 -0.285121
9.17 -0.27945
9.18 -0.273552
9.19 -0.267593
9.2 -0.26171
9.21 -0.256031
9.22 -0.250672
9.23 -0.245735
9.24 -0.241354
9.25 -0.237553
9.26 -0.234351
9.27 -0.231752
9.28 -0.229737
9.29 -0.228265
9.3 -0.227285
9.31 -0.226725
9.32 -0.226446
9.33 -0.226341
9.34 -0.226295
9.35 -0.226196
9.36 -0.225933
9.37 -0.225373
9.38 -0.22443
9.39 -0.223043
9.4 -0.221157
9.41 -0.218741
9.42 -0.215782
9.43 -0.212278
9.44 -0.208225
9.45 -0.203728
9.46 -0.198852
9.47 -0.193677
9.48 -0.188292
9.49 -0.182788
9.5 -0.177264
9.51 -0.17182
9.52 -0.166535
9.53 -0.161474
9.54 -0.156688
9.55 -0.152207
9.56 -0.148046
9.57 -0.14422
9.58 -0.140657
9.59 -0.137298
9.6 -0.134062
9.61 -0.130856
9.62 -0.127567
9.63 -0.124053
9.64 -0.120168
9.65 -0.11579
9.66 -0.11079
9.67 -0.105046
9.68 -0.0984467
9.69 -0.0908928
9.7 -0.0821781
9.71 -0.0723589
9.72 -0.0614051
9.73 -0.0493087
9.74 -0.0360852
9.75 -0.0217737
9.76 -0.00638715
9.77 0.0099908
9.78 0.0271892
9.79 0.0450894
9.8 0.063562
9.81 0.08247
9.82 0.101673
9.83 0.12103
9.84 0.140378
9.85 0.159584
9.86 0.17853
9.87 0.197107
9.88 0.215222
9.89 0.232772
9.9 0.249662
9.91 0.265892
9.92 0.28143
9.93 0.29626
9.94 0.310375
9.95 0.323781
9.96 0.336427
9.97 0.348381
9.98 0.359683
9.99 0.370355
10 0.380421
10.01 0.389899
10.02 0.39879
10.03 0.407073
10.04 0.414806
10.05 0.421987
10.06 0.428614
10.07 0.434679
10.08 0.44017
10.09 0.445029
10.1 0.449268
10.11 0.452899
10.12 0.455916
10.13 0.458317
10.14 0.460106
10.15 0.461286
10.16 0.461833
10.17 0.461836
10.18 0.461333
10.19 0.460371
10.2 0.459003
10.21 0.457289
10.22 0.455277
10.23 0.45305
10.24 0.45069
10.25 0.448263
10.26 0.445831
10.27 0.443453
10.28 0.441181
10.29 0.439074
10.3 0.43715
10.31 0.435425
10.32 0.433906
10.33 0.432583
10.34 0.431438
10.35 0.430446
10.36 0.429555
10.37 0.428703
10.38 0.427827
10.39 0.426856
10.4 0.425719
10.41 0.424338
10.42 0.42259
10.43 0.42043
10.44 0.417786
10.45 0.414592
10.46 0.410788
10.47 0.406321
10.48 0.401113
10.49 0.395111
10.5 0.38834
10.51 0.380789
10.52 0.372455
10.53 0.363342
10.54 0.353465
10.55 0.342772
10.56 0.331358
10.57 0.31927
10.58 0.306546
10.59 0.293228
10.6 0.279358
10.61 0.264967
10.62 0.250086
10.63 0.234802
10.64 0.21916
10.65 0.203205
10.66 0.186981
10.67 0.17053
10.68 0.153882
10.69 0.137091
10.7 0.120203
10.71 0.103255
10.72 0.0862837
10.73 0.0693242
10.74 0.0524132
10.75 0.0355932
10.76 0.0188903
10.77 0.00233366
10.78 -0.0140498
10.79 -0.030236
10.8 -0.0462036
10.81 -0.0619149
10.82 -0.0773649
10.83 -0.0925538
10.84 -0.107477
10.85 -0.122136
10.86 -0.136534
10.87 -0.150677
10.88 -0.16456
10.89 -0.178224
10.9 -0.19169
10.91 -0.204979
10.92 -0.218113
10.93 -0.231114
10.94 -0.243998
10.95 -0.256785
10.96 -0.269497
10.97 -0.282141
10.98 -0.294721
10.99 -0.307233
11 -0.319668
11.01 -0.331995
11.02 -0.344197
11.03 -0.356239
11.04 -0.36808
11.05 -0.379675
11.06 -0.39097
11.07 -0.401885
11.08 -0.412351
11.09 -0.422327
11.1 -0.431753
11.11 -0.440568
11.12 -0.448715
11.13 -0.456143
11.14 -0.462715
11.15 -0.468466
11.16 -0.473371
11.17 -0.477406
11.18 -0.480557
11.19 -0.482816
11.2 -0.484145
11.21 -0.484532
11.22 -0.48406
11.23 -0.482751
11.24 -0.480635
11.25 -0.477742
11.26 -0.474107
11.27 -0.469699
11.28 -0.464615
11.29 -0.458901
11.3 -0.452589
11.31 -0.445707
11.32 -0.43828
11.33 -0.43031
11.34 -0.421793
11.35 -0.412782
11.36 -0.403285
11.37 -0.393308
11.38 -0.382853
11.39 -0.371921
11.4 -0.360473
11.41 -0.348539
11.42 -0.336136
11.43 -0.323274
11.44 -0.309962
11.45 -0.296219
11.46 -0.282057
11.47 -0.267482
11.48 -0.252568
11.49 -0.237358
11.5 -0.221899
11.51 -0.206247
11.52 -0.190458
11.53 -0.174597
11.54 -0.158741
11.55 -0.14296
11.56 -0.127324
11.57 -0.111901
11.58 -0.0967556
11.59 -0.0819566
11.6 -0.0676052
11.61 -0.0537163
11.62 -0.0403352
11.63 -0.0275003
11.64 -0.0152428
11.65 -0.00358624
11.66 0.00741198
11.67 0.0177526
11.68 0.0274676
11.69 0.0365639
11.7 0.0450545
11.71 0.0529572
11.72 0.0602932
11.73 0.0670309
11.74 0.0732638
11.75 0.0790224
11.76 0.0843382
11.77 0.0892426
11.78 0.0937662
11.79 0.097921
11.8 0.101736
11.81 0.105259
11.82 0.108511
11.83 0.111512
11.84 0.11428
11.85 0.116828
11.86 0.119145
11.87 0.121261
11.88 0.123181
11.89 0.124906
11.9 0.126434
11.91 0.127761
11.92 0.128869
11.93 0.129739
11.94 0.130371
11.95 0.130749
11.96 0.13085
11.97 0.130653
11.98 0.130129
11.99 0.129212
12 0.127894
12.01 0.126146
12.02 0.123933
12.03 0.121215
12.04 0.117955
12.05 0.114093
12.06 0.109553
12.07 0.10435
12.08 0.0984495
12.09 0.0918224
12.1 0.0844435
12.11 0.0762932
12.12 0.0672906
12.13 0.0574736
12.14 0.0468713
12.15 0.0354973
12.16 0.0233742
12.17 0.0105343
12.18 -0.00299399
