# xPDFsuite Configuration #
[PDF]
wavelength = 0.1
dataformat = QA
inputfile = BiMsol6_insitu_700 C-00706.xy
backgroundfile = Quartz2mm-dist500-00000.xy
mode = xray
bgscale = 0.0042
composition = Bi2Fe4O9
outputtype = gr
qmaxinst = 24.998449118
qmin = 0.1
qmax = 21.4986662415
rmax = 80.0
rmin = 0.0
rstep = 0.01
rpoly = 0.9

[Misc]
inputdir = C:/Data/Seafile/CPH/Beamtime/Desy Oct 20/In situ data/Processed/BiMsol6/PDF
savedir = C:/Data/Seafile/CPH/Beamtime/Desy Oct 20/In situ data/PDF/BiMsol6
backgroundfilefull = C:/Data/Seafile/CPH/Beamtime/Desy Oct 20/In situ data/Processed/Standard_Empty_Cap/Quartz2mm-dist500-00000.xy

#### start data
#S 1
#L r($\AA$)  G($\AA^{-2}$)
0 0
0.01 0.00681747
0.02 0.0132533
0.03 0.0189806
0.04 0.0237061
0.05 0.0271831
0.06 0.029223
0.07 0.0296191
0.08 0.0283095
0.09 0.0254434
0.1 0.0211427
0.11 0.0155978
0.12 0.00905906
0.13 0.00182596
0.14 -0.00576649
0.15 -0.0132909
0.16 -0.0203872
0.17 -0.0267169
0.18 -0.0319758
0.19 -0.0359081
0.2 -0.0382505
0.21 -0.0388201
0.22 -0.0377135
0.23 -0.0349936
0.24 -0.0308054
0.25 -0.0253708
0.26 -0.0189805
0.27 -0.011962
0.28 -0.00479965
0.29 0.00207629
0.3 0.00824761
0.31 0.0133153
0.32 0.016919
0.33 0.0186934
0.34 0.0182791
0.35 0.0157189
0.36 0.0110001
0.37 0.00421744
0.38 -0.00442525
0.39 -0.0146181
0.4 -0.0260051
0.41 -0.0379557
0.42 -0.0498501
0.43 -0.0610589
0.44 -0.0709299
0.45 -0.0788122
0.46 -0.0840182
0.47 -0.0856656
0.48 -0.083552
0.49 -0.0773158
0.5 -0.0667203
0.51 -0.0516677
0.52 -0.0322105
0.53 -0.00827803
0.54 0.0195718
0.55 0.0506029
0.56 0.0841302
0.57 0.119353
0.58 0.155375
0.59 0.191221
0.6 0.225649
0.61 0.257688
0.62 0.286363
0.63 0.310762
0.64 0.330068
0.65 0.343583
0.66 0.350339
0.67 0.349956
0.68 0.342631
0.69 0.328394
0.7 0.307462
0.71 0.280234
0.72 0.247284
0.73 0.208865
0.74 0.166503
0.75 0.121202
0.76 0.0740211
0.77 0.0260571
0.78 -0.0215909
0.79 -0.0677298
0.8 -0.111176
0.81 -0.151147
0.82 -0.186885
0.83 -0.217774
0.84 -0.243361
0.85 -0.263364
0.86 -0.277094
0.87 -0.285168
0.88 -0.287944
0.89 -0.285848
0.9 -0.27944
0.91 -0.269387
0.92 -0.256357
0.93 -0.241196
0.94 -0.224952
0.95 -0.208447
0.96 -0.192463
0.97 -0.177721
0.98 -0.164854
0.99 -0.154655
1 -0.147396
1.01 -0.143264
1.02 -0.142371
1.03 -0.144702
1.04 -0.150115
1.05 -0.158424
1.06 -0.169366
1.07 -0.182241
1.08 -0.19654
1.09 -0.211725
1.1 -0.227244
1.11 -0.242558
1.12 -0.257063
1.13 -0.27029
1.14 -0.281897
1.15 -0.2916
1.16 -0.299202
1.17 -0.304604
1.18 -0.30776
1.19 -0.3086
1.2 -0.30753
1.21 -0.304805
1.22 -0.300734
1.23 -0.295664
1.24 -0.289964
1.25 -0.284017
1.26 -0.27824
1.27 -0.272963
1.28 -0.268464
1.29 -0.264965
1.3 -0.262619
1.31 -0.261521
1.32 -0.261808
1.33 -0.263264
1.34 -0.265748
1.35 -0.269065
1.36 -0.272973
1.37 -0.277197
1.38 -0.281426
1.39 -0.285319
1.4 -0.288594
1.41 -0.290999
1.42 -0.292321
1.43 -0.292397
1.44 -0.291125
1.45 -0.288314
1.46 -0.284155
1.47 -0.278768
1.48 -0.272325
1.49 -0.265053
1.5 -0.257222
1.51 -0.24914
1.52 -0.241177
1.53 -0.233676
1.54 -0.226946
1.55 -0.221272
1.56 -0.216896
1.57 -0.214008
1.58 -0.212907
1.59 -0.213508
1.6 -0.21575
1.61 -0.219528
1.62 -0.224662
1.63 -0.230911
1.64 -0.237991
1.65 -0.245525
1.66 -0.253067
1.67 -0.26022
1.68 -0.266587
1.69 -0.27179
1.7 -0.275478
1.71 -0.277165
1.72 -0.276702
1.73 -0.27398
1.74 -0.26892
1.75 -0.261519
1.76 -0.251857
1.77 -0.240042
1.78 -0.22622
1.79 -0.210888
1.8 -0.194405
1.81 -0.177163
1.82 -0.159576
1.83 -0.142066
1.84 -0.125111
1.85 -0.109123
1.86 -0.0944117
1.87 -0.0812544
1.88 -0.0698627
1.89 -0.0603767
1.9 -0.0528889
1.91 -0.0475459
1.92 -0.0440362
1.93 -0.0421823
1.94 -0.0417473
1.95 -0.0424456
1.96 -0.0439553
1.97 -0.0459398
1.98 -0.0479904
1.99 -0.049751
2 -0.0509141
2.01 -0.0512143
2.02 -0.0504397
2.03 -0.0484373
2.04 -0.0449864
2.05 -0.0402478
2.06 -0.0343172
2.07 -0.0273636
2.08 -0.0196243
2.09 -0.0113961
2.1 -0.00303924
2.11 0.00500045
2.12 0.0123118
2.13 0.0184877
2.14 0.023136
2.15 0.0258943
2.16 0.0264448
2.17 0.0242356
2.18 0.0193229
2.19 0.0116334
2.2 0.00115917
2.21 -0.0120225
2.22 -0.02775
2.23 -0.0458715
2.24 -0.0660686
2.25 -0.0877875
2.26 -0.11059
2.27 -0.134004
2.28 -0.157543
2.29 -0.18072
2.3 -0.202933
2.31 -0.223766
2.32 -0.242855
2.33 -0.259877
2.34 -0.274581
2.35 -0.286795
2.36 -0.296339
2.37 -0.303088
2.38 -0.307354
2.39 -0.309309
2.4 -0.309191
2.41 -0.307296
2.42 -0.303969
2.43 -0.299527
2.44 -0.294476
2.45 -0.289242
2.46 -0.284209
2.47 -0.27973
2.48 -0.276122
2.49 -0.273682
2.5 -0.272733
2.51 -0.27329
2.52 -0.275413
2.53 -0.279094
2.54 -0.28426
2.55 -0.290779
2.56 -0.298537
2.57 -0.307225
2.58 -0.316527
2.59 -0.326151
2.6 -0.335799
2.61 -0.345178
2.62 -0.353997
2.63 -0.361899
2.64 -0.368739
2.65 -0.37435
2.66 -0.378614
2.67 -0.381464
2.68 -0.382884
2.69 -0.382824
2.7 -0.381405
2.71 -0.378834
2.72 -0.375282
2.73 -0.370944
2.74 -0.366032
2.75 -0.360768
2.76 -0.355383
2.77 -0.350119
2.78 -0.345162
2.79 -0.340673
2.8 -0.336782
2.81 -0.33358
2.82 -0.331165
2.83 -0.329557
2.84 -0.328678
2.85 -0.328461
2.86 -0.328813
2.87 -0.329613
2.88 -0.330723
2.89 -0.331993
2.9 -0.333234
2.91 -0.334294
2.92 -0.335027
2.93 -0.335305
2.94 -0.335018
2.95 -0.334045
2.96 -0.332296
2.97 -0.329787
2.98 -0.326509
2.99 -0.322474
3 -0.317714
3.01 -0.312273
3.02 -0.306149
3.03 -0.299451
3.04 -0.292247
3.05 -0.284579
3.06 -0.276479
3.07 -0.267958
3.08 -0.258992
3.09 -0.249517
3.1 -0.239507
3.11 -0.228876
3.12 -0.217516
3.13 -0.205303
3.14 -0.192099
3.15 -0.17765
3.16 -0.161849
3.17 -0.144597
3.18 -0.125769
3.19 -0.105264
3.2 -0.0830074
3.21 -0.0589216
3.22 -0.0328756
3.23 -0.00509589
3.24 0.0243183
3.25 0.0552218
3.26 0.0874247
3.27 0.120694
3.28 0.154795
3.29 0.18935
3.3 0.223991
3.31 0.258362
3.32 0.2921
3.33 0.324844
3.34 0.356222
3.35 0.385693
3.36 0.413107
3.37 0.438194
3.38 0.460726
3.39 0.480518
3.4 0.497436
3.41 0.511204
3.42 0.521816
3.43 0.529458
3.44 0.534205
3.45 0.53617
3.46 0.535503
3.47 0.532385
3.48 0.526788
3.49 0.519213
3.5 0.509896
3.51 0.499072
3.52 0.486971
3.53 0.473814
3.54 0.459769
3.55 0.44504
3.56 0.429839
3.57 0.414299
3.58 0.398535
3.59 0.382634
3.6 0.366667
3.61 0.350688
3.62 0.334737
3.63 0.318839
3.64 0.303013
3.65 0.287277
3.66 0.271652
3.67 0.256173
3.68 0.240887
3.69 0.225837
3.7 0.211088
3.71 0.19672
3.72 0.182826
3.73 0.169513
3.74 0.156978
3.75 0.145315
3.76 0.134642
3.77 0.125093
3.78 0.116803
3.79 0.109898
3.8 0.104543
3.81 0.100948
3.82 0.0990612
3.83 0.0989458
3.84 0.100643
3.85 0.104171
3.86 0.109524
3.87 0.116819
3.88 0.125909
3.89 0.136656
3.9 0.148964
3.91 0.162724
3.92 0.177811
3.93 0.194111
3.94 0.211551
3.95 0.229869
3.96 0.24892
3.97 0.268558
3.98 0.288642
3.99 0.309037
4 0.329614
4.01 0.35023
4.02 0.370761
4.03 0.391096
4.04 0.411133
4.05 0.43077
4.06 0.449908
4.07 0.46838
4.08 0.486151
4.09 0.503128
4.1 0.519218
4.11 0.534328
4.12 0.548363
4.13 0.561152
4.14 0.572591
4.15 0.582656
4.16 0.591259
4.17 0.598317
4.18 0.603753
4.19 0.607503
4.2 0.609309
4.21 0.609317
4.22 0.607511
4.23 0.603883
4.24 0.598443
4.25 0.591216
4.26 0.582162
4.27 0.57132
4.28 0.558884
4.29 0.544943
4.3 0.529596
4.31 0.51295
4.32 0.495116
4.33 0.476109
4.34 0.456145
4.35 0.435346
4.36 0.413812
4.37 0.391633
4.38 0.368889
4.39 0.345631
4.4 0.321905
4.41 0.297789
4.42 0.273316
4.43 0.248507
4.44 0.223378
4.45 0.19794
4.46 0.172176
4.47 0.146119
4.48 0.119791
4.49 0.0932183
4.5 0.0664344
4.51 0.0394864
4.52 0.0124345
4.53 -0.0146356
4.54 -0.0416207
4.55 -0.0684118
4.56 -0.0948871
4.57 -0.120914
4.58 -0.146352
4.59 -0.170984
4.6 -0.194679
4.61 -0.217321
4.62 -0.23878
4.63 -0.258936
4.64 -0.277686
4.65 -0.294924
4.66 -0.310456
4.67 -0.324409
4.68 -0.336786
4.69 -0.347618
4.7 -0.356966
4.71 -0.364915
4.72 -0.371496
4.73 -0.376891
4.74 -0.381314
4.75 -0.384931
4.76 -0.387912
4.77 -0.390431
4.78 -0.392657
4.79 -0.394755
4.8 -0.396894
4.81 -0.399196
4.82 -0.401763
4.83 -0.404667
4.84 -0.407955
4.85 -0.411668
4.86 -0.41579
4.87 -0.420254
4.88 -0.424992
4.89 -0.429914
4.9 -0.434914
4.91 -0.439874
4.92 -0.444634
4.93 -0.449067
4.94 -0.453049
4.95 -0.45646
4.96 -0.459196
4.97 -0.461166
4.98 -0.462258
4.99 -0.462397
5 -0.461622
5.01 -0.459938
5.02 -0.45737
5.03 -0.453963
5.04 -0.449785
5.05 -0.444855
5.06 -0.439336
5.07 -0.433342
5.08 -0.426979
5.09 -0.420348
5.1 -0.41355
5.11 -0.406671
5.12 -0.399798
5.13 -0.392992
5.14 -0.386291
5.15 -0.379718
5.16 -0.373274
5.17 -0.366947
5.18 -0.360708
5.19 -0.354503
5.2 -0.348271
5.21 -0.341951
5.22 -0.335477
5.23 -0.328786
5.24 -0.321812
5.25 -0.314478
5.26 -0.306778
5.27 -0.298695
5.28 -0.29023
5.29 -0.281401
5.3 -0.272248
5.31 -0.262813
5.32 -0.253197
5.33 -0.243504
5.34 -0.233842
5.35 -0.224328
5.36 -0.215084
5.37 -0.20624
5.38 -0.197976
5.39 -0.190361
5.4 -0.183492
5.41 -0.177452
5.42 -0.172305
5.43 -0.168095
5.44 -0.164907
5.45 -0.162721
5.46 -0.161456
5.47 -0.161062
5.48 -0.161465
5.49 -0.162575
5.5 -0.16429
5.51 -0.166534
5.52 -0.169115
5.53 -0.171906
5.54 -0.174783
5.55 -0.177622
5.56 -0.180311
5.57 -0.182729
5.58 -0.184772
5.59 -0.186386
5.6 -0.187515
5.61 -0.188122
5.62 -0.188181
5.63 -0.187682
5.64 -0.186568
5.65 -0.184909
5.66 -0.182729
5.67 -0.180053
5.68 -0.176905
5.69 -0.17331
5.7 -0.169266
5.71 -0.164777
5.72 -0.159876
5.73 -0.154555
5.74 -0.148798
5.75 -0.142581
5.76 -0.13587
5.77 -0.128568
5.78 -0.120667
5.79 -0.11213
5.8 -0.102914
5.81 -0.0929761
5.82 -0.0822853
5.83 -0.0707929
5.84 -0.0584513
5.85 -0.0453372
5.86 -0.0314796
5.87 -0.0169265
5.88 -0.00174446
5.89 0.0139811
5.9 0.0301751
5.91 0.0466776
5.92 0.0633411
5.93 0.0800224
5.94 0.0965731
5.95 0.112844
5.96 0.128674
5.97 0.143866
5.98 0.158338
5.99 0.171981
6 0.184702
6.01 0.196434
6.02 0.207128
6.03 0.216682
6.04 0.225136
6.05 0.232566
6.06 0.239023
6.07 0.244578
6.08 0.249317
6.09 0.25333
6.1 0.256679
6.11 0.259547
6.12 0.26204
6.13 0.264258
6.14 0.266292
6.15 0.268215
6.16 0.270084
6.17 0.27194
6.18 0.273795
6.19 0.275636
6.2 0.27743
6.21 0.279123
6.22 0.280639
6.23 0.281848
6.24 0.282666
6.25 0.28298
6.26 0.282675
6.27 0.281635
6.28 0.279752
6.29 0.276869
6.3 0.272879
6.31 0.26778
6.32 0.261526
6.33 0.254098
6.34 0.245497
6.35 0.235749
6.36 0.224795
6.37 0.21282
6.38 0.199932
6.39 0.186242
6.4 0.171874
6.41 0.156961
6.42 0.141629
6.43 0.126026
6.44 0.110312
6.45 0.0946115
6.46 0.079035
6.47 0.0636789
6.48 0.0486225
6.49 0.033964
6.5 0.0197192
6.51 0.00589547
6.52 -0.00751034
6.53 -0.0205184
6.54 -0.033164
6.55 -0.0454867
6.56 -0.0575373
6.57 -0.0694056
6.58 -0.081156
6.59 -0.0928503
6.6 -0.104545
6.61 -0.116287
6.62 -0.128121
6.63 -0.140064
6.64 -0.152117
6.65 -0.164264
6.66 -0.176474
6.67 -0.188699
6.68 -0.200875
6.69 -0.212903
6.7 -0.2247
6.71 -0.236167
6.72 -0.2472
6.73 -0.257694
6.74 -0.267543
6.75 -0.276584
6.76 -0.284733
6.77 -0.291938
6.78 -0.298128
6.79 -0.303243
6.8 -0.307237
6.81 -0.310068
6.82 -0.311598
6.83 -0.31195
6.84 -0.311132
6.85 -0.309164
6.86 -0.306068
6.87 -0.301877
6.88 -0.29656
6.89 -0.290163
6.9 -0.282776
6.91 -0.274428
6.92 -0.265141
6.93 -0.25493
6.94 -0.243805
6.95 -0.231661
6.96 -0.21859
6.97 -0.204581
6.98 -0.189613
6.99 -0.173662
7 -0.156702
7.01 -0.138656
7.02 -0.119482
7.03 -0.0992352
7.04 -0.0779088
7.05 -0.0555083
7.06 -0.0320511
7.07 -0.00756893
7.08 0.0179853
7.09 0.0444508
7.1 0.0717299
7.11 0.0997222
7.12 0.128312
7.13 0.157371
7.14 0.186764
7.15 0.216325
7.16 0.245872
7.17 0.27524
7.18 0.304267
7.19 0.332791
7.2 0.360654
7.21 0.38762
7.22 0.413588
7.23 0.438454
7.24 0.462108
7.25 0.484452
7.26 0.505406
7.27 0.524861
7.28 0.542668
7.29 0.558926
7.3 0.573613
7.31 0.586719
7.32 0.598244
7.33 0.608192
7.34 0.616451
7.35 0.623107
7.36 0.62823
7.37 0.631837
7.38 0.633937
7.39 0.63454
7.4 0.633624
7.41 0.631062
7.42 0.626998
7.43 0.621422
7.44 0.614319
7.45 0.605676
7.46 0.595476
7.47 0.583598
7.48 0.570066
7.49 0.554956
7.5 0.538274
7.51 0.520039
7.52 0.500283
7.53 0.479044
7.54 0.456243
7.55 0.432125
7.56 0.406791
7.57 0.380357
7.58 0.352956
7.59 0.324737
7.6 0.295835
7.61 0.266455
7.62 0.23682
7.63 0.207125
7.64 0.177568
7.65 0.148347
7.66 0.119661
7.67 0.0918001
7.68 0.0648867
7.69 0.039084
7.7 0.0145444
7.71 -0.00859721
7.72 -0.0302249
7.73 -0.0501635
7.74 -0.0682967
7.75 -0.0846935
7.76 -0.0993336
7.77 -0.112219
7.78 -0.123373
7.79 -0.132841
7.8 -0.140531
7.81 -0.146669
7.82 -0.151382
7.83 -0.154777
7.84 -0.156972
7.85 -0.158089
7.86 -0.158223
7.87 -0.157479
7.88 -0.156054
7.89 -0.154062
7.9 -0.151608
7.91 -0.14879
7.92 -0.145692
7.93 -0.142373
7.94 -0.138911
7.95 -0.135351
7.96 -0.131723
7.97 -0.128042
7.98 -0.124313
7.99 -0.120528
8 -0.116665
8.01 -0.112706
8.02 -0.108624
8.03 -0.10439
8.04 -0.0999739
8.05 -0.09535
8.06 -0.0904753
8.07 -0.0853412
8.08 -0.0799496
8.09 -0.0743025
8.1 -0.0684117
8.11 -0.0622993
8.12 -0.0559957
8.13 -0.0495372
8.14 -0.0429969
8.15 -0.0364371
8.16 -0.0299264
8.17 -0.0235383
8.18 -0.0173484
8.19 -0.0114571
8.2 -0.00594423
8.21 -0.000864473
8.22 0.00372026
8.23 0.00775704
8.24 0.0112037
8.25 0.0140282
8.26 0.0161435
8.27 0.0176226
8.28 0.0184817
8.29 0.0187514
8.3 0.0184757
8.31 0.0177113
8.32 0.016506
8.33 0.0149475
8.34 0.0131449
8.35 0.0111852
8.36 0.00915642
8.37 0.00714394
8.38 0.00522824
8.39 0.00350756
8.4 0.00203111
8.41 0.000843904
8.42 -2.22675e-05
8.43 -0.000551425
8.44 -0.000744135
8.45 -0.000604928
8.46 -0.000167457
8.47 0.000492049
8.48 0.00130626
8.49 0.00219606
8.5 0.00307292
8.51 0.00384154
8.52 0.00437238
8.53 0.00457118
8.54 0.0043458
8.55 0.00360629
8.56 0.00227185
8.57 0.000273278
8.58 -0.00247082
8.59 -0.00604024
8.6 -0.0103927
8.61 -0.0155284
8.62 -0.0214303
8.63 -0.028064
8.64 -0.0353795
8.65 -0.043359
8.66 -0.0518792
8.67 -0.0608331
8.68 -0.070126
8.69 -0.0796595
8.7 -0.0893351
8.71 -0.0990557
8.72 -0.108717
8.73 -0.118235
8.74 -0.127542
8.75 -0.13658
8.76 -0.145305
8.77 -0.153688
8.78 -0.161685
8.79 -0.169309
8.8 -0.176589
8.81 -0.183548
8.82 -0.190221
8.83 -0.196647
8.84 -0.202868
8.85 -0.208919
8.86 -0.214864
8.87 -0.220742
8.88 -0.226585
8.89 -0.232416
8.9 -0.238249
8.91 -0.244084
8.92 -0.249909
8.93 -0.255699
8.94 -0.261417
8.95 -0.267017
8.96 -0.272443
8.97 -0.277634
8.98 -0.282481
8.99 -0.286944
9 -0.290957
9.01 -0.294456
9.02 -0.297387
9.03 -0.299702
9.04 -0.301331
9.05 -0.302241
9.06 -0.302471
9.07 -0.302029
9.08 -0.300943
9.09 -0.29925
9.1 -0.297003
9.11 -0.294223
9.12 -0.29104
9.13 -0.287541
9.14 -0.283815
9.15 -0.279947
9.16 -0.276024
9.17 -0.272132
9.18 -0.268357
9.19 -0.264756
9.2 -0.261378
9.21 -0.258257
9.22 -0.255414
9.23 -0.252852
9.24 -0.250587
9.25 -0.248569
9.26 -0.246751
9.27 -0.245085
9.28 -0.243512
9.29 -0.241969
9.3 -0.240386
9.31 -0.238686
9.32 -0.23681
9.33 -0.234706
9.34 -0.23233
9.35 -0.229648
9.36 -0.22664
9.37 -0.223272
9.38 -0.219575
9.39 -0.215583
9.4 -0.211337
9.41 -0.206888
9.42 -0.202296
9.43 -0.19763
9.44 -0.19297
9.45 -0.188396
9.46 -0.183979
9.47 -0.179783
9.48 -0.175864
9.49 -0.172264
9.5 -0.169041
9.51 -0.166195
9.52 -0.163701
9.53 -0.16153
9.54 -0.159634
9.55 -0.157948
9.56 -0.156389
9.57 -0.15485
9.58 -0.153206
9.59 -0.151337
9.6 -0.149115
9.61 -0.146414
9.62 -0.143108
9.63 -0.139026
9.64 -0.13405
9.65 -0.128128
9.66 -0.121184
9.67 -0.113163
9.68 -0.104028
9.69 -0.0937655
9.7 -0.0822587
9.71 -0.0696725
9.72 -0.0560656
9.73 -0.0415142
9.74 -0.0261108
9.75 -0.00996204
9.76 0.00684013
9.77 0.0241584
9.78 0.0418236
9.79 0.0597073
9.8 0.0776848
9.81 0.0956387
9.82 0.113461
9.83 0.131024
9.84 0.148262
9.85 0.165114
9.86 0.181535
9.87 0.197495
9.88 0.212977
9.89 0.227962
9.9 0.242445
9.91 0.256487
9.92 0.270116
9.93 0.283366
9.94 0.296272
9.95 0.308867
9.96 0.321158
9.97 0.33319
9.98 0.344981
9.99 0.356535
10 0.367844
10.01 0.378889
10.02 0.389631
10.03 0.400001
10.04 0.409975
10.05 0.419492
10.06 0.428488
10.07 0.436894
10.08 0.444643
10.09 0.451604
10.1 0.457745
10.11 0.46304
10.12 0.467448
10.13 0.470944
10.14 0.473511
10.15 0.475137
10.16 0.475768
10.17 0.475535
10.18 0.474489
10.19 0.4727
10.2 0.470246
10.21 0.467219
10.22 0.463692
10.23 0.459799
10.24 0.45567
10.25 0.451414
10.26 0.447135
10.27 0.442933
10.28 0.438898
10.29 0.435144
10.3 0.43171
10.31 0.428644
10.32 0.425973
10.33 0.423711
10.34 0.421853
10.35 0.420397
10.36 0.419296
10.37 0.418471
10.38 0.417853
10.39 0.417361
10.4 0.416906
10.41 0.416392
10.42 0.41569
10.43 0.414706
10.44 0.413341
10.45 0.411499
10.46 0.409091
10.47 0.406033
10.48 0.402213
10.49 0.397546
10.5 0.392034
10.51 0.385639
10.52 0.378338
10.53 0.370118
10.54 0.360979
10.55 0.350842
10.56 0.33981
10.57 0.327931
10.58 0.315245
10.59 0.301801
10.6 0.287651
10.61 0.272831
10.62 0.257388
10.63 0.241434
10.64 0.225036
10.65 0.208257
10.66 0.191161
10.67 0.17381
10.68 0.156252
10.69 0.138564
10.7 0.120804
10.71 0.103023
10.72 0.0852681
10.73 0.0675836
10.74 0.0500134
10.75 0.0326075
10.76 0.015387
10.77 -0.00162046
10.78 -0.0183908
10.79 -0.0349039
10.8 -0.0511436
10.81 -0.0670737
10.82 -0.0826973
10.83 -0.0980209
10.84 -0.113044
10.85 -0.12777
10.86 -0.142205
10.87 -0.156352
10.88 -0.170203
10.89 -0.183799
10.9 -0.197155
10.91 -0.210289
10.92 -0.223215
10.93 -0.235951
10.94 -0.248499
10.95 -0.26088
10.96 -0.273111
10.97 -0.2852
10.98 -0.297151
10.99 -0.308963
11 -0.320632
11.01 -0.332131
11.02 -0.34346
11.03 -0.3546
11.04 -0.365527
11.05 -0.376212
11.06 -0.386624
11.07 -0.396705
11.08 -0.406412
11.09 -0.415721
11.1 -0.424591
11.11 -0.432978
11.12 -0.440841
11.13 -0.448137
11.14 -0.454755
11.15 -0.460719
11.16 -0.465998
11.17 -0.470562
11.18 -0.474384
11.19 -0.477443
11.2 -0.479682
11.21 -0.481067
11.22 -0.481645
11.23 -0.481411
11.24 -0.480365
11.25 -0.47851
11.26 -0.475851
11.27 -0.47232
11.28 -0.467994
11.29 -0.462903
11.3 -0.457063
11.31 -0.450491
11.32 -0.443207
11.33 -0.435207
11.34 -0.426485
11.35 -0.417121
11.36 -0.407138
11.37 -0.396561
11.38 -0.385417
11.39 -0.373733
11.4 -0.361496
11.41 -0.348771
11.42 -0.335605
11.43 -0.322032
11.44 -0.308088
11.45 -0.293811
11.46 -0.279234
11.47 -0.264386
11.48 -0.249338
11.49 -0.234132
11.5 -0.218814
11.51 -0.203429
11.52 -0.188023
11.53 -0.172647
11.54 -0.157351
11.55 -0.14218
11.56 -0.127175
11.57 -0.112379
11.58 -0.097831
11.59 -0.0835745
11.6 -0.0696783
11.61 -0.0561449
11.62 -0.0430046
11.63 -0.0302855
11.64 -0.018013
11.65 -0.00620971
11.66 0.00507039
11.67 0.0158149
11.68 0.0260345
11.69 0.0357173
11.7 0.0448539
11.71 0.0534375
11.72 0.0614627
11.73 0.068865
11.74 0.0757105
11.75 0.0820038
11.76 0.0877527
11.77 0.0929676
11.78 0.0976624
11.79 0.101827
11.8 0.105481
11.81 0.10868
11.82 0.111448
11.83 0.113816
11.84 0.115813
11.85 0.117471
11.86 0.118794
11.87 0.11985
11.88 0.120674
11.89 0.121298
11.9 0.121751
11.91 0.12206
11.92 0.122241
11.93 0.122311
11.94 0.122288
11.95 0.122175
11.96 0.121968
11.97 0.121655
11.98 0.121217
11.99 0.120608
12 0.119797
12.01 0.118744
12.02 0.117396
12.03 0.115697
12.04 0.113585
12.05 0.110975
12.06 0.107764
12.07 0.103925
12.08 0.0993923
12.09 0.0941051
12.1 0.0880067
12.11 0.0810477
12.12 0.0731077
12.13 0.0642039
12.14 0.0543494
12.15 0.0435417
12.16 0.0317922
12.17 0.0191266
12.18 0.00556674
