# xPDFsuite Configuration #
[PDF]
wavelength = 0.1
dataformat = QA
inputfile = BiMsol6_insitu_700 C-00561.xy
backgroundfile = Quartz2mm-dist500-00000.xy
mode = xray
bgscale = 0.0042
composition = Bi2Fe4O9
outputtype = gr
qmaxinst = 24.998449118
qmin = 0.1
qmax = 21.4986662415
rmax = 80.0
rmin = 0.0
rstep = 0.01
rpoly = 0.9

[Misc]
inputdir = C:/Data/Seafile/CPH/Beamtime/Desy Oct 20/In situ data/Processed/BiMsol6/PDF
savedir = C:/Data/Seafile/CPH/Beamtime/Desy Oct 20/In situ data/PDF/BiMsol6
backgroundfilefull = C:/Data/Seafile/CPH/Beamtime/Desy Oct 20/In situ data/Processed/Standard_Empty_Cap/Quartz2mm-dist500-00000.xy

#### start data
#S 1
#L r($\AA$)  G($\AA^{-2}$)
0 0
0.01 0.00568429
0.02 0.0110444
0.03 0.0158028
0.04 0.0197106
0.05 0.0225589
0.06 0.0241887
0.07 0.0244259
0.08 0.0232203
0.09 0.0207005
0.1 0.0169727
0.11 0.0122013
0.12 0.00660168
0.13 0.00043076
0.14 -0.00602223
0.15 -0.0123945
0.16 -0.0183796
0.17 -0.0236904
0.18 -0.0280696
0.19 -0.0313025
0.2 -0.0331691
0.21 -0.0335198
0.22 -0.0324444
0.23 -0.0300048
0.24 -0.026333
0.25 -0.0216274
0.26 -0.0161451
0.27 -0.0101802
0.28 -0.00415168
0.29 0.00156703
0.3 0.00661317
0.31 0.0106422
0.32 0.0133447
0.33 0.0144074
0.34 0.0135242
0.35 0.0107459
0.36 0.00607269
0.37 -0.00039994
0.38 -0.00848018
0.39 -0.0178824
0.4 -0.028274
0.41 -0.0390875
0.42 -0.0497657
0.43 -0.0597405
0.44 -0.0684243
0.45 -0.0752308
0.46 -0.0795386
0.47 -0.0805458
0.48 -0.0780773
0.49 -0.0718057
0.5 -0.0615153
0.51 -0.0471153
0.52 -0.0286497
0.53 -0.00604458
0.54 0.0201975
0.55 0.0494098
0.56 0.0809747
0.57 0.114167
0.58 0.148175
0.59 0.18211
0.6 0.214845
0.61 0.245477
0.62 0.273106
0.63 0.29688
0.64 0.316034
0.65 0.329902
0.66 0.337564
0.67 0.338631
0.68 0.333244
0.69 0.321387
0.7 0.303214
0.71 0.279047
0.72 0.249368
0.73 0.21433
0.74 0.175327
0.75 0.133255
0.76 0.0890635
0.77 0.0437492
0.78 -0.00168076
0.79 -0.0461403
0.8 -0.0885231
0.81 -0.128051
0.82 -0.163982
0.83 -0.195696
0.84 -0.222715
0.85 -0.244709
0.86 -0.260966
0.87 -0.271967
0.88 -0.277961
0.89 -0.279265
0.9 -0.276324
0.91 -0.269686
0.92 -0.259898
0.93 -0.24767
0.94 -0.23397
0.95 -0.219541
0.96 -0.205103
0.97 -0.191332
0.98 -0.178842
0.99 -0.168368
1 -0.160251
1.01 -0.154737
1.02 -0.152003
1.03 -0.152113
1.04 -0.155015
1.05 -0.160623
1.06 -0.168788
1.07 -0.17893
1.08 -0.190643
1.09 -0.203481
1.1 -0.216977
1.11 -0.23066
1.12 -0.244018
1.13 -0.256597
1.14 -0.268048
1.15 -0.278079
1.16 -0.286466
1.17 -0.293063
1.18 -0.297771
1.19 -0.30046
1.2 -0.301417
1.21 -0.300811
1.22 -0.298859
1.23 -0.295823
1.24 -0.291989
1.25 -0.287648
1.26 -0.283151
1.27 -0.278801
1.28 -0.274848
1.29 -0.271502
1.3 -0.268925
1.31 -0.267233
1.32 -0.266572
1.33 -0.266823
1.34 -0.267908
1.35 -0.269705
1.36 -0.272048
1.37 -0.274741
1.38 -0.277558
1.39 -0.280235
1.4 -0.282544
1.41 -0.284278
1.42 -0.285256
1.43 -0.285336
1.44 -0.284416
1.45 -0.282329
1.46 -0.279198
1.47 -0.275095
1.48 -0.27014
1.49 -0.264493
1.5 -0.258357
1.51 -0.251962
1.52 -0.245598
1.53 -0.239538
1.54 -0.234034
1.55 -0.229322
1.56 -0.225605
1.57 -0.223051
1.58 -0.221915
1.59 -0.22215
1.6 -0.223726
1.61 -0.226575
1.62 -0.230567
1.63 -0.235522
1.64 -0.241222
1.65 -0.247371
1.66 -0.253601
1.67 -0.259584
1.68 -0.264986
1.69 -0.269483
1.7 -0.272768
1.71 -0.274412
1.72 -0.274261
1.73 -0.272192
1.74 -0.268101
1.75 -0.261952
1.76 -0.253772
1.77 -0.243611
1.78 -0.231538
1.79 -0.217957
1.8 -0.203146
1.81 -0.187417
1.82 -0.171109
1.83 -0.154576
1.84 -0.13821
1.85 -0.122391
1.86 -0.10742
1.87 -0.0935721
1.88 -0.0810714
1.89 -0.0700902
1.9 -0.0607661
1.91 -0.0532962
1.92 -0.0474834
1.93 -0.0432408
1.94 -0.0404281
1.95 -0.0388582
1.96 -0.0383066
1.97 -0.0385545
1.98 -0.0392802
1.99 -0.0401775
2 -0.040988
2.01 -0.0414762
2.02 -0.0414398
2.03 -0.0407159
2.04 -0.0391
2.05 -0.0366334
2.06 -0.0333345
2.07 -0.0292799
2.08 -0.0246017
2.09 -0.0194827
2.1 -0.0141542
2.11 -0.00892461
2.12 -0.0040984
2.13 1.97202e-05
2.14 0.00312594
2.15 0.00492926
2.16 0.00516298
2.17 0.00337757
2.18 -0.000438097
2.19 -0.00638806
2.2 -0.0145297
2.21 -0.0248567
2.22 -0.0372982
2.23 -0.0518006
2.24 -0.0681789
2.25 -0.0860307
2.26 -0.105049
2.27 -0.124894
2.28 -0.145199
2.29 -0.165587
2.3 -0.185615
2.31 -0.204902
2.32 -0.223121
2.33 -0.239973
2.34 -0.255205
2.35 -0.268614
2.36 -0.279988
2.37 -0.289141
2.38 -0.296234
2.39 -0.301324
2.4 -0.304525
2.41 -0.306002
2.42 -0.305965
2.43 -0.304573
2.44 -0.302211
2.45 -0.299206
2.46 -0.295854
2.47 -0.292446
2.48 -0.289254
2.49 -0.286543
2.5 -0.284602
2.51 -0.283549
2.52 -0.283507
2.53 -0.284551
2.54 -0.286712
2.55 -0.289973
2.56 -0.294345
2.57 -0.299672
2.58 -0.305772
2.59 -0.312475
2.6 -0.319597
2.61 -0.326941
2.62 -0.334303
2.63 -0.341448
2.64 -0.348195
2.65 -0.35438
2.66 -0.359865
2.67 -0.364536
2.68 -0.36831
2.69 -0.371073
2.7 -0.372817
2.71 -0.373611
2.72 -0.3735
2.73 -0.372553
2.74 -0.370859
2.75 -0.368522
2.76 -0.365611
2.77 -0.36232
2.78 -0.358769
2.79 -0.355074
2.8 -0.351342
2.81 -0.347667
2.82 -0.344139
2.83 -0.34083
2.84 -0.337769
2.85 -0.334978
2.86 -0.332462
2.87 -0.330208
2.88 -0.328192
2.89 -0.32639
2.9 -0.324731
2.91 -0.323156
2.92 -0.321607
2.93 -0.320024
2.94 -0.318347
2.95 -0.316508
2.96 -0.314442
2.97 -0.31211
2.98 -0.309468
2.99 -0.306474
3 -0.303089
3.01 -0.299277
3.02 -0.294951
3.03 -0.290102
3.04 -0.284697
3.05 -0.278686
3.06 -0.272017
3.07 -0.264626
3.08 -0.25642
3.09 -0.247265
3.1 -0.237148
3.11 -0.225984
3.12 -0.213684
3.13 -0.200164
3.14 -0.185341
3.15 -0.169017
3.16 -0.151197
3.17 -0.13188
3.18 -0.111041
3.19 -0.0886763
3.2 -0.0648081
3.21 -0.0394558
3.22 -0.0126059
3.23 0.0154888
3.24 0.0446858
3.25 0.0748152
3.26 0.105681
3.27 0.137066
3.28 0.168735
3.29 0.200388
3.3 0.231753
3.31 0.26256
3.32 0.292545
3.33 0.321447
3.34 0.349005
3.35 0.37481
3.36 0.398808
3.37 0.420823
3.38 0.440706
3.39 0.458342
3.4 0.473644
3.41 0.48641
3.42 0.49664
3.43 0.504484
3.44 0.509985
3.45 0.513217
3.46 0.514271
3.47 0.513259
3.48 0.510099
3.49 0.505164
3.5 0.498601
3.51 0.490559
3.52 0.481184
3.53 0.470622
3.54 0.458965
3.55 0.44635
3.56 0.432966
3.57 0.418928
3.58 0.404341
3.59 0.389302
3.6 0.373903
3.61 0.358209
3.62 0.342336
3.63 0.326367
3.64 0.310382
3.65 0.294461
3.66 0.278689
3.67 0.263166
3.68 0.248008
3.69 0.233293
3.7 0.219122
3.71 0.205599
3.72 0.192828
3.73 0.180918
3.74 0.170073
3.75 0.16034
3.76 0.151792
3.77 0.144519
3.78 0.138599
3.79 0.1341
3.8 0.131124
3.81 0.129803
3.82 0.13003
3.83 0.131812
3.84 0.135139
3.85 0.139987
3.86 0.146318
3.87 0.154191
3.88 0.163464
3.89 0.174008
3.9 0.185737
3.91 0.198556
3.92 0.212365
3.93 0.227076
3.94 0.242631
3.95 0.258839
3.96 0.275594
3.97 0.292789
3.98 0.310322
3.99 0.32809
4 0.345996
4.01 0.363923
4.02 0.381768
4.03 0.399435
4.04 0.416828
4.05 0.433848
4.06 0.450396
4.07 0.466301
4.08 0.481518
4.09 0.495948
4.1 0.50949
4.11 0.522046
4.12 0.533517
4.13 0.543735
4.14 0.552599
4.15 0.560097
4.16 0.566156
4.17 0.570711
4.18 0.57371
4.19 0.575114
4.2 0.574711
4.21 0.572667
4.22 0.568995
4.23 0.563716
4.24 0.556864
4.25 0.548487
4.26 0.538576
4.27 0.527186
4.28 0.514495
4.29 0.500588
4.3 0.485552
4.31 0.469476
4.32 0.452447
4.33 0.434468
4.34 0.415698
4.35 0.396218
4.36 0.37609
4.37 0.355362
4.38 0.334077
4.39 0.312249
4.4 0.289884
4.41 0.26704
4.42 0.243731
4.43 0.219966
4.44 0.195756
4.45 0.171115
4.46 0.146026
4.47 0.120545
4.48 0.0947224
4.49 0.0686062
4.5 0.042259
4.51 0.0157562
4.52 -0.0108123
4.53 -0.0373273
4.54 -0.0636681
4.55 -0.0897086
4.56 -0.115316
4.57 -0.140353
4.58 -0.164682
4.59 -0.188088
4.6 -0.210461
4.61 -0.231717
4.62 -0.251751
4.63 -0.270477
4.64 -0.287826
4.65 -0.30373
4.66 -0.318041
4.67 -0.330911
4.68 -0.34237
4.69 -0.352471
4.7 -0.361288
4.71 -0.368913
4.72 -0.375388
4.73 -0.380877
4.74 -0.385563
4.75 -0.389581
4.76 -0.393067
4.77 -0.396151
4.78 -0.398958
4.79 -0.401593
4.8 -0.404178
4.81 -0.40679
4.82 -0.409486
4.83 -0.412306
4.84 -0.415268
4.85 -0.41838
4.86 -0.42162
4.87 -0.424941
4.88 -0.428294
4.89 -0.431619
4.9 -0.434852
4.91 -0.437922
4.92 -0.440726
4.93 -0.443219
4.94 -0.445341
4.95 -0.447045
4.96 -0.448292
4.97 -0.449053
4.98 -0.449292
4.99 -0.448995
5 -0.448211
5.01 -0.446962
5.02 -0.445281
5.03 -0.443203
5.04 -0.440771
5.05 -0.438
5.06 -0.43496
5.07 -0.43169
5.08 -0.42822
5.09 -0.424567
5.1 -0.420741
5.11 -0.416732
5.12 -0.412514
5.13 -0.408074
5.14 -0.403373
5.15 -0.398366
5.16 -0.393001
5.17 -0.387224
5.18 -0.380934
5.19 -0.374101
5.2 -0.366694
5.21 -0.358681
5.22 -0.350039
5.23 -0.340763
5.24 -0.330849
5.25 -0.320293
5.26 -0.309204
5.27 -0.297655
5.28 -0.285735
5.29 -0.27355
5.3 -0.261218
5.31 -0.248877
5.32 -0.236684
5.33 -0.224776
5.34 -0.21329
5.35 -0.202357
5.36 -0.192097
5.37 -0.182627
5.38 -0.174122
5.39 -0.166562
5.4 -0.159987
5.41 -0.154413
5.42 -0.14983
5.43 -0.146209
5.44 -0.143548
5.45 -0.141747
5.46 -0.140662
5.47 -0.140186
5.48 -0.140198
5.49 -0.140576
5.5 -0.141194
5.51 -0.141931
5.52 -0.14265
5.53 -0.14325
5.54 -0.143645
5.55 -0.143766
5.56 -0.143562
5.57 -0.142979
5.58 -0.142
5.59 -0.140659
5.6 -0.138977
5.61 -0.136992
5.62 -0.13475
5.63 -0.132304
5.64 -0.129701
5.65 -0.127015
5.66 -0.124293
5.67 -0.121576
5.68 -0.118888
5.69 -0.116242
5.7 -0.113633
5.71 -0.111033
5.72 -0.108396
5.73 -0.105659
5.74 -0.102747
5.75 -0.0995721
5.76 -0.0960357
5.77 -0.0919797
5.78 -0.0873241
5.79 -0.0819785
5.8 -0.0758517
5.81 -0.0688654
5.82 -0.0609581
5.83 -0.0520562
5.84 -0.0420925
5.85 -0.0311626
5.86 -0.0193073
5.87 -0.00659365
5.88 0.00688557
5.89 0.0210141
5.9 0.0356852
5.91 0.0506944
5.92 0.0658561
5.93 0.0809936
5.94 0.0959283
5.95 0.110486
5.96 0.124484
5.97 0.137705
5.98 0.150075
5.99 0.161491
6 0.171876
6.01 0.181183
6.02 0.189393
6.03 0.196439
6.04 0.202406
6.05 0.207416
6.06 0.211562
6.07 0.214961
6.08 0.217742
6.09 0.220038
6.1 0.221977
6.11 0.223744
6.12 0.225466
6.13 0.22726
6.14 0.229219
6.15 0.231417
6.16 0.233922
6.17 0.236748
6.18 0.239863
6.19 0.243221
6.2 0.246751
6.21 0.250355
6.22 0.253916
6.23 0.257258
6.24 0.260238
6.25 0.262698
6.26 0.264482
6.27 0.265434
6.28 0.265414
6.29 0.264229
6.3 0.261746
6.31 0.257958
6.32 0.252819
6.33 0.246308
6.34 0.238434
6.35 0.22924
6.36 0.218672
6.37 0.20696
6.38 0.194243
6.39 0.180667
6.4 0.166391
6.41 0.151583
6.42 0.13641
6.43 0.121062
6.44 0.105729
6.45 0.0905613
6.46 0.0756957
6.47 0.0612484
6.48 0.0473131
6.49 0.0340187
6.5 0.0213674
6.51 0.00935724
6.52 -0.00202497
6.53 -0.0128151
6.54 -0.0230693
6.55 -0.0328491
6.56 -0.0422329
6.57 -0.0513566
6.58 -0.0603207
6.59 -0.0692247
6.6 -0.078163
6.61 -0.0872207
6.62 -0.096491
6.63 -0.106025
6.64 -0.115848
6.65 -0.125973
6.66 -0.136389
6.67 -0.147068
6.68 -0.157959
6.69 -0.168992
6.7 -0.180055
6.71 -0.191042
6.72 -0.201834
6.73 -0.212308
6.74 -0.222333
6.75 -0.23173
6.76 -0.240371
6.77 -0.248165
6.78 -0.255003
6.79 -0.260791
6.8 -0.265447
6.81 -0.268896
6.82 -0.270961
6.83 -0.271746
6.84 -0.27124
6.85 -0.269449
6.86 -0.266392
6.87 -0.2621
6.88 -0.256545
6.89 -0.249793
6.9 -0.241965
6.91 -0.233122
6.92 -0.22332
6.93 -0.212619
6.94 -0.201071
6.95 -0.188639
6.96 -0.175455
6.97 -0.161554
6.98 -0.146962
6.99 -0.131697
7 -0.11577
7.01 -0.0991538
7.02 -0.0818395
7.03 -0.0638688
7.04 -0.0452394
7.05 -0.0259502
7.06 -0.00600351
7.07 0.0145937
7.08 0.0358911
7.09 0.057806
7.1 0.0802954
7.11 0.103315
7.12 0.126808
7.13 0.15071
7.14 0.17495
7.15 0.199435
7.16 0.22404
7.17 0.248655
7.18 0.273165
7.19 0.297449
7.2 0.321382
7.21 0.344782
7.22 0.367542
7.23 0.38955
7.24 0.41069
7.25 0.43085
7.26 0.449925
7.27 0.467784
7.28 0.484254
7.29 0.49937
7.3 0.51307
7.31 0.525303
7.32 0.536028
7.33 0.545217
7.34 0.552721
7.35 0.558599
7.36 0.562905
7.37 0.565645
7.38 0.566829
7.39 0.566471
7.4 0.564565
7.41 0.561009
7.42 0.555978
7.43 0.549496
7.44 0.541588
7.45 0.532278
7.46 0.521592
7.47 0.509464
7.48 0.495956
7.49 0.48116
7.5 0.465109
7.51 0.447838
7.52 0.429387
7.53 0.409796
7.54 0.389009
7.55 0.367213
7.56 0.344479
7.57 0.320886
7.58 0.296524
7.59 0.271492
7.6 0.245873
7.61 0.219809
7.62 0.193461
7.63 0.16697
7.64 0.140482
7.65 0.11415
7.66 0.0881298
7.67 0.0626507
7.68 0.0378359
7.69 0.0138377
7.7 -0.0091946
7.71 -0.0311196
7.72 -0.0518061
7.73 -0.0710656
7.74 -0.0887497
7.75 -0.104872
7.76 -0.119368
7.77 -0.132195
7.78 -0.14333
7.79 -0.152771
7.8 -0.160373
7.81 -0.166325
7.82 -0.170721
7.83 -0.173642
7.84 -0.175186
7.85 -0.175468
7.86 -0.174573
7.87 -0.172608
7.88 -0.169801
7.89 -0.166292
7.9 -0.162217
7.91 -0.157711
7.92 -0.152897
7.93 -0.147884
7.94 -0.142796
7.95 -0.137722
7.96 -0.132732
7.97 -0.127878
7.98 -0.123195
7.99 -0.118707
8 -0.11443
8.01 -0.110331
8.02 -0.106383
8.03 -0.10255
8.04 -0.0987901
8.05 -0.0950534
8.06 -0.0912845
8.07 -0.0874295
8.08 -0.0834459
8.09 -0.0792971
8.1 -0.0749553
8.11 -0.0704039
8.12 -0.0656354
8.13 -0.060643
8.14 -0.0554746
8.15 -0.0501688
8.16 -0.0447766
8.17 -0.0393595
8.18 -0.0339878
8.19 -0.0287524
8.2 -0.0237438
8.21 -0.0190371
8.22 -0.0147109
8.23 -0.0108381
8.24 -0.00748307
8.25 -0.00470096
8.26 -0.00260154
8.27 -0.00113838
8.28 -0.000313936
8.29 -0.000112947
8.3 -0.000502387
8.31 -0.00143203
8.32 -0.00285756
8.33 -0.00468563
8.34 -0.00679289
8.35 -0.0090758
8.36 -0.0114258
8.37 -0.0137328
8.38 -0.0158886
8.39 -0.0177528
8.4 -0.0192506
8.41 -0.0203074
8.42 -0.0208622
8.43 -0.0208727
8.44 -0.0203162
8.45 -0.0191669
8.46 -0.0174366
8.47 -0.0152134
8.48 -0.0125645
8.49 -0.00957503
8.5 -0.00634578
8.51 -0.00299018
8.52 0.000356511
8.53 0.00355085
8.54 0.00646333
8.55 0.00896766
8.56 0.0109448
8.57 0.0122864
8.58 0.0128705
8.59 0.0125724
8.6 0.0114013
8.61 0.00932572
8.62 0.006336
8.63 0.0024443
8.64 -0.00231599
8.65 -0.00795621
8.66 -0.0143465
8.67 -0.0213722
8.68 -0.028931
8.69 -0.0369123
8.7 -0.0452007
8.71 -0.0536813
8.72 -0.0622307
8.73 -0.070727
8.74 -0.0790735
8.75 -0.0871857
8.76 -0.0949937
8.77 -0.102443
8.78 -0.109464
8.79 -0.116049
8.8 -0.122217
8.81 -0.127981
8.82 -0.133372
8.83 -0.13843
8.84 -0.143202
8.85 -0.147732
8.86 -0.152108
8.87 -0.156393
8.88 -0.160643
8.89 -0.164911
8.9 -0.169242
8.91 -0.17368
8.92 -0.17825
8.93 -0.182955
8.94 -0.187794
8.95 -0.19275
8.96 -0.197797
8.97 -0.202899
8.98 -0.208005
8.99 -0.213056
9 -0.217996
9.01 -0.222765
9.02 -0.227305
9.03 -0.231563
9.04 -0.235467
9.05 -0.238967
9.06 -0.242055
9.07 -0.244708
9.08 -0.246918
9.09 -0.248686
9.1 -0.250024
9.11 -0.250913
9.12 -0.251429
9.13 -0.251617
9.14 -0.251523
9.15 -0.251194
9.16 -0.250683
9.17 -0.250033
9.18 -0.249295
9.19 -0.248517
9.2 -0.247734
9.21 -0.246969
9.22 -0.246239
9.23 -0.24555
9.24 -0.244902
9.25 -0.244276
9.26 -0.243651
9.27 -0.242996
9.28 -0.242277
9.29 -0.241455
9.3 -0.240487
9.31 -0.239317
9.32 -0.237921
9.33 -0.236269
9.34 -0.234336
9.35 -0.232104
9.36 -0.229563
9.37 -0.22669
9.38 -0.223512
9.39 -0.220061
9.4 -0.216367
9.41 -0.212467
9.42 -0.208404
9.43 -0.204222
9.44 -0.199973
9.45 -0.195714
9.46 -0.191491
9.47 -0.187345
9.48 -0.183307
9.49 -0.179402
9.5 -0.175655
9.51 -0.172061
9.52 -0.1686
9.53 -0.165246
9.54 -0.161959
9.55 -0.158689
9.56 -0.155373
9.57 -0.15192
9.58 -0.148257
9.59 -0.144301
9.6 -0.139967
9.61 -0.135169
9.62 -0.129826
9.63 -0.123819
9.64 -0.117076
9.65 -0.109574
9.66 -0.101272
9.67 -0.0921396
9.68 -0.0821603
9.69 -0.071333
9.7 -0.0595778
9.71 -0.0470225
9.72 -0.0337124
9.73 -0.0197034
9.74 -0.00506096
9.75 0.010141
9.76 0.0258427
9.77 0.0419526
9.78 0.0583541
9.79 0.0749618
9.8 0.091693
9.81 0.108469
9.82 0.125216
9.83 0.141853
9.84 0.158322
9.85 0.174577
9.86 0.190574
9.87 0.20628
9.88 0.221666
9.89 0.236695
9.9 0.251334
9.91 0.265595
9.92 0.279466
9.93 0.292935
9.94 0.305991
9.95 0.318617
9.96 0.330755
9.97 0.342412
9.98 0.353574
9.99 0.364213
10 0.374297
10.01 0.383792
10.02 0.392643
10.03 0.40077
10.04 0.408192
10.05 0.414877
10.06 0.420794
10.07 0.425919
10.08 0.430236
10.09 0.433666
10.1 0.436249
10.11 0.438026
10.12 0.439018
10.13 0.439259
10.14 0.43879
10.15 0.437655
10.16 0.435877
10.17 0.433589
10.18 0.430871
10.19 0.427803
10.2 0.42447
10.21 0.420958
10.22 0.417347
10.23 0.413731
10.24 0.410187
10.25 0.406779
10.26 0.403563
10.27 0.400584
10.28 0.39788
10.29 0.395503
10.3 0.39343
10.31 0.391654
10.32 0.390158
10.33 0.388912
10.34 0.387879
10.35 0.387015
10.36 0.386254
10.37 0.385524
10.38 0.384757
10.39 0.383883
10.4 0.382829
10.41 0.381525
10.42 0.379859
10.43 0.377794
10.44 0.375271
10.45 0.372236
10.46 0.368639
10.47 0.36444
10.48 0.359571
10.49 0.353987
10.5 0.347714
10.51 0.340738
10.52 0.333053
10.53 0.324659
10.54 0.31556
10.55 0.305697
10.56 0.295147
10.57 0.283939
10.58 0.272095
10.59 0.259643
10.6 0.246609
10.61 0.233006
10.62 0.218851
10.63 0.204224
10.64 0.189162
10.65 0.173707
10.66 0.157902
10.67 0.14179
10.68 0.1254
10.69 0.1088
10.7 0.092048
10.71 0.0751931
10.72 0.0582858
10.73 0.0413763
10.74 0.0245165
10.75 0.00776644
10.76 -0.00883393
10.77 -0.0252427
10.78 -0.0414217
10.79 -0.0573373
10.8 -0.0729606
10.81 -0.0882421
10.82 -0.103177
10.83 -0.117767
10.84 -0.13201
10.85 -0.14591
10.86 -0.159475
10.87 -0.172717
10.88 -0.185631
10.89 -0.198275
10.9 -0.210678
10.91 -0.222868
10.92 -0.234876
10.93 -0.246733
10.94 -0.25846
10.95 -0.270089
10.96 -0.281646
10.97 -0.293147
10.98 -0.304602
10.99 -0.316012
11 -0.327374
11.01 -0.338668
11.02 -0.349876
11.03 -0.360971
11.04 -0.371917
11.05 -0.382672
11.06 -0.393189
11.07 -0.403393
11.08 -0.413221
11.09 -0.42263
11.1 -0.431561
11.11 -0.439954
11.12 -0.44775
11.13 -0.454896
11.14 -0.461255
11.15 -0.466851
11.16 -0.471649
11.17 -0.475615
11.18 -0.478724
11.19 -0.480955
11.2 -0.482257
11.21 -0.482603
11.22 -0.48206
11.23 -0.48064
11.24 -0.478359
11.25 -0.475238
11.26 -0.471305
11.27 -0.466515
11.28 -0.460969
11.29 -0.454716
11.3 -0.447792
11.31 -0.440233
11.32 -0.432076
11.33 -0.423337
11.34 -0.414029
11.35 -0.404227
11.36 -0.39396
11.37 -0.383254
11.38 -0.372131
11.39 -0.360613
11.4 -0.348686
11.41 -0.336392
11.42 -0.323754
11.43 -0.310789
11.44 -0.297507
11.45 -0.283924
11.46 -0.270045
11.47 -0.255869
11.48 -0.241439
11.49 -0.226774
11.5 -0.211895
11.51 -0.196826
11.52 -0.181595
11.53 -0.166224
11.54 -0.150756
11.55 -0.135235
11.56 -0.119701
11.57 -0.104198
11.58 -0.0887722
11.59 -0.073474
11.6 -0.0583759
11.61 -0.0435151
11.62 -0.0289433
11.63 -0.0147118
11.64 -0.000870579
11.65 0.0125319
11.66 0.0254151
11.67 0.0377381
11.68 0.0494888
11.69 0.0606348
11.7 0.0711491
11.71 0.0810106
11.72 0.0902031
11.73 0.0986419
11.74 0.106404
11.75 0.113497
11.76 0.119935
11.77 0.125737
11.78 0.130929
11.79 0.135512
11.8 0.139525
11.81 0.143042
11.82 0.146108
11.83 0.148766
11.84 0.15106
11.85 0.153035
11.86 0.154706
11.87 0.156145
11.88 0.157387
11.89 0.15846
11.9 0.159387
11.91 0.160183
11.92 0.160853
11.93 0.161391
11.94 0.161796
11.95 0.162053
11.96 0.162135
11.97 0.16201
11.98 0.161641
11.99 0.160949
12 0.159901
12.01 0.15845
12.02 0.156541
12.03 0.154115
12.04 0.151119
12.05 0.147474
12.06 0.143089
12.07 0.137971
12.08 0.13208
12.09 0.125384
12.1 0.117857
12.11 0.109481
12.12 0.100176
12.13 0.0899902
12.14 0.0789634
12.15 0.0671178
12.16 0.054485
12.17 0.0411053
