# xPDFsuite Configuration #
[PDF]
wavelength = 0.1
dataformat = QA
inputfile = BiMsol6_insitu_700 C-00473.xy
backgroundfile = Quartz2mm-dist500-00000.xy
mode = xray
bgscale = 0.0042
composition = Bi2Fe4O9
outputtype = gr
qmaxinst = 24.998449118
qmin = 0.1
qmax = 21.4986662415
rmax = 80.0
rmin = 0.0
rstep = 0.01
rpoly = 0.9

[Misc]
inputdir = C:/Data/Seafile/CPH/Beamtime/Desy Oct 20/In situ data/Processed/BiMsol6/PDF
savedir = C:/Data/Seafile/CPH/Beamtime/Desy Oct 20/In situ data/PDF/BiMsol6
backgroundfilefull = C:/Data/Seafile/CPH/Beamtime/Desy Oct 20/In situ data/Processed/Standard_Empty_Cap/Quartz2mm-dist500-00000.xy

#### start data
#S 1
#L r($\AA$)  G($\AA^{-2}$)
0 0
0.01 0.00636702
0.02 0.0123718
0.03 0.0177044
0.04 0.0220868
0.05 0.025286
0.06 0.0271246
0.07 0.027409
0.08 0.0260839
0.09 0.0232939
0.1 0.0191584
0.11 0.013862
0.12 0.00764615
0.13 0.000798521
0.14 -0.00635665
0.15 -0.0134146
0.16 -0.0200337
0.17 -0.0258937
0.18 -0.0307084
0.19 -0.0342396
0.2 -0.0362431
0.21 -0.0365543
0.22 -0.0352757
0.23 -0.0324781
0.24 -0.028311
0.25 -0.022997
0.26 -0.0168242
0.27 -0.0101217
0.28 -0.00335566
0.29 0.00305872
0.3 0.00871912
0.31 0.0132443
0.32 0.016293
0.33 0.0175205
0.34 0.0165914
0.35 0.0135663
0.36 0.00844988
0.37 0.00135214
0.38 -0.00751063
0.39 -0.017819
0.4 -0.0292011
0.41 -0.0410298
0.42 -0.0526909
0.43 -0.0635604
0.44 -0.0729948
0.45 -0.0803549
0.46 -0.0849662
0.47 -0.0859602
0.48 -0.083159
0.49 -0.0762189
0.5 -0.0649209
0.51 -0.0491844
0.52 -0.0290772
0.53 -0.00454622
0.54 0.02384
0.55 0.0553404
0.56 0.0892662
0.57 0.124815
0.58 0.161095
0.59 0.197136
0.6 0.231698
0.61 0.263829
0.62 0.292565
0.63 0.317009
0.64 0.336356
0.65 0.349922
0.66 0.356751
0.67 0.356475
0.68 0.349294
0.69 0.335241
0.7 0.314532
0.71 0.287564
0.72 0.254899
0.73 0.216781
0.74 0.174716
0.75 0.129687
0.76 0.0827345
0.77 0.0349315
0.78 -0.0126458
0.79 -0.0588338
0.8 -0.102475
0.81 -0.142798
0.82 -0.179059
0.83 -0.210653
0.84 -0.237131
0.85 -0.258212
0.86 -0.273216
0.87 -0.282731
0.88 -0.28709
0.89 -0.286695
0.9 -0.282072
0.91 -0.273852
0.92 -0.262664
0.93 -0.249302
0.94 -0.234769
0.95 -0.219845
0.96 -0.20527
0.97 -0.191725
0.98 -0.179809
0.99 -0.170257
1 -0.163336
1.01 -0.159227
1.02 -0.158038
1.03 -0.159755
1.04 -0.164251
1.05 -0.171353
1.06 -0.180818
1.07 -0.192007
1.08 -0.204459
1.09 -0.217683
1.1 -0.231181
1.11 -0.244471
1.12 -0.257014
1.13 -0.2684
1.14 -0.278338
1.15 -0.286589
1.16 -0.293002
1.17 -0.297508
1.18 -0.300096
1.19 -0.300743
1.2 -0.299828
1.21 -0.297603
1.22 -0.294365
1.23 -0.290439
1.24 -0.286167
1.25 -0.281908
1.26 -0.278022
1.27 -0.274782
1.28 -0.272415
1.29 -0.271087
1.3 -0.2709
1.31 -0.271896
1.32 -0.274145
1.33 -0.277397
1.34 -0.281473
1.35 -0.286144
1.36 -0.291146
1.37 -0.296185
1.38 -0.300925
1.39 -0.305022
1.4 -0.308221
1.41 -0.310283
1.42 -0.311016
1.43 -0.310284
1.44 -0.308016
1.45 -0.304042
1.46 -0.298611
1.47 -0.291883
1.48 -0.28407
1.49 -0.275437
1.5 -0.26629
1.51 -0.256978
1.52 -0.247911
1.53 -0.239451
1.54 -0.23193
1.55 -0.225652
1.56 -0.220874
1.57 -0.217794
1.58 -0.216739
1.59 -0.217604
1.6 -0.220322
1.61 -0.224776
1.62 -0.230777
1.63 -0.238066
1.64 -0.246347
1.65 -0.255224
1.66 -0.264214
1.67 -0.272896
1.68 -0.280846
1.69 -0.287656
1.7 -0.292948
1.71 -0.296201
1.72 -0.297234
1.73 -0.295914
1.74 -0.292132
1.75 -0.285862
1.76 -0.27716
1.77 -0.266109
1.78 -0.252823
1.79 -0.237804
1.8 -0.221404
1.81 -0.204013
1.82 -0.18605
1.83 -0.167944
1.84 -0.150175
1.85 -0.133186
1.86 -0.117325
1.87 -0.102902
1.88 -0.0901665
1.89 -0.0793011
1.9 -0.0704445
1.91 -0.0638016
1.92 -0.0591066
1.93 -0.0562289
1.94 -0.0549752
1.95 -0.0550994
1.96 -0.0563139
1.97 -0.0583306
1.98 -0.0607544
1.99 -0.0632198
2 -0.0654143
2.01 -0.0670561
2.02 -0.0679056
2.03 -0.0677714
2.04 -0.066397
2.05 -0.0638544
2.06 -0.0601687
2.07 -0.0554321
2.08 -0.0498006
2.09 -0.0434876
2.1 -0.0367501
2.11 -0.0299405
2.12 -0.0234151
2.13 -0.0175172
2.14 -0.0125866
2.15 -0.00894651
2.16 -0.00689063
2.17 -0.00689533
2.18 -0.00898325
2.19 -0.013265
2.2 -0.0197989
2.21 -0.0285743
2.22 -0.0395119
2.23 -0.0525471
2.24 -0.0674801
2.25 -0.0838925
2.26 -0.101465
2.27 -0.119848
2.28 -0.13867
2.29 -0.157555
2.3 -0.176061
2.31 -0.193826
2.32 -0.21054
2.33 -0.225928
2.34 -0.239765
2.35 -0.251884
2.36 -0.262111
2.37 -0.27031
2.38 -0.276666
2.39 -0.281265
2.4 -0.284248
2.41 -0.285801
2.42 -0.286145
2.43 -0.28547
2.44 -0.284132
2.45 -0.282432
2.46 -0.280637
2.47 -0.278997
2.48 -0.277738
2.49 -0.277073
2.5 -0.277225
2.51 -0.278238
2.52 -0.280172
2.53 -0.283039
2.54 -0.28681
2.55 -0.291415
2.56 -0.296796
2.57 -0.302769
2.58 -0.309147
2.59 -0.315754
2.6 -0.322411
2.61 -0.328944
2.62 -0.335177
2.63 -0.340902
2.64 -0.346029
2.65 -0.35046
2.66 -0.354125
2.67 -0.356986
2.68 -0.359032
2.69 -0.360233
2.7 -0.360655
2.71 -0.360411
2.72 -0.359589
2.73 -0.358287
2.74 -0.356611
2.75 -0.354665
2.76 -0.352539
2.77 -0.350349
2.78 -0.348167
2.79 -0.346046
2.8 -0.344019
2.81 -0.342101
2.82 -0.340286
2.83 -0.338541
2.84 -0.336812
2.85 -0.335034
2.86 -0.333136
2.87 -0.331039
2.88 -0.328663
2.89 -0.325884
2.9 -0.32266
2.91 -0.318939
2.92 -0.314676
2.93 -0.309845
2.94 -0.304436
2.95 -0.298432
2.96 -0.291845
2.97 -0.28476
2.98 -0.277229
2.99 -0.269313
3 -0.261079
3.01 -0.252591
3.02 -0.243897
3.03 -0.235066
3.04 -0.226138
3.05 -0.217131
3.06 -0.208044
3.07 -0.198854
3.08 -0.18951
3.09 -0.179924
3.1 -0.170017
3.11 -0.159682
3.12 -0.148798
3.13 -0.137236
3.14 -0.124863
3.15 -0.111455
3.16 -0.0969257
3.17 -0.0811994
3.18 -0.0641905
3.19 -0.0458384
3.2 -0.0261119
3.21 -0.00498471
3.22 0.0175979
3.23 0.0414212
3.24 0.0663661
3.25 0.0922795
3.26 0.118976
3.27 0.146243
3.28 0.173849
3.29 0.201491
3.3 0.228889
3.31 0.255772
3.32 0.28187
3.33 0.306925
3.34 0.33068
3.35 0.352743
3.36 0.373069
3.37 0.391504
3.38 0.407926
3.39 0.422249
3.4 0.434423
3.41 0.444301
3.42 0.451929
3.43 0.457485
3.44 0.461054
3.45 0.462748
3.46 0.462695
3.47 0.461037
3.48 0.457777
3.49 0.453252
3.5 0.447618
3.51 0.441028
3.52 0.433624
3.53 0.425539
3.54 0.416873
3.55 0.40774
3.56 0.39827
3.57 0.388542
3.58 0.378626
3.59 0.368582
3.6 0.358464
3.61 0.348322
3.62 0.33821
3.63 0.328175
3.64 0.318268
3.65 0.308541
3.66 0.299055
3.67 0.289888
3.68 0.281137
3.69 0.272855
3.7 0.265125
3.71 0.258031
3.72 0.251658
3.73 0.24609
3.74 0.241494
3.75 0.237887
3.76 0.235306
3.77 0.233799
3.78 0.233398
3.79 0.234117
3.8 0.235989
3.81 0.239055
3.82 0.243178
3.83 0.2483
3.84 0.254353
3.85 0.261253
3.86 0.268907
3.87 0.277261
3.88 0.286165
3.89 0.295491
3.9 0.305136
3.91 0.315001
3.92 0.324996
3.93 0.335038
3.94 0.345047
3.95 0.354963
3.96 0.364741
3.97 0.374346
3.98 0.383755
3.99 0.392951
4 0.401909
4.01 0.410627
4.02 0.419109
4.03 0.427349
4.04 0.435333
4.05 0.443043
4.06 0.450446
4.07 0.457463
4.08 0.464073
4.09 0.47021
4.1 0.475797
4.11 0.480747
4.12 0.484962
4.13 0.488285
4.14 0.490595
4.15 0.491837
4.16 0.491909
4.17 0.490718
4.18 0.488183
4.19 0.484235
4.2 0.478654
4.21 0.471571
4.22 0.462986
4.23 0.452918
4.24 0.441406
4.25 0.428512
4.26 0.414258
4.27 0.398739
4.28 0.382159
4.29 0.364645
4.3 0.346332
4.31 0.327358
4.32 0.307857
4.33 0.287932
4.34 0.267749
4.35 0.247417
4.36 0.227025
4.37 0.206643
4.38 0.186323
4.39 0.166101
4.4 0.145995
4.41 0.125989
4.42 0.106061
4.43 0.0861758
4.44 0.0662913
4.45 0.0463606
4.46 0.0263233
4.47 0.00613725
4.48 -0.0142291
4.49 -0.0347983
4.5 -0.0555779
4.51 -0.0765588
4.52 -0.0977164
4.53 -0.119002
4.54 -0.14033
4.55 -0.161609
4.56 -0.182734
4.57 -0.203586
4.58 -0.224035
4.59 -0.243892
4.6 -0.263024
4.61 -0.281319
4.62 -0.298651
4.63 -0.314908
4.64 -0.329993
4.65 -0.343807
4.66 -0.356182
4.67 -0.367221
4.68 -0.376927
4.69 -0.385326
4.7 -0.39247
4.71 -0.398435
4.72 -0.403249
4.73 -0.407066
4.74 -0.410066
4.75 -0.412386
4.76 -0.414168
4.77 -0.415551
4.78 -0.416669
4.79 -0.417646
4.8 -0.418619
4.81 -0.419679
4.82 -0.4209
4.83 -0.422334
4.84 -0.424015
4.85 -0.42597
4.86 -0.428186
4.87 -0.430619
4.88 -0.433224
4.89 -0.435944
4.9 -0.438713
4.91 -0.441459
4.92 -0.444092
4.93 -0.446542
4.94 -0.448744
4.95 -0.450641
4.96 -0.452183
4.97 -0.453332
4.98 -0.454043
4.99 -0.454291
5 -0.454107
5.01 -0.4535
5.02 -0.452488
5.03 -0.451097
5.04 -0.449353
5.05 -0.447256
5.06 -0.444861
5.07 -0.442193
5.08 -0.439267
5.09 -0.436085
5.1 -0.432643
5.11 -0.428913
5.12 -0.424846
5.13 -0.420424
5.14 -0.415596
5.15 -0.410307
5.16 -0.404493
5.17 -0.398091
5.18 -0.390977
5.19 -0.383124
5.2 -0.374504
5.21 -0.365082
5.22 -0.354834
5.23 -0.343756
5.24 -0.33184
5.25 -0.319071
5.26 -0.305578
5.27 -0.291437
5.28 -0.276736
5.29 -0.261583
5.3 -0.246093
5.31 -0.230389
5.32 -0.214627
5.33 -0.198947
5.34 -0.183479
5.35 -0.168342
5.36 -0.153647
5.37 -0.139497
5.38 -0.126034
5.39 -0.113252
5.4 -0.101186
5.41 -0.0898455
5.42 -0.0792236
5.43 -0.0692924
5.44 -0.0600465
5.45 -0.0514069
5.46 -0.0432695
5.47 -0.0355568
5.48 -0.0281892
5.49 -0.0210889
5.5 -0.0141843
5.51 -0.00742161
5.52 -0.000733978
5.53 0.00590919
5.54 0.0125213
5.55 0.0190978
5.56 0.0256162
5.57 0.0320285
5.58 0.0382682
5.59 0.0442709
5.6 0.0499573
5.61 0.0552428
5.62 0.060042
5.63 0.0642727
5.64 0.0677838
5.65 0.0705725
5.66 0.0726014
5.67 0.0738463
5.68 0.0743043
5.69 0.073995
5.7 0.0729319
5.71 0.0711742
5.72 0.0688657
5.73 0.0661166
5.74 0.0630515
5.75 0.0598059
5.76 0.0565217
5.77 0.0533666
5.78 0.0504872
5.79 0.0480094
5.8 0.0460476
5.81 0.0446976
5.82 0.0440334
5.83 0.0441298
5.84 0.0450483
5.85 0.046715
5.86 0.0490925
5.87 0.052118
5.88 0.0557068
5.89 0.059755
5.9 0.0641619
5.91 0.0687627
5.92 0.0734134
5.93 0.0779824
5.94 0.082345
5.95 0.0863892
5.96 0.090009
5.97 0.0930879
5.98 0.0956235
5.99 0.0975992
6 0.0990256
6.01 0.0999403
6.02 0.100406
6.03 0.100491
6.04 0.100331
6.05 0.100065
6.06 0.0998266
6.07 0.0997543
6.08 0.0999832
6.09 0.100647
6.1 0.101924
6.11 0.103855
6.12 0.106506
6.13 0.109915
6.14 0.114092
6.15 0.119013
6.16 0.124664
6.17 0.130937
6.18 0.137677
6.19 0.14474
6.2 0.151966
6.21 0.159179
6.22 0.166195
6.23 0.172759
6.24 0.17872
6.25 0.183908
6.26 0.18817
6.27 0.191376
6.28 0.193422
6.29 0.194165
6.3 0.193546
6.31 0.191645
6.32 0.188492
6.33 0.184151
6.34 0.178714
6.35 0.172296
6.36 0.164962
6.37 0.156963
6.38 0.148474
6.39 0.139662
6.4 0.130694
6.41 0.121726
6.42 0.112914
6.43 0.104408
6.44 0.0962934
6.45 0.088644
6.46 0.0815068
6.47 0.0749019
6.48 0.0688237
6.49 0.0632836
6.5 0.0581834
6.51 0.0534363
6.52 0.0489531
6.53 0.0446356
6.54 0.0403815
6.55 0.0360848
6.56 0.0316303
6.57 0.0269403
6.58 0.0219475
6.59 0.0166027
6.6 0.010877
6.61 0.00476363
6.62 -0.00174972
6.63 -0.00859792
6.64 -0.0157044
6.65 -0.0229871
6.66 -0.0303485
6.67 -0.0376802
6.68 -0.0448602
6.69 -0.051733
6.7 -0.0581975
6.71 -0.0641427
6.72 -0.0694682
6.73 -0.074087
6.74 -0.0779289
6.75 -0.0808799
6.76 -0.0829309
6.77 -0.084114
6.78 -0.0844448
6.79 -0.0839575
6.8 -0.0827034
6.81 -0.0807434
6.82 -0.0781026
6.83 -0.0749425
6.84 -0.0713528
6.85 -0.0674228
6.86 -0.0632372
6.87 -0.0588731
6.88 -0.0543938
6.89 -0.0498589
6.9 -0.0453078
6.91 -0.040758
6.92 -0.0362101
6.93 -0.0316486
6.94 -0.027043
6.95 -0.0223328
6.96 -0.0174659
6.97 -0.012378
6.98 -0.00700005
6.99 -0.00126268
7 0.00490101
7.01 0.0115792
7.02 0.0188389
7.03 0.0266834
7.04 0.0351349
7.05 0.0441995
7.06 0.0538668
7.07 0.0641092
7.08 0.0749312
7.09 0.0862164
7.1 0.0978804
7.11 0.109835
7.12 0.121984
7.13 0.134224
7.14 0.146446
7.15 0.158526
7.16 0.170368
7.17 0.181879
7.18 0.192975
7.19 0.203585
7.2 0.213649
7.21 0.223062
7.22 0.23183
7.23 0.239953
7.24 0.247427
7.25 0.254258
7.26 0.260463
7.27 0.266046
7.28 0.271003
7.29 0.275414
7.3 0.279306
7.31 0.2827
7.32 0.285611
7.33 0.288045
7.34 0.289962
7.35 0.291364
7.36 0.292243
7.37 0.29256
7.38 0.292266
7.39 0.291306
7.4 0.289601
7.41 0.287007
7.42 0.283528
7.43 0.279093
7.44 0.273635
7.45 0.267095
7.46 0.259423
7.47 0.250496
7.48 0.240315
7.49 0.228933
7.5 0.216363
7.51 0.202638
7.52 0.187808
7.53 0.171938
7.54 0.155027
7.55 0.137296
7.56 0.118868
7.57 0.0998755
7.58 0.0804628
7.59 0.0607802
7.6 0.0409847
7.61 0.0212563
7.62 0.00175307
7.63 -0.0173771
7.64 -0.035994
7.65 -0.0539674
7.66 -0.0711786
7.67 -0.087415
7.68 -0.102672
7.69 -0.116884
7.7 -0.129996
7.71 -0.141967
7.72 -0.152774
7.73 -0.162353
7.74 -0.170687
7.75 -0.177877
7.76 -0.183958
7.77 -0.188971
7.78 -0.192968
7.79 -0.196006
7.8 -0.198065
7.81 -0.199296
7.82 -0.199783
7.83 -0.199598
7.84 -0.19881
7.85 -0.19749
7.86 -0.195689
7.87 -0.193463
7.88 -0.190907
7.89 -0.188077
7.9 -0.185021
7.91 -0.181785
7.92 -0.178408
7.93 -0.174917
7.94 -0.171352
7.95 -0.167735
7.96 -0.164085
7.97 -0.160414
7.98 -0.156731
7.99 -0.153039
8 -0.14934
8.01 -0.145631
8.02 -0.141911
8.03 -0.138175
8.04 -0.134419
8.05 -0.130639
8.06 -0.126833
8.07 -0.123003
8.08 -0.119154
8.09 -0.115296
8.1 -0.111442
8.11 -0.107608
8.12 -0.103819
8.13 -0.100109
8.14 -0.0965046
8.15 -0.0930404
8.16 -0.0897523
8.17 -0.0866774
8.18 -0.0838528
8.19 -0.0813353
8.2 -0.079156
8.21 -0.0773263
8.22 -0.0758657
8.23 -0.0747851
8.24 -0.0740863
8.25 -0.073762
8.26 -0.0738275
8.27 -0.0742057
8.28 -0.0748499
8.29 -0.0757021
8.3 -0.0766934
8.31 -0.077746
8.32 -0.0787667
8.33 -0.0796485
8.34 -0.0802977
8.35 -0.0806178
8.36 -0.0805151
8.37 -0.0799007
8.38 -0.0786938
8.39 -0.0767456
8.4 -0.0740633
8.41 -0.0706149
8.42 -0.0663805
8.43 -0.0613585
8.44 -0.0555668
8.45 -0.0490115
8.46 -0.0417409
8.47 -0.0338847
8.48 -0.0255354
8.49 -0.0167981
8.5 -0.00778792
8.51 0.00137318
8.52 0.0105501
8.53 0.0196025
8.54 0.0284109
8.55 0.0368645
8.56 0.044864
8.57 0.0523243
8.58 0.0591545
8.59 0.0652685
8.6 0.0706929
8.61 0.0754231
8.62 0.0794744
8.63 0.0828805
8.64 0.0856921
8.65 0.087935
8.66 0.0897277
8.67 0.0911728
8.68 0.0923612
8.69 0.0933836
8.7 0.0943274
8.71 0.0952742
8.72 0.0963058
8.73 0.0974725
8.74 0.0988093
8.75 0.100333
8.76 0.102042
8.77 0.103914
8.78 0.105914
8.79 0.107969
8.8 0.109997
8.81 0.111907
8.82 0.113599
8.83 0.114969
8.84 0.115902
8.85 0.11623
8.86 0.115903
8.87 0.114831
8.88 0.112941
8.89 0.110173
8.9 0.106486
8.91 0.101797
8.92 0.096122
8.93 0.0895339
8.94 0.0820776
8.95 0.0738157
8.96 0.0648265
8.97 0.0552012
8.98 0.0449928
8.99 0.0343823
9 0.0234813
9.01 0.0123998
9.02 0.00124275
9.03 -0.00989315
9.04 -0.0209123
9.05 -0.0317317
9.06 -0.0423063
9.07 -0.0525993
9.08 -0.0625907
9.09 -0.0722765
9.1 -0.0816675
9.11 -0.0907626
9.12 -0.0996284
9.13 -0.108312
9.14 -0.116864
9.15 -0.125333
9.16 -0.133768
9.17 -0.142213
9.18 -0.150708
9.19 -0.159272
9.2 -0.167911
9.21 -0.176619
9.22 -0.185371
9.23 -0.194129
9.24 -0.202829
9.25 -0.211397
9.26 -0.219751
9.27 -0.227802
9.28 -0.235452
9.29 -0.242602
9.3 -0.249132
9.31 -0.254896
9.32 -0.259863
9.33 -0.263959
9.34 -0.267122
9.35 -0.269308
9.36 -0.270488
9.37 -0.270567
9.38 -0.26961
9.39 -0.267681
9.4 -0.264824
9.41 -0.261102
9.42 -0.256585
9.43 -0.251344
9.44 -0.245428
9.45 -0.238996
9.46 -0.232136
9.47 -0.224931
9.48 -0.217457
9.49 -0.209779
9.5 -0.201942
9.51 -0.19399
9.52 -0.185948
9.53 -0.177819
9.54 -0.16959
9.55 -0.161234
9.56 -0.152708
9.57 -0.143934
9.58 -0.134871
9.59 -0.125454
9.6 -0.115618
9.61 -0.1053
9.62 -0.0944432
9.63 -0.0829581
9.64 -0.0708077
9.65 -0.0580035
9.66 -0.0445399
9.67 -0.0304276
9.68 -0.0156942
9.69 -0.000383835
9.7 0.0154947
9.71 0.0317984
9.72 0.0484366
9.73 0.06531
9.74 0.0823124
9.75 0.099334
9.76 0.116254
9.77 0.132945
9.78 0.149313
9.79 0.165265
9.8 0.180721
9.81 0.195609
9.82 0.209874
9.83 0.223402
9.84 0.236226
9.85 0.248345
9.86 0.259761
9.87 0.270489
9.88 0.280552
9.89 0.289956
9.9 0.298719
9.91 0.306929
9.92 0.31462
9.93 0.321828
9.94 0.328579
9.95 0.334897
9.96 0.340756
9.97 0.346189
9.98 0.351199
9.99 0.355771
10 0.359881
10.01 0.363498
10.02 0.36657
10.03 0.369019
10.04 0.37085
10.05 0.372026
10.06 0.372512
10.07 0.372279
10.08 0.371306
10.09 0.369523
10.1 0.366968
10.11 0.363685
10.12 0.359705
10.13 0.355072
10.14 0.349842
10.15 0.344075
10.16 0.337825
10.17 0.331231
10.18 0.324387
10.19 0.31739
10.2 0.310337
10.21 0.303325
10.22 0.296458
10.23 0.289827
10.24 0.283496
10.25 0.277524
10.26 0.271958
10.27 0.266828
10.28 0.262154
10.29 0.257985
10.3 0.254254
10.31 0.250932
10.32 0.247977
10.33 0.245338
10.34 0.242955
10.35 0.240768
10.36 0.238694
10.37 0.236651
10.38 0.234567
10.39 0.23237
10.4 0.229997
10.41 0.227386
10.42 0.224447
10.43 0.221163
10.44 0.217498
10.45 0.213426
10.46 0.208927
10.47 0.203989
10.48 0.198582
10.49 0.1927
10.5 0.186376
10.51 0.179619
10.52 0.172438
10.53 0.164843
10.54 0.156845
10.55 0.148413
10.56 0.139591
10.57 0.13039
10.58 0.120814
10.59 0.110866
10.6 0.100548
10.61 0.0898452
10.62 0.0787449
10.63 0.0672785
10.64 0.0554505
10.65 0.0432681
10.66 0.0307426
10.67 0.0178891
10.68 0.00470222
10.69 -0.008769
10.7 -0.0224848
10.71 -0.0364086
10.72 -0.0504994
10.73 -0.0647123
10.74 -0.0790004
10.75 -0.0933093
10.76 -0.107583
10.77 -0.121773
10.78 -0.135832
10.79 -0.149717
10.8 -0.163391
10.81 -0.176798
10.82 -0.18992
10.83 -0.20275
10.84 -0.215278
10.85 -0.227501
10.86 -0.239423
10.87 -0.25105
10.88 -0.262377
10.89 -0.273456
10.9 -0.284308
10.91 -0.29496
10.92 -0.305437
10.93 -0.31576
10.94 -0.325941
10.95 -0.336
10.96 -0.345951
10.97 -0.355793
10.98 -0.365521
10.99 -0.375121
11 -0.384569
11.01 -0.393812
11.02 -0.402829
11.03 -0.411578
11.04 -0.420011
11.05 -0.428075
11.06 -0.435719
11.07 -0.442859
11.08 -0.449435
11.09 -0.455428
11.1 -0.460796
11.11 -0.4655
11.12 -0.469511
11.13 -0.472805
11.14 -0.475284
11.15 -0.477018
11.16 -0.478012
11.17 -0.478275
11.18 -0.477822
11.19 -0.476671
11.2 -0.474816
11.21 -0.472272
11.22 -0.469112
11.23 -0.465364
11.24 -0.461053
11.25 -0.4562
11.26 -0.450826
11.27 -0.444895
11.28 -0.438458
11.29 -0.431528
11.3 -0.424103
11.31 -0.416178
11.32 -0.407744
11.33 -0.398768
11.34 -0.389211
11.35 -0.379101
11.36 -0.368424
11.37 -0.357169
11.38 -0.345328
11.39 -0.332899
11.4 -0.319832
11.41 -0.306175
11.42 -0.29196
11.43 -0.277214
11.44 -0.261967
11.45 -0.246257
11.46 -0.230121
11.47 -0.213591
11.48 -0.196758
11.49 -0.179681
11.5 -0.16242
11.51 -0.145034
11.52 -0.127582
11.53 -0.110123
11.54 -0.0927164
11.55 -0.0754101
11.56 -0.0582455
11.57 -0.0412589
11.58 -0.0244802
11.59 -0.00793723
11.6 0.00832702
11.61 0.0243248
11.62 0.0400479
11.63 0.0554913
11.64 0.0706523
11.65 0.0855291
11.66 0.100101
11.67 0.114369
11.68 0.128343
11.69 0.142015
11.7 0.155373
11.71 0.168402
11.72 0.181082
11.73 0.193345
11.74 0.205204
11.75 0.216631
11.76 0.227593
11.77 0.238059
11.78 0.247995
11.79 0.257339
11.8 0.266054
11.81 0.274151
11.82 0.281611
11.83 0.288419
11.84 0.294567
11.85 0.300052
11.86 0.304807
11.87 0.308907
11.88 0.312375
11.89 0.315227
11.9 0.317487
11.91 0.319178
11.92 0.320299
11.93 0.320861
11.94 0.320921
11.95 0.320494
11.96 0.319587
11.97 0.318201
11.98 0.316331
11.99 0.313911
12 0.310955
12.01 0.307439
12.02 0.303324
12.03 0.298566
12.04 0.293114
12.05 0.286889
12.06 0.27979
12.07 0.271827
12.08 0.262952
12.09 0.253122
12.1 0.242305
12.11 0.230475
12.12 0.217533
12.13 0.203539
12.14 0.188545
12.15 0.172587
12.16 0.155716
