# xPDFsuite Configuration #
[PDF]
wavelength = 0.1
dataformat = QA
inputfile = BiMsol6_insitu_700 C-00696.xy
backgroundfile = Quartz2mm-dist500-00000.xy
mode = xray
bgscale = 0.0042
composition = Bi2Fe4O9
outputtype = gr
qmaxinst = 24.998449118
qmin = 0.1
qmax = 21.4986662415
rmax = 80.0
rmin = 0.0
rstep = 0.01
rpoly = 0.9

[Misc]
inputdir = C:/Data/Seafile/CPH/Beamtime/Desy Oct 20/In situ data/Processed/BiMsol6/PDF
savedir = C:/Data/Seafile/CPH/Beamtime/Desy Oct 20/In situ data/PDF/BiMsol6
backgroundfilefull = C:/Data/Seafile/CPH/Beamtime/Desy Oct 20/In situ data/Processed/Standard_Empty_Cap/Quartz2mm-dist500-00000.xy

#### start data
#S 1
#L r($\AA$)  G($\AA^{-2}$)
0 0
0.01 0.00581818
0.02 0.0113027
0.03 0.0161682
0.04 0.0201587
0.05 0.0230599
0.06 0.0247086
0.07 0.0249271
0.08 0.0236653
0.09 0.0210569
0.1 0.0172128
0.11 0.0123039
0.12 0.00655337
0.13 0.000227055
0.14 -0.00637501
0.15 -0.0128802
0.16 -0.0189738
0.17 -0.0243612
0.18 -0.0287793
0.19 -0.0320099
0.2 -0.0338295
0.21 -0.0340887
0.22 -0.0328849
0.23 -0.0302864
0.24 -0.0264338
0.25 -0.021536
0.26 -0.0158616
0.27 -0.00971945
0.28 -0.00354122
0.29 0.00228851
0.3 0.00739705
0.31 0.0114321
0.32 0.014079
0.33 0.0150206
0.34 0.0139493
0.35 0.0109274
0.36 0.00596478
0.37 -0.000830287
0.38 -0.00925006
0.39 -0.0189906
0.4 -0.0296956
0.41 -0.0407751
0.42 -0.0516516
0.43 -0.0617379
0.44 -0.0704286
0.45 -0.0771234
0.46 -0.081188
0.47 -0.0818045
0.48 -0.0788119
0.49 -0.0718899
0.5 -0.0608354
0.51 -0.0455766
0.52 -0.0261812
0.53 -0.00260315
0.54 0.024616
0.55 0.0547723
0.56 0.0872107
0.57 0.121169
0.58 0.1558
0.59 0.190182
0.6 0.223133
0.61 0.253753
0.62 0.281123
0.63 0.304388
0.64 0.322782
0.65 0.335651
0.66 0.342082
0.67 0.341717
0.68 0.334746
0.69 0.321196
0.7 0.301266
0.71 0.275331
0.72 0.243922
0.73 0.207261
0.74 0.166785
0.75 0.123433
0.76 0.0781955
0.77 0.0320979
0.78 -0.01383
0.79 -0.0584743
0.8 -0.100723
0.81 -0.139828
0.82 -0.17507
0.83 -0.205859
0.84 -0.231755
0.85 -0.252477
0.86 -0.267358
0.87 -0.27695
0.88 -0.28156
0.89 -0.281563
0.9 -0.277454
0.91 -0.269831
0.92 -0.259289
0.93 -0.246582
0.94 -0.232679
0.95 -0.218329
0.96 -0.204248
0.97 -0.191097
0.98 -0.179459
0.99 -0.170047
1 -0.163136
1.01 -0.158911
1.02 -0.157489
1.03 -0.158872
1.04 -0.162947
1.05 -0.16956
1.06 -0.17849
1.07 -0.189128
1.08 -0.201031
1.09 -0.213732
1.1 -0.226749
1.11 -0.239616
1.12 -0.251812
1.13 -0.262931
1.14 -0.272681
1.15 -0.280822
1.16 -0.287196
1.17 -0.291725
1.18 -0.294386
1.19 -0.29514
1.2 -0.294347
1.21 -0.29224
1.22 -0.289098
1.23 -0.285231
1.24 -0.280965
1.25 -0.276642
1.26 -0.272614
1.27 -0.269151
1.28 -0.266477
1.29 -0.264761
1.3 -0.264109
1.31 -0.264571
1.32 -0.266222
1.33 -0.268834
1.34 -0.272243
1.35 -0.276235
1.36 -0.280561
1.37 -0.284943
1.38 -0.289064
1.39 -0.292593
1.4 -0.295283
1.41 -0.296903
1.42 -0.297267
1.43 -0.296242
1.44 -0.293757
1.45 -0.289648
1.46 -0.284152
1.47 -0.277421
1.48 -0.269659
1.49 -0.261122
1.5 -0.252109
1.51 -0.242959
1.52 -0.234071
1.53 -0.225798
1.54 -0.218466
1.55 -0.212372
1.56 -0.207766
1.57 -0.204846
1.58 -0.20393
1.59 -0.204916
1.6 -0.207733
1.61 -0.212267
1.62 -0.218325
1.63 -0.22565
1.64 -0.233944
1.65 -0.242807
1.66 -0.251758
1.67 -0.260371
1.68 -0.26822
1.69 -0.274893
1.7 -0.28001
1.71 -0.283038
1.72 -0.283798
1.73 -0.282154
1.74 -0.277995
1.75 -0.271295
1.76 -0.26211
1.77 -0.250526
1.78 -0.236659
1.79 -0.221023
1.8 -0.203981
1.81 -0.185932
1.82 -0.167309
1.83 -0.148554
1.84 -0.130164
1.85 -0.112598
1.86 -0.0962149
1.87 -0.0813364
1.88 -0.0682222
1.89 -0.0570612
1.9 -0.0479974
1.91 -0.0412429
1.92 -0.0365187
1.93 -0.0336856
1.94 -0.0325388
1.95 -0.0328172
1.96 -0.0342154
1.97 -0.0364251
1.98 -0.0390273
1.99 -0.0416355
2 -0.0439179
2.01 -0.0455758
2.02 -0.0463563
2.03 -0.0460584
2.04 -0.0444117
2.05 -0.0415031
2.06 -0.0373687
2.07 -0.0321186
2.08 -0.0259334
2.09 -0.0190573
2.1 -0.0117881
2.11 -0.00452722
2.12 0.00232564
2.13 0.00837984
2.14 0.0132484
2.15 0.0165631
2.16 0.0179887
2.17 0.016973
2.18 0.0134986
2.19 0.00744131
2.2 -0.00126282
2.21 -0.012597
2.22 -0.0264633
2.23 -0.0427796
2.24 -0.0613021
2.25 -0.0815304
2.26 -0.103077
2.27 -0.125516
2.28 -0.148393
2.29 -0.171243
2.3 -0.193512
2.31 -0.214753
2.32 -0.234577
2.33 -0.252635
2.34 -0.268637
2.35 -0.282363
2.36 -0.293579
2.37 -0.302095
2.38 -0.308144
2.39 -0.31183
2.4 -0.313325
2.41 -0.312864
2.42 -0.310734
2.43 -0.307175
2.44 -0.302667
2.45 -0.297621
2.46 -0.292405
2.47 -0.287374
2.48 -0.282855
2.49 -0.279165
2.5 -0.276645
2.51 -0.275393
2.52 -0.275524
2.53 -0.277094
2.54 -0.280099
2.55 -0.284478
2.56 -0.290198
2.57 -0.297024
2.58 -0.304697
2.59 -0.31298
2.6 -0.321622
2.61 -0.330363
2.62 -0.338943
2.63 -0.347055
2.64 -0.354507
2.65 -0.361117
2.66 -0.36674
2.67 -0.371272
2.68 -0.374649
2.69 -0.376778
2.7 -0.377705
2.71 -0.377564
2.72 -0.376456
2.73 -0.374512
2.74 -0.371882
2.75 -0.368727
2.76 -0.365195
2.77 -0.361506
2.78 -0.357812
2.79 -0.354251
2.8 -0.350937
2.81 -0.347957
2.82 -0.345398
2.83 -0.343293
2.84 -0.341613
2.85 -0.340326
2.86 -0.339374
2.87 -0.338682
2.88 -0.338157
2.89 -0.337692
2.9 -0.337163
2.91 -0.336461
2.92 -0.335486
2.93 -0.334149
2.94 -0.332373
2.95 -0.330077
2.96 -0.327199
2.97 -0.32376
2.98 -0.319759
2.99 -0.315212
3 -0.310146
3.01 -0.304597
3.02 -0.298567
3.03 -0.292133
3.04 -0.285337
3.05 -0.2782
3.06 -0.270729
3.07 -0.262911
3.08 -0.2547
3.09 -0.246006
3.1 -0.236778
3.11 -0.22691
3.12 -0.216277
3.13 -0.20474
3.14 -0.192148
3.15 -0.17823
3.16 -0.162876
3.17 -0.145984
3.18 -0.127428
3.19 -0.107106
3.2 -0.0849457
3.21 -0.0608719
3.22 -0.034754
3.23 -0.00683386
3.24 0.0227808
3.25 0.0539353
3.26 0.0864288
3.27 0.120017
3.28 0.154453
3.29 0.189345
3.3 0.224311
3.31 0.258982
3.32 0.292984
3.33 0.325942
3.34 0.357472
3.35 0.387018
3.36 0.414427
3.37 0.439424
3.38 0.461778
3.39 0.481304
3.4 0.497869
3.41 0.511199
3.42 0.521297
3.43 0.528371
3.44 0.532507
3.45 0.533838
3.46 0.532535
3.47 0.528802
3.48 0.522641
3.49 0.514576
3.5 0.504865
3.51 0.493767
3.52 0.481529
3.53 0.468388
3.54 0.454536
3.55 0.440185
3.56 0.425537
3.57 0.41072
3.58 0.395836
3.59 0.380956
3.6 0.366126
3.61 0.351377
3.62 0.336704
3.63 0.322091
3.64 0.307517
3.65 0.292958
3.66 0.278394
3.67 0.263811
3.68 0.24921
3.69 0.234614
3.7 0.220066
3.71 0.205627
3.72 0.191386
3.73 0.177449
3.74 0.164001
3.75 0.151178
3.76 0.139137
3.77 0.128054
3.78 0.118107
3.79 0.109479
3.8 0.102393
3.81 0.0971291
3.82 0.0936964
3.83 0.0922151
3.84 0.0927797
3.85 0.0954553
3.86 0.100276
3.87 0.107416
3.88 0.11673
3.89 0.12807
3.9 0.14133
3.91 0.156376
3.92 0.173049
3.93 0.19119
3.94 0.210676
3.95 0.231154
3.96 0.252404
3.97 0.274205
3.98 0.296338
3.99 0.318591
4 0.340743
4.01 0.362583
4.02 0.38395
4.03 0.404694
4.04 0.424685
4.05 0.443812
4.06 0.461975
4.07 0.478988
4.08 0.494905
4.09 0.509685
4.1 0.523302
4.11 0.535738
4.12 0.54698
4.13 0.556952
4.14 0.565653
4.15 0.573148
4.16 0.579433
4.17 0.584501
4.18 0.588342
4.19 0.590944
4.2 0.592143
4.21 0.592055
4.22 0.590662
4.23 0.58794
4.24 0.583863
4.25 0.578411
4.26 0.571492
4.27 0.563064
4.28 0.553214
4.29 0.541938
4.3 0.529245
4.31 0.515149
4.32 0.499673
4.33 0.482718
4.34 0.464449
4.35 0.444941
4.36 0.424253
4.37 0.402457
4.38 0.379626
4.39 0.355811
4.4 0.331074
4.41 0.305581
4.42 0.279426
4.43 0.252704
4.44 0.225512
4.45 0.197948
4.46 0.170093
4.47 0.142074
4.48 0.113993
4.49 0.0859466
4.5 0.0580281
4.51 0.0303302
4.52 0.00295548
4.53 -0.0239696
4.54 -0.0503877
4.55 -0.0762143
4.56 -0.101368
4.57 -0.12577
4.58 -0.149348
4.59 -0.171955
4.6 -0.19356
4.61 -0.214143
4.62 -0.233656
4.63 -0.252063
4.64 -0.269335
4.65 -0.285438
4.66 -0.300264
4.67 -0.31394
4.68 -0.326482
4.69 -0.337921
4.7 -0.348298
4.71 -0.35766
4.72 -0.366008
4.73 -0.373436
4.74 -0.380065
4.75 -0.385973
4.76 -0.391241
4.77 -0.395948
4.78 -0.400174
4.79 -0.403961
4.8 -0.407432
4.81 -0.410651
4.82 -0.413675
4.83 -0.416554
4.84 -0.419326
4.85 -0.422018
4.86 -0.424651
4.87 -0.427239
4.88 -0.42978
4.89 -0.432266
4.9 -0.434682
4.91 -0.437006
4.92 -0.439196
4.93 -0.441231
4.94 -0.443081
4.95 -0.444712
4.96 -0.446094
4.97 -0.447194
4.98 -0.447969
4.99 -0.448382
5 -0.448432
5.01 -0.4481
5.02 -0.447371
5.03 -0.446229
5.04 -0.444665
5.05 -0.442625
5.06 -0.440136
5.07 -0.437198
5.08 -0.433806
5.09 -0.429953
5.1 -0.425633
5.11 -0.420823
5.12 -0.415493
5.13 -0.409677
5.14 -0.40337
5.15 -0.396572
5.16 -0.389283
5.17 -0.381509
5.18 -0.373218
5.19 -0.364459
5.2 -0.355271
5.21 -0.345687
5.22 -0.335748
5.23 -0.325505
5.24 -0.315012
5.25 -0.304336
5.26 -0.293573
5.27 -0.28281
5.28 -0.272133
5.29 -0.261635
5.3 -0.251411
5.31 -0.241587
5.32 -0.232251
5.33 -0.22347
5.34 -0.21532
5.35 -0.207864
5.36 -0.201155
5.37 -0.195241
5.38 -0.190222
5.39 -0.186018
5.4 -0.182617
5.41 -0.179991
5.42 -0.178099
5.43 -0.176883
5.44 -0.176311
5.45 -0.176283
5.46 -0.176682
5.47 -0.177416
5.48 -0.178393
5.49 -0.179523
5.5 -0.180717
5.51 -0.181885
5.52 -0.18295
5.53 -0.183854
5.54 -0.184548
5.55 -0.184996
5.56 -0.185176
5.57 -0.185059
5.58 -0.184644
5.59 -0.183959
5.6 -0.183023
5.61 -0.181857
5.62 -0.180485
5.63 -0.178931
5.64 -0.177201
5.65 -0.175326
5.66 -0.173312
5.67 -0.171154
5.68 -0.168835
5.69 -0.166327
5.7 -0.163576
5.71 -0.160511
5.72 -0.157084
5.73 -0.153218
5.74 -0.148833
5.75 -0.143843
5.76 -0.138164
5.77 -0.131629
5.78 -0.124216
5.79 -0.115878
5.8 -0.106566
5.81 -0.0962509
5.82 -0.0849198
5.83 -0.072551
5.84 -0.0591355
5.85 -0.04482
5.86 -0.0296899
5.87 -0.0138517
5.88 0.00256855
5.89 0.019428
5.9 0.0365802
5.91 0.0538223
5.92 0.0709749
5.93 0.0878676
5.94 0.104335
5.95 0.120223
5.96 0.135372
5.97 0.149583
5.98 0.162833
5.99 0.175051
6 0.186193
6.01 0.196243
6.02 0.205209
6.03 0.213053
6.04 0.21988
6.05 0.225819
6.06 0.230971
6.07 0.235449
6.08 0.239376
6.09 0.242873
6.1 0.246045
6.11 0.24905
6.12 0.251985
6.13 0.254935
6.14 0.257961
6.15 0.261106
6.16 0.264393
6.17 0.267805
6.18 0.271295
6.19 0.274798
6.2 0.278228
6.21 0.281481
6.22 0.284435
6.23 0.286895
6.24 0.28876
6.25 0.289892
6.26 0.290157
6.27 0.289433
6.28 0.287609
6.29 0.284527
6.3 0.280094
6.31 0.27435
6.32 0.26728
6.33 0.258898
6.34 0.249243
6.35 0.238381
6.36 0.226294
6.37 0.213213
6.38 0.199281
6.39 0.184642
6.4 0.169447
6.41 0.153852
6.42 0.138006
6.43 0.122073
6.44 0.106207
6.45 0.0905252
6.46 0.0751319
6.47 0.0601091
6.48 0.0455182
6.49 0.0314442
6.5 0.0178678
6.51 0.00476796
6.52 -0.00788462
6.53 -0.020136
6.54 -0.0320461
6.55 -0.043679
6.56 -0.0551115
6.57 -0.0664451
6.58 -0.0777566
6.59 -0.0891167
6.6 -0.100586
6.61 -0.112215
6.62 -0.124052
6.63 -0.136106
6.64 -0.148362
6.65 -0.160795
6.66 -0.173361
6.67 -0.186
6.68 -0.198632
6.69 -0.211147
6.7 -0.223442
6.71 -0.235405
6.72 -0.246921
6.73 -0.257872
6.74 -0.268144
6.75 -0.277563
6.76 -0.286035
6.77 -0.29351
6.78 -0.299909
6.79 -0.305173
6.8 -0.309254
6.81 -0.312109
6.82 -0.313594
6.83 -0.313843
6.84 -0.312865
6.85 -0.310682
6.86 -0.307323
6.87 -0.302821
6.88 -0.29715
6.89 -0.290361
6.9 -0.282555
6.91 -0.273765
6.92 -0.264022
6.93 -0.25335
6.94 -0.241766
6.95 -0.229178
6.96 -0.215689
6.97 -0.201298
6.98 -0.185993
6.99 -0.169763
7 -0.152593
7.01 -0.134418
7.02 -0.115207
7.03 -0.0950183
7.04 -0.0738502
7.05 -0.051711
7.06 -0.028619
7.07 -0.00460422
7.08 0.0203755
7.09 0.0461766
7.1 0.0727134
7.11 0.099899
7.12 0.127634
7.13 0.155807
7.14 0.184303
7.15 0.212982
7.16 0.241682
7.17 0.270263
7.18 0.298582
7.19 0.326497
7.2 0.35387
7.21 0.380492
7.22 0.406269
7.23 0.431101
7.24 0.454882
7.25 0.477515
7.26 0.498916
7.27 0.518971
7.28 0.537526
7.29 0.554648
7.3 0.570296
7.31 0.584436
7.32 0.597042
7.33 0.608091
7.34 0.617439
7.35 0.62514
7.36 0.631239
7.37 0.635723
7.38 0.638582
7.39 0.639803
7.4 0.639344
7.41 0.63705
7.42 0.633074
7.43 0.627402
7.44 0.620023
7.45 0.610927
7.46 0.600112
7.47 0.587461
7.48 0.573024
7.49 0.556906
7.5 0.53914
7.51 0.519771
7.52 0.49886
7.53 0.476473
7.54 0.452566
7.55 0.427411
7.56 0.401131
7.57 0.373865
7.58 0.345766
7.59 0.316996
7.6 0.287714
7.61 0.258132
7.62 0.228465
7.63 0.198908
7.64 0.169652
7.65 0.140885
7.66 0.112792
7.67 0.0856607
7.68 0.0595768
7.69 0.0346818
7.7 0.0111048
7.71 -0.0110431
7.72 -0.0316706
7.73 -0.0506285
7.74 -0.0678278
7.75 -0.0833576
7.76 -0.0972166
7.77 -0.109424
7.78 -0.120018
7.79 -0.129053
7.8 -0.13646
7.81 -0.142459
7.82 -0.147172
7.83 -0.150705
7.84 -0.153167
7.85 -0.154671
7.86 -0.155302
7.87 -0.155151
7.88 -0.154387
7.89 -0.153105
7.9 -0.151389
7.91 -0.149314
7.92 -0.146942
7.93 -0.144306
7.94 -0.141461
7.95 -0.138437
7.96 -0.135246
7.97 -0.131889
7.98 -0.12836
7.99 -0.12464
8 -0.120692
8.01 -0.116513
8.02 -0.112078
8.03 -0.107367
8.04 -0.102363
8.05 -0.0970521
8.06 -0.0914071
8.07 -0.0854461
8.08 -0.0791973
8.09 -0.0726875
8.1 -0.0659542
8.11 -0.0590452
8.12 -0.0520175
8.13 -0.0449421
8.14 -0.0379054
8.15 -0.0309879
8.16 -0.024273
8.17 -0.0178447
8.18 -0.0117855
8.19 -0.00620866
8.2 -0.0011869
8.21 0.00324277
8.22 0.0070322
8.23 0.0101466
8.24 0.0125657
8.25 0.0142828
8.26 0.015237
8.27 0.0155401
8.28 0.0152398
8.29 0.0143981
8.3 0.0130896
8.31 0.0113995
8.32 0.00941065
8.33 0.00723701
8.34 0.00499635
8.35 0.0027883
8.36 0.000707705
8.37 -0.00115842
8.38 -0.00273371
8.39 -0.00391108
8.4 -0.00467751
8.41 -0.00501051
8.42 -0.00490349
8.43 -0.0043691
8.44 -0.00343902
8.45 -0.00215094
8.46 -0.000576906
8.47 0.00117273
8.48 0.00299971
8.49 0.00479669
8.5 0.00645038
8.51 0.00784504
8.52 0.0088182
8.53 0.0092786
8.54 0.00913441
8.55 0.00829864
8.56 0.00669909
8.57 0.00428062
8.58 0.000976996
8.59 -0.00327005
8.6 -0.0083796
8.61 -0.014322
8.62 -0.0210486
8.63 -0.0284933
8.64 -0.0365747
8.65 -0.0452368
8.66 -0.0543305
8.67 -0.0637287
8.68 -0.0733183
8.69 -0.0829879
8.7 -0.0926307
8.71 -0.102143
8.72 -0.111413
8.73 -0.120383
8.74 -0.128998
8.75 -0.137221
8.76 -0.145031
8.77 -0.152424
8.78 -0.159383
8.79 -0.165957
8.8 -0.172205
8.81 -0.17818
8.82 -0.183943
8.83 -0.189557
8.84 -0.195089
8.85 -0.200605
8.86 -0.206169
8.87 -0.211826
8.88 -0.217613
8.89 -0.223549
8.9 -0.229644
8.91 -0.235896
8.92 -0.242275
8.93 -0.248731
8.94 -0.255207
8.95 -0.261636
8.96 -0.267942
8.97 -0.274041
8.98 -0.279799
8.99 -0.285155
9 -0.290025
9.01 -0.29433
9.02 -0.298
9.03 -0.300979
9.04 -0.303182
9.05 -0.304572
9.06 -0.305189
9.07 -0.305044
9.08 -0.304165
9.09 -0.302595
9.1 -0.300392
9.11 -0.297575
9.12 -0.29429
9.13 -0.290633
9.14 -0.286696
9.15 -0.282574
9.16 -0.278358
9.17 -0.274138
9.18 -0.270002
9.19 -0.266015
9.2 -0.262227
9.21 -0.258676
9.22 -0.255384
9.23 -0.252357
9.24 -0.249613
9.25 -0.247106
9.26 -0.244796
9.27 -0.242639
9.28 -0.240585
9.29 -0.238578
9.3 -0.23656
9.31 -0.234466
9.32 -0.232248
9.33 -0.229864
9.34 -0.227282
9.35 -0.22448
9.36 -0.221448
9.37 -0.218168
9.38 -0.214673
9.39 -0.210998
9.4 -0.207182
9.41 -0.203273
9.42 -0.199324
9.43 -0.195394
9.44 -0.191554
9.45 -0.187855
9.46 -0.184347
9.47 -0.18107
9.48 -0.178054
9.49 -0.175315
9.5 -0.172876
9.51 -0.17071
9.52 -0.16877
9.53 -0.167006
9.54 -0.165354
9.55 -0.163735
9.56 -0.162055
9.57 -0.160188
9.58 -0.158034
9.59 -0.155484
9.6 -0.152427
9.61 -0.148761
9.62 -0.144388
9.63 -0.139167
9.64 -0.133023
9.65 -0.125946
9.66 -0.117901
9.67 -0.108871
9.68 -0.0988578
9.69 -0.0878833
9.7 -0.0758859
9.71 -0.0630345
9.72 -0.0494043
9.73 -0.0350806
9.74 -0.0201571
9.75 -0.00473333
9.76 0.0111038
9.77 0.0272424
9.78 0.0435613
9.79 0.0599714
9.8 0.0763931
9.81 0.0927578
9.82 0.109009
9.83 0.125085
9.84 0.140969
9.85 0.156649
9.86 0.172123
9.87 0.187399
9.88 0.202491
9.89 0.217414
9.9 0.232189
9.91 0.246851
9.92 0.261418
9.93 0.275902
9.94 0.290309
9.95 0.304633
9.96 0.318842
9.97 0.332907
9.98 0.346786
9.99 0.360416
10 0.373729
10.01 0.386642
10.02 0.399049
10.03 0.410809
10.04 0.421868
10.05 0.43213
10.06 0.441505
10.07 0.44991
10.08 0.457272
10.09 0.46344
10.1 0.468421
10.11 0.472236
10.12 0.474889
10.13 0.476401
10.14 0.476818
10.15 0.476186
10.16 0.474526
10.17 0.472042
10.18 0.468854
10.19 0.465091
10.2 0.460888
10.21 0.456387
10.22 0.451725
10.23 0.447061
10.24 0.442527
10.25 0.438236
10.26 0.434286
10.27 0.430757
10.28 0.427716
10.29 0.425259
10.3 0.423343
10.31 0.421961
10.32 0.421083
10.33 0.420659
10.34 0.420624
10.35 0.420907
10.36 0.421397
10.37 0.421971
10.38 0.422519
10.39 0.422925
10.4 0.423077
10.41 0.422867
10.42 0.422128
10.43 0.420812
10.44 0.418841
10.45 0.416149
10.46 0.412683
10.47 0.408405
10.48 0.403249
10.49 0.397188
10.5 0.390283
10.51 0.382551
10.52 0.374015
10.53 0.364707
10.54 0.354666
10.55 0.343867
10.56 0.332418
10.57 0.320373
10.58 0.307775
10.59 0.294662
10.6 0.281071
10.61 0.267019
10.62 0.252521
10.63 0.237636
10.64 0.222385
10.65 0.206787
10.66 0.19086
10.67 0.174621
10.68 0.158063
10.69 0.141229
10.7 0.124149
10.71 0.106853
10.72 0.0893726
10.73 0.0717455
10.74 0.0540132
10.75 0.0362266
10.76 0.0184471
10.77 0.000730788
10.78 -0.0168645
10.79 -0.0342801
10.8 -0.0514582
10.81 -0.068316
10.82 -0.0848089
10.83 -0.100904
10.84 -0.116567
10.85 -0.131769
10.86 -0.146493
10.87 -0.160726
10.88 -0.174431
10.89 -0.187675
10.9 -0.200487
10.91 -0.212903
10.92 -0.224967
10.93 -0.23673
10.94 -0.248236
10.95 -0.259553
10.96 -0.270751
10.97 -0.281882
10.98 -0.292994
10.99 -0.304128
11 -0.315315
11.01 -0.326582
11.02 -0.337927
11.03 -0.349338
11.04 -0.360789
11.05 -0.372244
11.06 -0.383648
11.07 -0.394925
11.08 -0.405986
11.09 -0.416751
11.1 -0.427126
11.11 -0.437013
11.12 -0.446314
11.13 -0.454932
11.14 -0.462677
11.15 -0.469538
11.16 -0.475446
11.17 -0.480338
11.18 -0.484165
11.19 -0.486894
11.2 -0.488455
11.21 -0.488818
11.22 -0.48808
11.23 -0.486273
11.24 -0.483441
11.25 -0.479642
11.26 -0.474942
11.27 -0.469339
11.28 -0.46299
11.29 -0.455991
11.3 -0.448422
11.31 -0.440359
11.32 -0.431876
11.33 -0.423024
11.34 -0.413852
11.35 -0.404428
11.36 -0.394783
11.37 -0.384933
11.38 -0.374886
11.39 -0.364637
11.4 -0.354149
11.41 -0.343409
11.42 -0.332391
11.43 -0.321061
11.44 -0.309382
11.45 -0.297317
11.46 -0.284824
11.47 -0.27184
11.48 -0.258386
11.49 -0.244456
11.5 -0.230053
11.51 -0.21519
11.52 -0.199898
11.53 -0.184191
11.54 -0.168149
11.55 -0.151857
11.56 -0.135396
11.57 -0.118857
11.58 -0.102336
11.59 -0.0859409
11.6 -0.0698104
11.61 -0.0540358
11.62 -0.0387198
11.63 -0.0239602
11.64 -0.00984663
11.65 0.00354063
11.66 0.0160766
11.67 0.0277122
11.68 0.0384512
11.69 0.0482716
11.7 0.0571669
11.71 0.0651455
11.72 0.0722284
11.73 0.078361
11.74 0.083697
11.75 0.0882978
11.76 0.0922329
11.77 0.0955773
11.78 0.0984101
11.79 0.100792
11.8 0.102813
11.81 0.104573
11.82 0.106142
11.83 0.107583
11.84 0.108951
11.85 0.110291
11.86 0.111639
11.87 0.113018
11.88 0.114439
11.89 0.115899
11.9 0.117387
11.91 0.118881
11.92 0.120349
11.93 0.121746
11.94 0.123027
11.95 0.124145
11.96 0.125046
11.97 0.125676
11.98 0.125981
11.99 0.125865
12 0.125299
12.01 0.124242
12.02 0.12265
12.03 0.120482
12.04 0.1177
12.05 0.114251
12.06 0.110071
12.07 0.105193
12.08 0.0995997
12.09 0.0932799
12.1 0.0862251
12.11 0.0784312
12.12 0.0698345
12.13 0.0604799
12.14 0.0503981
12.15 0.0396009
12.16 0.0281037
12.17 0.0159262
