# xPDFsuite Configuration #
[PDF]
wavelength = 0.1
dataformat = QA
inputfile = BiMsol6_insitu_700 C-00716.xy
backgroundfile = Quartz2mm-dist500-00000.xy
mode = xray
bgscale = 0.0042
composition = Bi2Fe4O9
outputtype = gr
qmaxinst = 24.998449118
qmin = 0.1
qmax = 21.4986662415
rmax = 80.0
rmin = 0.0
rstep = 0.01
rpoly = 0.9

[Misc]
inputdir = C:/Data/Seafile/CPH/Beamtime/Desy Oct 20/In situ data/Processed/BiMsol6/PDF
savedir = C:/Data/Seafile/CPH/Beamtime/Desy Oct 20/In situ data/PDF/BiMsol6
backgroundfilefull = C:/Data/Seafile/CPH/Beamtime/Desy Oct 20/In situ data/Processed/Standard_Empty_Cap/Quartz2mm-dist500-00000.xy

#### start data
#S 1
#L r($\AA$)  G($\AA^{-2}$)
0 0
0.01 0.00600945
0.02 0.0116767
0.03 0.0167091
0.04 0.0208439
0.05 0.0238608
0.06 0.0255919
0.07 0.025854
0.08 0.0245941
0.09 0.0219484
0.1 0.018029
0.11 0.0130095
0.12 0.00711759
0.13 0.000624294
0.14 -0.00616502
0.15 -0.0128678
0.16 -0.019161
0.17 -0.0247421
0.18 -0.02934
0.19 -0.032729
0.2 -0.0346773
0.21 -0.035028
0.22 -0.0338765
0.23 -0.0312883
0.24 -0.027403
0.25 -0.0224298
0.26 -0.0166398
0.27 -0.0103423
0.28 -0.00397803
0.29 0.00206067
0.3 0.0073931
0.31 0.0116581
0.32 0.0145319
0.33 0.015687
0.34 0.0148044
0.35 0.011939
0.36 0.00709307
0.37 0.000368822
0.38 -0.00803081
0.39 -0.0178049
0.4 -0.0286028
0.41 -0.0398304
0.42 -0.0509049
0.43 -0.0612337
0.44 -0.0702044
0.45 -0.0772074
0.46 -0.0815988
0.47 -0.0825479
0.48 -0.0798803
0.49 -0.0732632
0.5 -0.0624817
0.51 -0.0474522
0.52 -0.0282321
0.53 -0.00476146
0.54 0.0224243
0.55 0.0526227
0.56 0.0851805
0.57 0.119335
0.58 0.154236
0.59 0.188955
0.6 0.222308
0.61 0.253373
0.62 0.281221
0.63 0.304981
0.64 0.323869
0.65 0.337214
0.66 0.344083
0.67 0.344099
0.68 0.337438
0.69 0.324112
0.7 0.304311
0.71 0.278397
0.72 0.246898
0.73 0.210019
0.74 0.169213
0.75 0.125424
0.76 0.0796531
0.77 0.0329388
0.78 -0.0136719
0.79 -0.0590465
0.8 -0.102047
0.81 -0.141898
0.82 -0.177853
0.83 -0.209296
0.84 -0.235763
0.85 -0.256946
0.86 -0.272143
0.87 -0.281895
0.88 -0.286497
0.89 -0.286314
0.9 -0.281836
0.91 -0.273662
0.92 -0.262387
0.93 -0.248773
0.94 -0.233822
0.95 -0.218308
0.96 -0.202976
0.97 -0.188519
0.98 -0.175559
0.99 -0.164853
1 -0.156717
1.01 -0.151378
1.02 -0.148992
1.03 -0.149593
1.04 -0.153103
1.05 -0.159402
1.06 -0.168306
1.07 -0.179196
1.08 -0.191636
1.09 -0.205151
1.1 -0.219249
1.11 -0.233442
1.12 -0.247196
1.13 -0.260051
1.14 -0.271665
1.15 -0.281748
1.16 -0.290087
1.17 -0.296548
1.18 -0.30105
1.19 -0.303478
1.2 -0.304148
1.21 -0.303246
1.22 -0.301009
1.23 -0.297712
1.24 -0.293655
1.25 -0.289139
1.26 -0.28452
1.27 -0.280095
1.28 -0.276108
1.29 -0.27276
1.3 -0.270199
1.31 -0.268523
1.32 -0.267858
1.33 -0.268066
1.34 -0.269052
1.35 -0.270678
1.36 -0.272765
1.37 -0.275108
1.38 -0.277473
1.39 -0.279597
1.4 -0.281265
1.41 -0.282285
1.42 -0.282497
1.43 -0.281781
1.44 -0.280064
1.45 -0.277215
1.46 -0.273392
1.47 -0.268699
1.48 -0.263285
1.49 -0.257341
1.5 -0.251091
1.51 -0.244794
1.52 -0.238754
1.53 -0.233232
1.54 -0.228471
1.55 -0.22469
1.56 -0.222068
1.57 -0.22074
1.58 -0.220925
1.59 -0.222516
1.6 -0.225432
1.61 -0.229551
1.62 -0.234693
1.63 -0.240623
1.64 -0.247068
1.65 -0.253676
1.66 -0.260066
1.67 -0.265888
1.68 -0.270799
1.69 -0.274474
1.7 -0.276623
1.71 -0.276818
1.72 -0.274965
1.73 -0.270999
1.74 -0.264876
1.75 -0.256622
1.76 -0.246337
1.77 -0.234144
1.78 -0.220202
1.79 -0.204975
1.8 -0.1888
1.81 -0.172042
1.82 -0.155082
1.83 -0.138302
1.84 -0.122143
1.85 -0.106965
1.86 -0.0930367
1.87 -0.0805986
1.88 -0.0698296
1.89 -0.0608434
1.9 -0.0537105
1.91 -0.0485513
1.92 -0.0450673
1.93 -0.0430869
1.94 -0.0423863
1.95 -0.0426999
1.96 -0.0437313
1.97 -0.0451719
1.98 -0.0466523
1.99 -0.0478536
2 -0.0485023
2.01 -0.0483645
2.02 -0.0472565
2.03 -0.0450488
2.04 -0.041555
2.05 -0.0369296
2.06 -0.031269
2.07 -0.0247362
2.08 -0.0175547
2.09 -0.010001
2.1 -0.00241287
2.11 0.00480001
2.12 0.0112665
2.13 0.0166159
2.14 0.0204922
2.15 0.0225679
2.16 0.0225565
2.17 0.0199517
2.18 0.0148165
2.19 0.0070889
2.2 -0.00323451
2.21 -0.0160796
2.22 -0.0312961
2.23 -0.048745
2.24 -0.068135
2.25 -0.0889563
2.26 -0.110808
2.27 -0.133259
2.28 -0.155864
2.29 -0.178175
2.3 -0.199646
2.31 -0.219889
2.32 -0.238566
2.33 -0.255374
2.34 -0.270078
2.35 -0.282508
2.36 -0.292486
2.37 -0.299882
2.38 -0.304964
2.39 -0.307873
2.4 -0.308809
2.41 -0.308026
2.42 -0.305819
2.43 -0.302451
2.44 -0.298375
2.45 -0.293974
2.46 -0.28959
2.47 -0.285542
2.48 -0.28212
2.49 -0.279597
2.5 -0.278267
2.51 -0.278176
2.52 -0.279397
2.53 -0.281947
2.54 -0.285789
2.55 -0.290832
2.56 -0.297007
2.57 -0.304072
2.58 -0.31177
2.59 -0.319871
2.6 -0.328132
2.61 -0.336314
2.62 -0.344177
2.63 -0.351436
2.64 -0.357948
2.65 -0.363565
2.66 -0.368177
2.67 -0.371713
2.68 -0.374142
2.69 -0.375404
2.7 -0.375574
2.71 -0.374795
2.72 -0.373183
2.73 -0.370873
2.74 -0.368013
2.75 -0.364762
2.76 -0.361267
2.77 -0.357717
2.78 -0.354245
2.79 -0.350969
2.8 -0.347978
2.81 -0.345341
2.82 -0.343121
2.83 -0.34133
2.84 -0.339926
2.85 -0.338865
2.86 -0.338084
2.87 -0.337507
2.88 -0.337044
2.89 -0.33659
2.9 -0.336038
2.91 -0.335296
2.92 -0.334281
2.93 -0.33292
2.94 -0.331157
2.95 -0.328928
2.96 -0.326193
2.97 -0.322979
2.98 -0.319293
2.99 -0.315155
3 -0.310591
3.01 -0.305629
3.02 -0.300268
3.03 -0.294559
3.04 -0.288521
3.05 -0.282153
3.06 -0.275435
3.07 -0.268326
3.08 -0.260749
3.09 -0.25258
3.1 -0.243751
3.11 -0.234135
3.12 -0.223594
3.13 -0.211976
3.14 -0.199128
3.15 -0.184765
3.16 -0.168798
3.17 -0.151144
3.18 -0.1317
3.19 -0.110388
3.2 -0.0871668
3.21 -0.061992
3.22 -0.0347709
3.23 -0.00578211
3.24 0.0248347
3.25 0.0568955
3.26 0.090174
3.27 0.124406
3.28 0.159316
3.29 0.194509
3.3 0.22961
3.31 0.264256
3.32 0.298085
3.33 0.33074
3.34 0.36186
3.35 0.390911
3.36 0.417782
3.37 0.442227
3.38 0.464046
3.39 0.483082
3.4 0.499227
3.41 0.512236
3.42 0.522129
3.43 0.529113
3.44 0.533278
3.45 0.534751
3.46 0.53369
3.47 0.530281
3.48 0.524504
3.49 0.516845
3.5 0.507531
3.51 0.496785
3.52 0.484823
3.53 0.47185
3.54 0.458022
3.55 0.443521
3.56 0.428544
3.57 0.413213
3.58 0.397628
3.59 0.38187
3.6 0.366004
3.61 0.350076
3.62 0.33413
3.63 0.318195
3.64 0.302296
3.65 0.286461
3.66 0.270718
3.67 0.255113
3.68 0.239709
3.69 0.224558
3.7 0.209736
3.71 0.195333
3.72 0.18145
3.73 0.168201
3.74 0.155789
3.75 0.144308
3.76 0.133871
3.77 0.12461
3.78 0.116651
3.79 0.110114
3.8 0.105152
3.81 0.101964
3.82 0.100484
3.83 0.100761
3.84 0.102824
3.85 0.106678
3.86 0.112309
3.87 0.119815
3.88 0.129043
3.89 0.139852
3.9 0.152142
3.91 0.1658
3.92 0.180704
3.93 0.196739
3.94 0.21383
3.95 0.231731
3.96 0.250303
3.97 0.26941
3.98 0.288923
3.99 0.308715
4 0.32867
4.01 0.348658
4.02 0.368569
4.03 0.388303
4.04 0.40777
4.05 0.426878
4.06 0.445539
4.07 0.463604
4.08 0.481039
4.09 0.497759
4.1 0.513678
4.11 0.528706
4.12 0.542754
4.13 0.555658
4.14 0.567315
4.15 0.577694
4.16 0.586703
4.17 0.594256
4.18 0.60027
4.19 0.604671
4.2 0.607197
4.21 0.607975
4.22 0.606974
4.23 0.604171
4.24 0.599557
4.25 0.593143
4.26 0.584865
4.27 0.574742
4.28 0.562952
4.29 0.549568
4.3 0.534674
4.31 0.518363
4.32 0.500737
4.33 0.481788
4.34 0.461743
4.35 0.440726
4.36 0.418842
4.37 0.396192
4.38 0.37287
4.39 0.348941
4.4 0.324474
4.41 0.299581
4.42 0.274319
4.43 0.24874
4.44 0.222889
4.45 0.196805
4.46 0.170511
4.47 0.144057
4.48 0.117486
4.49 0.090836
4.5 0.0641512
4.51 0.0374815
4.52 0.010888
4.53 -0.0155453
4.54 -0.04175
4.55 -0.0676423
4.56 -0.093131
4.57 -0.11812
4.58 -0.142507
4.59 -0.166125
4.6 -0.188888
4.61 -0.210725
4.62 -0.231544
4.63 -0.251261
4.64 -0.269804
4.65 -0.287096
4.66 -0.302981
4.67 -0.317566
4.68 -0.330846
4.69 -0.342838
4.7 -0.353575
4.71 -0.363108
4.72 -0.37143
4.73 -0.378659
4.74 -0.384943
4.75 -0.390383
4.76 -0.395087
4.77 -0.399162
4.78 -0.402715
4.79 -0.405816
4.8 -0.408614
4.81 -0.411195
4.82 -0.413631
4.83 -0.415982
4.84 -0.418296
4.85 -0.420604
4.86 -0.422925
4.87 -0.425263
4.88 -0.427605
4.89 -0.429934
4.9 -0.43222
4.91 -0.434429
4.92 -0.436507
4.93 -0.438421
4.94 -0.440134
4.95 -0.441607
4.96 -0.44281
4.97 -0.443714
4.98 -0.444281
4.99 -0.444487
5 -0.444346
5.01 -0.443856
5.02 -0.443017
5.03 -0.441835
5.04 -0.440315
5.05 -0.438432
5.06 -0.43622
5.07 -0.433685
5.08 -0.430827
5.09 -0.427639
5.1 -0.424109
5.11 -0.420205
5.12 -0.415885
5.13 -0.41115
5.14 -0.405968
5.15 -0.400308
5.16 -0.394138
5.17 -0.387429
5.18 -0.380107
5.19 -0.372187
5.2 -0.363681
5.21 -0.354598
5.22 -0.344959
5.23 -0.334799
5.24 -0.324161
5.25 -0.313094
5.26 -0.301727
5.27 -0.29016
5.28 -0.278503
5.29 -0.266877
5.3 -0.255408
5.31 -0.24426
5.32 -0.233567
5.33 -0.223443
5.34 -0.214
5.35 -0.205343
5.36 -0.19756
5.37 -0.190731
5.38 -0.185
5.39 -0.180288
5.4 -0.176593
5.41 -0.173889
5.42 -0.172129
5.43 -0.171245
5.44 -0.171197
5.45 -0.171853
5.46 -0.173057
5.47 -0.174687
5.48 -0.176617
5.49 -0.178719
5.5 -0.180875
5.51 -0.182952
5.52 -0.184851
5.53 -0.18649
5.54 -0.187805
5.55 -0.188749
5.56 -0.189293
5.57 -0.189405
5.58 -0.189092
5.59 -0.188403
5.6 -0.187374
5.61 -0.186047
5.62 -0.184469
5.63 -0.182689
5.64 -0.180737
5.65 -0.17867
5.66 -0.17651
5.67 -0.174269
5.68 -0.171939
5.69 -0.169498
5.7 -0.166894
5.71 -0.164052
5.72 -0.160906
5.73 -0.157364
5.74 -0.153324
5.75 -0.148679
5.76 -0.143319
5.77 -0.137046
5.78 -0.129815
5.79 -0.121559
5.8 -0.112211
5.81 -0.101726
5.82 -0.0900855
5.83 -0.0772593
5.84 -0.0632364
5.85 -0.048187
5.86 -0.0322139
5.87 -0.0154464
5.88 0.00196176
5.89 0.0198367
5.9 0.0379947
5.91 0.056194
5.92 0.0742212
5.93 0.0918739
5.94 0.108958
5.95 0.125295
5.96 0.140702
5.97 0.154955
5.98 0.168045
5.99 0.179908
6 0.190512
6.01 0.199861
6.02 0.207991
6.03 0.214891
6.04 0.220713
6.05 0.225632
6.06 0.229791
6.07 0.233347
6.08 0.236461
6.09 0.239294
6.1 0.242004
6.11 0.244755
6.12 0.247663
6.13 0.250818
6.14 0.254283
6.15 0.258089
6.16 0.262255
6.17 0.26673
6.18 0.271422
6.19 0.276226
6.2 0.281011
6.21 0.285627
6.22 0.289906
6.23 0.293589
6.24 0.296539
6.25 0.298579
6.26 0.299544
6.27 0.299284
6.28 0.297673
6.29 0.29453
6.3 0.28976
6.31 0.28343
6.32 0.275545
6.33 0.266146
6.34 0.255304
6.35 0.243124
6.36 0.229625
6.37 0.215093
6.38 0.199716
6.39 0.183682
6.4 0.167179
6.41 0.150399
6.42 0.133526
6.43 0.116757
6.44 0.100245
6.45 0.0841153
6.46 0.0684701
6.47 0.0533836
6.48 0.0389022
6.49 0.0251032
6.5 0.011928
6.51 -0.000675847
6.52 -0.0127677
6.53 -0.0244237
6.54 -0.0357322
6.55 -0.0467857
6.56 -0.0576886
6.57 -0.0685579
6.58 -0.0794827
6.59 -0.0905405
6.6 -0.101794
6.61 -0.113288
6.62 -0.125071
6.63 -0.13713
6.64 -0.149432
6.65 -0.161936
6.66 -0.174577
6.67 -0.187277
6.68 -0.199939
6.69 -0.212433
6.7 -0.224651
6.71 -0.236477
6.72 -0.247794
6.73 -0.258493
6.74 -0.268469
6.75 -0.277561
6.76 -0.285703
6.77 -0.292864
6.78 -0.298997
6.79 -0.304063
6.8 -0.308042
6.81 -0.310914
6.82 -0.312574
6.83 -0.313152
6.84 -0.312668
6.85 -0.311142
6.86 -0.308598
6.87 -0.305056
6.88 -0.300473
6.89 -0.294866
6.9 -0.288293
6.91 -0.280746
6.92 -0.272211
6.93 -0.262666
6.94 -0.252081
6.95 -0.240293
6.96 -0.227381
6.97 -0.213308
6.98 -0.198036
6.99 -0.181532
7 -0.163773
7.01 -0.14468
7.02 -0.12423
7.03 -0.102528
7.04 -0.0796051
7.05 -0.0555145
7.06 -0.0303253
7.07 -0.00412469
7.08 0.0230642
7.09 0.0510249
7.1 0.0796086
7.11 0.108668
7.12 0.138049
7.13 0.167591
7.14 0.197129
7.15 0.226474
7.16 0.255478
7.17 0.283997
7.18 0.311898
7.19 0.339061
7.2 0.365382
7.21 0.390674
7.22 0.41492
7.23 0.438085
7.24 0.460126
7.25 0.481011
7.26 0.500719
7.27 0.519201
7.28 0.536375
7.29 0.552342
7.3 0.567096
7.31 0.580628
7.32 0.592925
7.33 0.603968
7.34 0.613621
7.35 0.6219
7.36 0.628807
7.37 0.634286
7.38 0.638277
7.39 0.640713
7.4 0.641497
7.41 0.640411
7.42 0.637551
7.43 0.632858
7.44 0.626281
7.45 0.617779
7.46 0.607329
7.47 0.594784
7.48 0.580206
7.49 0.563724
7.5 0.545394
7.51 0.525298
7.52 0.503534
7.53 0.480217
7.54 0.455357
7.55 0.429284
7.56 0.402171
7.57 0.374204
7.58 0.345574
7.59 0.316478
7.6 0.28711
7.61 0.257693
7.62 0.22843
7.63 0.199499
7.64 0.171066
7.65 0.143286
7.66 0.116297
7.67 0.0903379
7.68 0.0654238
7.69 0.0416361
7.7 0.0190446
7.71 -0.0022963
7.72 -0.0223464
7.73 -0.0410146
7.74 -0.0582558
7.75 -0.0741582
7.76 -0.0887266
7.77 -0.101972
7.78 -0.113912
7.79 -0.124567
7.8 -0.133836
7.81 -0.141856
7.82 -0.148678
7.83 -0.154332
7.84 -0.158852
7.85 -0.162273
7.86 -0.164597
7.87 -0.165826
7.88 -0.16609
7.89 -0.165439
7.9 -0.163927
7.91 -0.161612
7.92 -0.158556
7.93 -0.154771
7.94 -0.150379
7.95 -0.145471
7.96 -0.140124
7.97 -0.134414
7.98 -0.128417
7.99 -0.122204
8 -0.115846
8.01 -0.109427
8.02 -0.103007
8.03 -0.096639
8.04 -0.0903678
8.05 -0.0842303
8.06 -0.0782693
8.07 -0.0724988
8.08 -0.0669214
8.09 -0.0615386
8.1 -0.056345
8.11 -0.05133
8.12 -0.0464811
8.13 -0.0417914
8.14 -0.0372264
8.15 -0.0327688
8.16 -0.0284042
8.17 -0.0241219
8.18 -0.0199163
8.19 -0.0157931
8.2 -0.0117598
8.21 -0.00782757
8.22 -0.0040179
8.23 -0.000357955
8.24 0.00312028
8.25 0.00638033
8.26 0.00935176
8.27 0.012022
8.28 0.014355
8.29 0.0163178
8.3 0.0178833
8.31 0.0190309
8.32 0.0197237
8.33 0.0199579
8.34 0.0197692
8.35 0.0191775
8.36 0.0182127
8.37 0.0169138
8.38 0.0153282
8.39 0.013491
8.4 0.0114915
8.41 0.00939375
8.42 0.00725989
8.43 0.00514959
8.44 0.00311767
8.45 0.00121939
8.46 -0.000498412
8.47 -0.00202131
8.48 -0.00333807
8.49 -0.00445117
8.5 -0.0053771
8.51 -0.00614632
8.52 -0.00679706
8.53 -0.00740257
8.54 -0.00803387
8.55 -0.00876774
8.56 -0.00968632
8.57 -0.0108744
8.58 -0.0124316
8.59 -0.0144712
8.6 -0.017036
8.61 -0.02019
8.62 -0.0239856
8.63 -0.0284618
8.64 -0.0336426
8.65 -0.0395975
8.66 -0.0462734
8.67 -0.0536201
8.68 -0.0615938
8.69 -0.0701367
8.7 -0.0791788
8.71 -0.0886482
8.72 -0.098469
8.73 -0.108511
8.74 -0.11868
8.75 -0.128884
8.76 -0.139036
8.77 -0.149054
8.78 -0.158845
8.79 -0.168347
8.8 -0.177521
8.81 -0.186333
8.82 -0.19476
8.83 -0.202789
8.84 -0.210416
8.85 -0.217618
8.86 -0.224453
8.87 -0.230949
8.88 -0.237131
8.89 -0.243028
8.9 -0.24867
8.91 -0.254065
8.92 -0.25924
8.93 -0.264216
8.94 -0.268997
8.95 -0.273578
8.96 -0.277945
8.97 -0.282078
8.98 -0.285912
8.99 -0.28944
9 -0.292622
9.01 -0.295414
9.02 -0.297776
9.03 -0.299668
9.04 -0.301025
9.05 -0.301811
9.06 -0.302039
9.07 -0.301702
9.08 -0.300802
9.09 -0.299356
9.1 -0.29739
9.11 -0.294897
9.12 -0.291978
9.13 -0.288701
9.14 -0.285133
9.15 -0.281347
9.16 -0.277419
9.17 -0.273425
9.18 -0.269447
9.19 -0.265558
9.2 -0.261814
9.21 -0.258263
9.22 -0.254944
9.23 -0.251878
9.24 -0.249103
9.25 -0.246592
9.26 -0.244319
9.27 -0.242254
9.28 -0.240354
9.29 -0.238569
9.3 -0.236842
9.31 -0.235104
9.32 -0.233293
9.33 -0.23135
9.34 -0.229223
9.35 -0.226869
9.36 -0.224252
9.37 -0.221327
9.38 -0.218098
9.39 -0.214582
9.4 -0.2108
9.41 -0.206786
9.42 -0.202584
9.43 -0.198247
9.44 -0.193839
9.45 -0.189439
9.46 -0.185114
9.47 -0.18093
9.48 -0.176946
9.49 -0.173213
9.5 -0.169793
9.51 -0.166705
9.52 -0.163942
9.53 -0.16149
9.54 -0.159319
9.55 -0.157381
9.56 -0.155609
9.57 -0.153917
9.58 -0.152188
9.59 -0.150311
9.6 -0.148165
9.61 -0.145626
9.62 -0.142571
9.63 -0.138827
9.64 -0.13427
9.65 -0.128833
9.66 -0.122429
9.67 -0.114986
9.68 -0.106453
9.69 -0.0968003
9.7 -0.0858892
9.71 -0.0738674
9.72 -0.0607773
9.73 -0.0466797
9.74 -0.0316533
9.75 -0.0157928
9.76 0.000825205
9.77 0.018073
9.78 0.0357792
9.79 0.053817
9.8 0.0720611
9.81 0.0903908
9.82 0.108693
9.83 0.126841
9.84 0.14475
9.85 0.162347
9.86 0.179574
9.87 0.196386
9.88 0.212754
9.89 0.228642
9.9 0.24403
9.91 0.258959
9.92 0.273444
9.93 0.287505
9.94 0.301161
9.95 0.314434
9.96 0.327308
9.97 0.33982
9.98 0.351984
9.99 0.363795
10 0.375238
10.01 0.386291
10.02 0.396909
10.03 0.407016
10.04 0.416603
10.05 0.425613
10.06 0.433992
10.07 0.441682
10.08 0.448627
10.09 0.45471
10.1 0.45992
10.11 0.464253
10.12 0.467692
10.13 0.470228
10.14 0.471872
10.15 0.472631
10.16 0.472484
10.17 0.471572
10.18 0.469966
10.19 0.467749
10.2 0.465011
10.21 0.461852
10.22 0.45836
10.23 0.454663
10.24 0.45088
10.25 0.44711
10.26 0.443442
10.27 0.43996
10.28 0.436735
10.29 0.433859
10.3 0.431338
10.31 0.429192
10.32 0.427423
10.33 0.426018
10.34 0.424947
10.35 0.424181
10.36 0.42365
10.37 0.423267
10.38 0.422953
10.39 0.422623
10.4 0.422186
10.41 0.421551
10.42 0.420585
10.43 0.419225
10.44 0.41739
10.45 0.415005
10.46 0.412005
10.47 0.408331
10.48 0.403898
10.49 0.398648
10.5 0.392605
10.51 0.385753
10.52 0.378082
10.53 0.369593
10.54 0.360292
10.55 0.350115
10.56 0.339151
10.57 0.327437
10.58 0.315001
10.59 0.301875
10.6 0.28809
10.61 0.27366
10.62 0.258605
10.63 0.243011
10.64 0.226921
10.65 0.210378
10.66 0.193428
10.67 0.176117
10.68 0.158474
10.69 0.140579
10.7 0.122495
10.71 0.104281
10.72 0.0859987
10.73 0.0677092
10.74 0.0494788
10.75 0.0313859
10.76 0.013485
10.77 -0.00416576
10.78 -0.0215124
10.79 -0.0385061
10.8 -0.0551045
10.81 -0.0712365
10.82 -0.0868922
10.83 -0.102074
10.84 -0.116778
10.85 -0.13101
10.86 -0.144787
10.87 -0.158129
10.88 -0.171042
10.89 -0.183615
10.9 -0.195898
10.91 -0.207946
10.92 -0.219816
10.93 -0.231565
10.94 -0.243248
10.95 -0.254923
10.96 -0.266636
10.97 -0.27842
10.98 -0.2903
10.99 -0.302288
11 -0.314382
11.01 -0.326575
11.02 -0.338826
11.03 -0.351089
11.04 -0.363308
11.05 -0.375417
11.06 -0.387339
11.07 -0.39897
11.08 -0.410205
11.09 -0.420969
11.1 -0.431172
11.11 -0.440723
11.12 -0.44954
11.13 -0.457545
11.14 -0.46457
11.15 -0.470646
11.16 -0.475738
11.17 -0.47982
11.18 -0.482878
11.19 -0.484912
11.2 -0.485889
11.21 -0.485815
11.22 -0.484799
11.23 -0.482887
11.24 -0.480132
11.25 -0.47659
11.26 -0.47232
11.27 -0.467321
11.28 -0.461709
11.29 -0.455549
11.3 -0.448885
11.31 -0.441758
11.32 -0.434197
11.33 -0.426212
11.34 -0.417799
11.35 -0.408995
11.36 -0.399796
11.37 -0.390193
11.38 -0.380173
11.39 -0.369717
11.4 -0.358765
11.41 -0.347325
11.42 -0.335396
11.43 -0.322966
11.44 -0.310033
11.45 -0.296601
11.46 -0.28267
11.47 -0.268236
11.48 -0.253377
11.49 -0.238138
11.5 -0.222573
11.51 -0.206745
11.52 -0.190724
11.53 -0.174582
11.54 -0.158418
11.55 -0.142319
11.56 -0.12637
11.57 -0.110654
11.58 -0.0952511
11.59 -0.0802427
11.6 -0.065746
11.61 -0.0517774
11.62 -0.038386
11.63 -0.0256108
11.64 -0.0134809
11.65 -0.00201492
11.66 0.00873397
11.67 0.0187784
11.68 0.0281646
11.69 0.0369114
11.7 0.0450442
11.71 0.0525931
11.72 0.0595905
11.73 0.0660184
11.74 0.0719757
11.75 0.0774981
11.76 0.0826197
11.77 0.0873718
11.78 0.0917826
11.79 0.0958605
11.8 0.0996264
11.81 0.103115
11.82 0.106339
11.83 0.109306
11.84 0.112022
11.85 0.11449
11.86 0.116684
11.87 0.118629
11.88 0.120325
11.89 0.121772
11.9 0.122967
11.91 0.123911
11.92 0.124591
11.93 0.124998
11.94 0.125151
11.95 0.125048
11.96 0.124685
11.97 0.124059
11.98 0.123163
11.99 0.121957
12 0.12045
12.01 0.118626
12.02 0.116464
12.03 0.113936
12.04 0.111011
12.05 0.107635
12.06 0.10374
12.07 0.0993182
12.08 0.0943244
12.09 0.0887123
12.1 0.0824366
12.11 0.0754539
12.12 0.0676573
12.13 0.0590499
12.14 0.0496298
12.15 0.0393799
12.16 0.0282935
12.17 0.0163749
12.18 0.00362322
12.19 -0.00998485
