# xPDFsuite Configuration #
[PDF]
wavelength = 0.1
dataformat = QA
inputfile = BiMsol6_insitu_700 C-00572.xy
backgroundfile = Quartz2mm-dist500-00000.xy
mode = xray
bgscale = 0.0042
composition = Bi2Fe4O9
outputtype = gr
qmaxinst = 24.998449118
qmin = 0.1
qmax = 21.4986662415
rmax = 80.0
rmin = 0.0
rstep = 0.01
rpoly = 0.9

[Misc]
inputdir = C:/Data/Seafile/CPH/Beamtime/Desy Oct 20/In situ data/Processed/BiMsol6/PDF
savedir = C:/Data/Seafile/CPH/Beamtime/Desy Oct 20/In situ data/PDF/BiMsol6
backgroundfilefull = C:/Data/Seafile/CPH/Beamtime/Desy Oct 20/In situ data/Processed/Standard_Empty_Cap/Quartz2mm-dist500-00000.xy

#### start data
#S 1
#L r($\AA$)  G($\AA^{-2}$)
0 0
0.01 0.00620961
0.02 0.0120652
0.03 0.0172638
0.04 0.0215338
0.05 0.0246475
0.06 0.0264316
0.07 0.026697
0.08 0.0253897
0.09 0.0226511
0.1 0.0185982
0.11 0.0134115
0.12 0.00732713
0.13 0.000626292
0.14 -0.00637388
0.15 -0.0132779
0.16 -0.0197518
0.17 -0.0254829
0.18 -0.0301915
0.19 -0.033645
0.2 -0.0356051
0.21 -0.0359113
0.22 -0.0346642
0.23 -0.0319334
0.24 -0.0278654
0.25 -0.0226783
0.26 -0.0166539
0.27 -0.0101143
0.28 -0.00351534
0.29 0.00273738
0.3 0.00825069
0.31 0.0126523
0.32 0.015609
0.33 0.0167845
0.34 0.0158519
0.35 0.0128713
0.36 0.00784838
0.37 0.000891593
0.38 -0.00778653
0.39 -0.0178727
0.4 -0.0290021
0.41 -0.040561
0.42 -0.0519487
0.43 -0.0625551
0.44 -0.0717511
0.45 -0.0789124
0.46 -0.0833801
0.47 -0.0843061
0.48 -0.0815186
0.49 -0.0746836
0.5 -0.063589
0.51 -0.0481585
0.52 -0.0284607
0.53 -0.00444741
0.54 0.0233231
0.55 0.0541243
0.56 0.0872805
0.57 0.122006
0.58 0.157426
0.59 0.192592
0.6 0.226289
0.61 0.257588
0.62 0.28555
0.63 0.309297
0.64 0.328046
0.65 0.341129
0.66 0.347617
0.67 0.347152
0.68 0.339936
0.69 0.326005
0.7 0.305574
0.71 0.279034
0.72 0.246941
0.73 0.209536
0.74 0.168293
0.75 0.124177
0.76 0.0782038
0.77 0.0314233
0.78 -0.015113
0.79 -0.060268
0.8 -0.102912
0.81 -0.142297
0.82 -0.177697
0.83 -0.208526
0.84 -0.234349
0.85 -0.254895
0.86 -0.269505
0.87 -0.278756
0.88 -0.282977
0.89 -0.282562
0.9 -0.278027
0.91 -0.26999
0.92 -0.259063
0.93 -0.246021
0.94 -0.231842
0.95 -0.217282
0.96 -0.20306
0.97 -0.189836
0.98 -0.178192
0.99 -0.168836
1 -0.162028
1.01 -0.157937
1.02 -0.156669
1.03 -0.158209
1.04 -0.16243
1.05 -0.169166
1.06 -0.17818
1.07 -0.188859
1.08 -0.200759
1.09 -0.213411
1.1 -0.226339
1.11 -0.239084
1.12 -0.251138
1.13 -0.262113
1.14 -0.271737
1.15 -0.279791
1.16 -0.286135
1.17 -0.290713
1.18 -0.293523
1.19 -0.294552
1.2 -0.294161
1.21 -0.292589
1.22 -0.290117
1.23 -0.28705
1.24 -0.283703
1.25 -0.280408
1.26 -0.277486
1.27 -0.275174
1.28 -0.273663
1.29 -0.273086
1.3 -0.273512
1.31 -0.274949
1.32 -0.277418
1.33 -0.280669
1.34 -0.284506
1.35 -0.288693
1.36 -0.292963
1.37 -0.29703
1.38 -0.300557
1.39 -0.303226
1.4 -0.304824
1.41 -0.305145
1.42 -0.304039
1.43 -0.301414
1.44 -0.297245
1.45 -0.291421
1.46 -0.284242
1.47 -0.275912
1.48 -0.266687
1.49 -0.25687
1.5 -0.246802
1.51 -0.236871
1.52 -0.227513
1.53 -0.219074
1.54 -0.211887
1.55 -0.206242
1.56 -0.202373
1.57 -0.200449
1.58 -0.200775
1.59 -0.203178
1.6 -0.207533
1.61 -0.213669
1.62 -0.221339
1.63 -0.230225
1.64 -0.239969
1.65 -0.250105
1.66 -0.260118
1.67 -0.269545
1.68 -0.277932
1.69 -0.284851
1.7 -0.289913
1.71 -0.292566
1.72 -0.292667
1.73 -0.290116
1.74 -0.284839
1.75 -0.276853
1.76 -0.266265
1.77 -0.253213
1.78 -0.237876
1.79 -0.220831
1.8 -0.20249
1.81 -0.183304
1.82 -0.163744
1.83 -0.144289
1.84 -0.125483
1.85 -0.107789
1.86 -0.0915581
1.87 -0.0771049
1.88 -0.0646708
1.89 -0.0544178
1.9 -0.0464568
1.91 -0.0409657
1.92 -0.0375985
1.93 -0.0361657
1.94 -0.0364114
1.95 -0.0380245
1.96 -0.0406525
1.97 -0.0439323
1.98 -0.0474075
1.99 -0.0506729
2 -0.0533789
2.01 -0.0552184
2.02 -0.0559388
2.03 -0.0553483
2.04 -0.0531739
2.05 -0.0495564
2.06 -0.0445654
2.07 -0.0383491
2.08 -0.0311292
2.09 -0.0231923
2.1 -0.0148812
2.11 -0.00664294
2.12 0.00108936
2.13 0.00789578
2.14 0.0133666
2.15 0.017118
2.16 0.0188071
2.17 0.0178635
2.18 0.0142979
2.19 0.00800402
2.2 -0.00105886
2.21 -0.012846
2.22 -0.0272276
2.23 -0.0440871
2.24 -0.0631408
2.25 -0.0838532
2.26 -0.105807
2.27 -0.128547
2.28 -0.151601
2.29 -0.174485
2.3 -0.196625
2.31 -0.217582
2.32 -0.23698
2.33 -0.254483
2.34 -0.269823
2.35 -0.282803
2.36 -0.29322
2.37 -0.300921
2.38 -0.306175
2.39 -0.309119
2.4 -0.30996
2.41 -0.308958
2.42 -0.306424
2.43 -0.302633
2.44 -0.298068
2.45 -0.293136
2.46 -0.288203
2.47 -0.283613
2.48 -0.279675
2.49 -0.276683
2.5 -0.274956
2.51 -0.274544
2.52 -0.27553
2.53 -0.277934
2.54 -0.281718
2.55 -0.286787
2.56 -0.293069
2.57 -0.300308
2.58 -0.308232
2.59 -0.316595
2.6 -0.32514
2.61 -0.333614
2.62 -0.341764
2.63 -0.34929
2.64 -0.356041
2.65 -0.361862
2.66 -0.366639
2.67 -0.370301
2.68 -0.372819
2.69 -0.374134
2.7 -0.374329
2.71 -0.373556
2.72 -0.371939
2.73 -0.369622
2.74 -0.366762
2.75 -0.363523
2.76 -0.36006
2.77 -0.356564
2.78 -0.353168
2.79 -0.349985
2.8 -0.347102
2.81 -0.344578
2.82 -0.342464
2.83 -0.340759
2.84 -0.339407
2.85 -0.338348
2.86 -0.337507
2.87 -0.336792
2.88 -0.3361
2.89 -0.335307
2.9 -0.334307
2.91 -0.333004
2.92 -0.331317
2.93 -0.329177
2.94 -0.326537
2.95 -0.323342
2.96 -0.319567
2.97 -0.315267
2.98 -0.31047
2.99 -0.305219
3 -0.299565
3.01 -0.293562
3.02 -0.28724
3.03 -0.280669
3.04 -0.273887
3.05 -0.266907
3.06 -0.25972
3.07 -0.252295
3.08 -0.244563
3.09 -0.236405
3.1 -0.227734
3.11 -0.218415
3.12 -0.208294
3.13 -0.197206
3.14 -0.184979
3.15 -0.171314
3.16 -0.156099
3.17 -0.139231
3.18 -0.12059
3.19 -0.100086
3.2 -0.077668
3.21 -0.0532846
3.22 -0.0268392
3.23 0.00138666
3.24 0.0312477
3.25 0.0625513
3.26 0.0950603
3.27 0.128497
3.28 0.162569
3.29 0.196866
3.3 0.231
3.31 0.264601
3.32 0.297296
3.33 0.328727
3.34 0.358531
3.35 0.386174
3.36 0.411566
3.37 0.434481
3.38 0.454741
3.39 0.472218
3.4 0.486837
3.41 0.498394
3.42 0.506953
3.43 0.512757
3.44 0.515932
3.45 0.516641
3.46 0.515076
3.47 0.511448
3.48 0.505798
3.49 0.49859
3.5 0.490054
3.51 0.48041
3.52 0.469861
3.53 0.458589
3.54 0.446732
3.55 0.434433
3.56 0.421826
3.57 0.408982
3.58 0.395949
3.59 0.382754
3.6 0.369407
3.61 0.355884
3.62 0.342188
3.63 0.328306
3.64 0.314229
3.65 0.299956
3.66 0.285502
3.67 0.270892
3.68 0.256184
3.69 0.241467
3.7 0.226843
3.71 0.212432
3.72 0.198377
3.73 0.184836
3.74 0.172062
3.75 0.160207
3.76 0.149439
3.77 0.139936
3.78 0.131869
3.79 0.125393
3.8 0.120698
3.81 0.118015
3.82 0.117268
3.83 0.118503
3.84 0.121731
3.85 0.126934
3.86 0.134059
3.87 0.143166
3.88 0.154036
3.89 0.166465
3.9 0.180291
3.91 0.195337
3.92 0.211417
3.93 0.22835
3.94 0.245976
3.95 0.264029
3.96 0.282335
3.97 0.300734
3.98 0.31908
3.99 0.337247
4 0.355099
4.01 0.372545
4.02 0.389531
4.03 0.406007
4.04 0.421937
4.05 0.437293
4.06 0.452053
4.07 0.466138
4.08 0.479602
4.09 0.492426
4.1 0.504589
4.11 0.51606
4.12 0.526799
4.13 0.536704
4.14 0.545704
4.15 0.553768
4.16 0.560813
4.17 0.566746
4.18 0.571471
4.19 0.574889
4.2 0.576736
4.21 0.577065
4.22 0.575801
4.23 0.572876
4.24 0.568239
4.25 0.561853
4.26 0.553617
4.27 0.543507
4.28 0.531676
4.29 0.518176
4.3 0.503081
4.31 0.48648
4.32 0.468482
4.33 0.449087
4.34 0.428549
4.35 0.407025
4.36 0.384649
4.37 0.361556
4.38 0.337877
4.39 0.313717
4.4 0.289186
4.41 0.264414
4.42 0.23948
4.43 0.214449
4.44 0.189373
4.45 0.164291
4.46 0.139233
4.47 0.114215
4.48 0.0892458
4.49 0.0643313
4.5 0.0394764
4.51 0.014689
4.52 -0.0100155
4.53 -0.0346064
4.54 -0.0590581
4.55 -0.0833263
4.56 -0.107354
4.57 -0.131073
4.58 -0.154403
4.59 -0.177206
4.6 -0.199388
4.61 -0.220863
4.62 -0.24152
4.63 -0.261251
4.64 -0.279953
4.65 -0.297512
4.66 -0.313729
4.67 -0.328655
4.68 -0.342242
4.69 -0.354463
4.7 -0.365311
4.71 -0.374802
4.72 -0.382887
4.73 -0.389665
4.74 -0.395285
4.75 -0.399849
4.76 -0.403476
4.77 -0.406292
4.78 -0.408433
4.79 -0.409998
4.8 -0.411198
4.81 -0.412167
4.82 -0.413029
4.83 -0.413896
4.84 -0.414867
4.85 -0.416033
4.86 -0.417462
4.87 -0.419176
4.88 -0.421188
4.89 -0.423492
4.9 -0.426062
4.91 -0.428854
4.92 -0.431822
4.93 -0.43487
4.94 -0.437915
4.95 -0.440871
4.96 -0.443649
4.97 -0.446162
4.98 -0.448307
4.99 -0.449985
5 -0.451157
5.01 -0.451767
5.02 -0.451771
5.03 -0.451137
5.04 -0.449848
5.05 -0.447829
5.06 -0.44514
5.07 -0.441811
5.08 -0.437863
5.09 -0.433327
5.1 -0.428237
5.11 -0.422613
5.12 -0.416475
5.13 -0.409903
5.14 -0.402931
5.15 -0.39559
5.16 -0.38791
5.17 -0.379914
5.18 -0.371602
5.19 -0.36301
5.2 -0.354164
5.21 -0.345079
5.22 -0.335772
5.23 -0.32626
5.24 -0.31656
5.25 -0.306689
5.26 -0.296696
5.27 -0.286615
5.28 -0.276491
5.29 -0.266372
5.3 -0.25631
5.31 -0.246381
5.32 -0.23665
5.33 -0.227178
5.34 -0.218032
5.35 -0.209275
5.36 -0.200968
5.37 -0.193176
5.38 -0.186002
5.39 -0.179431
5.4 -0.173488
5.41 -0.168191
5.42 -0.163542
5.43 -0.159533
5.44 -0.156182
5.45 -0.153439
5.46 -0.151229
5.47 -0.149497
5.48 -0.148181
5.49 -0.147216
5.5 -0.146532
5.51 -0.146077
5.52 -0.145752
5.53 -0.145494
5.54 -0.145246
5.55 -0.144958
5.56 -0.144587
5.57 -0.144092
5.58 -0.143447
5.59 -0.142646
5.6 -0.141684
5.61 -0.140561
5.62 -0.139285
5.63 -0.137864
5.64 -0.136297
5.65 -0.134606
5.66 -0.1328
5.67 -0.130879
5.68 -0.128835
5.69 -0.126656
5.7 -0.124308
5.71 -0.121747
5.72 -0.11894
5.73 -0.115834
5.74 -0.112367
5.75 -0.108473
5.76 -0.104083
5.77 -0.099064
5.78 -0.0933838
5.79 -0.0869914
5.8 -0.0798329
5.81 -0.0718655
5.82 -0.0630597
5.83 -0.0533742
5.84 -0.0427732
5.85 -0.0313565
5.86 -0.0191717
5.87 -0.00628576
5.88 0.00721646
5.89 0.0212332
5.9 0.035671
5.91 0.050362
5.92 0.0651557
5.93 0.0799093
5.94 0.0944796
5.95 0.108727
5.96 0.122507
5.97 0.135641
5.98 0.148072
5.99 0.159716
6 0.170506
6.01 0.180401
6.02 0.189376
6.03 0.197365
6.04 0.204426
6.05 0.210643
6.06 0.216078
6.07 0.220808
6.08 0.22492
6.09 0.228503
6.1 0.231626
6.11 0.234437
6.12 0.237025
6.13 0.239471
6.14 0.241841
6.15 0.244189
6.16 0.24655
6.17 0.248941
6.18 0.251353
6.19 0.253757
6.2 0.256109
6.21 0.258345
6.22 0.26039
6.23 0.26211
6.24 0.263433
6.25 0.264255
6.26 0.264474
6.27 0.263991
6.28 0.262714
6.29 0.26051
6.3 0.257291
6.31 0.253066
6.32 0.247801
6.33 0.241487
6.34 0.234127
6.35 0.225749
6.36 0.2163
6.37 0.20594
6.38 0.19476
6.39 0.18285
6.4 0.170308
6.41 0.15724
6.42 0.14374
6.43 0.12992
6.44 0.115912
6.45 0.101811
6.46 0.087705
6.47 0.0736686
6.48 0.0597659
6.49 0.046069
6.5 0.0326043
6.51 0.0193886
6.52 0.00643138
6.53 -0.00626869
6.54 -0.018722
6.55 -0.0309399
6.56 -0.0429371
6.57 -0.0547591
6.58 -0.0664319
6.59 -0.0779797
6.6 -0.0894224
6.61 -0.100775
6.62 -0.112038
6.63 -0.123213
6.64 -0.134293
6.65 -0.145256
6.66 -0.156076
6.67 -0.166714
6.68 -0.177122
6.69 -0.187222
6.7 -0.196981
6.71 -0.20634
6.72 -0.215241
6.73 -0.223624
6.74 -0.231432
6.75 -0.23856
6.76 -0.244969
6.77 -0.250642
6.78 -0.255542
6.79 -0.259633
6.8 -0.262889
6.81 -0.265278
6.82 -0.266696
6.83 -0.267222
6.84 -0.266847
6.85 -0.265566
6.86 -0.263371
6.87 -0.260258
6.88 -0.256164
6.89 -0.251088
6.9 -0.245074
6.91 -0.238112
6.92 -0.230191
6.93 -0.221299
6.94 -0.211423
6.95 -0.200437
6.96 -0.188438
6.97 -0.175419
6.98 -0.161376
6.99 -0.146307
7 -0.130216
7.01 -0.113064
7.02 -0.094858
7.03 -0.075694
7.04 -0.0556105
7.05 -0.0346549
7.06 -0.012884
7.07 0.00963636
7.08 0.0328932
7.09 0.0567341
7.1 0.0810594
7.11 0.105773
7.12 0.130776
7.13 0.155965
7.14 0.181236
7.15 0.206468
7.16 0.231555
7.17 0.256397
7.18 0.280898
7.19 0.304967
7.2 0.328517
7.21 0.351402
7.22 0.373579
7.23 0.394992
7.24 0.415575
7.25 0.435267
7.26 0.454008
7.27 0.471713
7.28 0.488256
7.29 0.503676
7.3 0.51792
7.31 0.530937
7.32 0.542674
7.33 0.553081
7.34 0.561987
7.35 0.569396
7.36 0.575308
7.37 0.579672
7.38 0.582441
7.39 0.583573
7.4 0.582999
7.41 0.580542
7.42 0.576347
7.43 0.570402
7.44 0.562702
7.45 0.553253
7.46 0.542076
7.47 0.529086
7.48 0.514374
7.49 0.49808
7.5 0.480278
7.51 0.461053
7.52 0.440501
7.53 0.418723
7.54 0.395735
7.55 0.371797
7.56 0.347041
7.57 0.321606
7.58 0.295634
7.59 0.269266
7.6 0.242643
7.61 0.215929
7.62 0.189277
7.63 0.162824
7.64 0.136703
7.65 0.111039
7.66 0.0859548
7.67 0.061653
7.68 0.0381759
7.69 0.0156172
7.7 -0.00593378
7.71 -0.0263958
7.72 -0.0456961
7.73 -0.0637093
7.74 -0.0803461
7.75 -0.0956489
7.76 -0.109584
7.77 -0.122128
7.78 -0.133268
7.79 -0.143
7.8 -0.151193
7.81 -0.157988
7.82 -0.163439
7.83 -0.167591
7.84 -0.170496
7.85 -0.172218
7.86 -0.172793
7.87 -0.172268
7.88 -0.170823
7.89 -0.168554
7.9 -0.165559
7.91 -0.161943
7.92 -0.157807
7.93 -0.153224
7.94 -0.14833
7.95 -0.143227
7.96 -0.137998
7.97 -0.13272
7.98 -0.127457
7.99 -0.122264
8 -0.117195
8.01 -0.112268
8.02 -0.107496
8.03 -0.102882
8.04 -0.0984173
8.05 -0.0940828
8.06 -0.0898589
8.07 -0.0857045
8.08 -0.08158
8.09 -0.0774483
8.1 -0.0732742
8.11 -0.0690258
8.12 -0.0646756
8.13 -0.0601932
8.14 -0.055583
8.15 -0.0508486
8.16 -0.0460051
8.17 -0.0410785
8.18 -0.0361055
8.19 -0.0311368
8.2 -0.0262368
8.21 -0.0214687
8.22 -0.0168997
8.23 -0.0125988
8.24 -0.00863354
8.25 -0.00506915
8.26 -0.00201879
8.27 0.000519466
8.28 0.00251279
8.29 0.00394222
8.3 0.00480398
8.31 0.00511031
8.32 0.00486258
8.33 0.00411236
8.34 0.00295436
8.35 0.00146425
8.36 -0.000271922
8.37 -0.00216057
8.38 -0.00410362
8.39 -0.00598642
8.4 -0.00770838
8.41 -0.009182
8.42 -0.01033
8.43 -0.0110887
8.44 -0.0114111
8.45 -0.0112472
8.46 -0.0105783
8.47 -0.00945722
8.48 -0.00792424
8.49 -0.00604027
8.5 -0.00388515
8.51 -0.00155551
8.52 0.000832276
8.53 0.00313714
8.54 0.00522945
8.55 0.00697936
8.56 0.00826013
8.57 0.00895241
8.58 0.0089211
8.59 0.00802492
8.6 0.00625482
8.61 0.00356443
8.62 -6.88907e-05
8.63 -0.00464314
8.64 -0.0101315
8.65 -0.0165515
8.66 -0.023767
8.67 -0.0316534
8.68 -0.0400949
8.69 -0.0489634
8.7 -0.0581219
8.71 -0.0674295
8.72 -0.0767283
8.73 -0.0858732
8.74 -0.0947414
8.75 -0.103224
8.76 -0.11123
8.77 -0.118688
8.78 -0.125501
8.79 -0.131666
8.8 -0.13721
8.81 -0.14216
8.82 -0.146563
8.83 -0.150485
8.84 -0.154001
8.85 -0.15719
8.86 -0.160192
8.87 -0.163112
8.88 -0.166052
8.89 -0.169108
8.9 -0.172365
8.91 -0.175919
8.92 -0.179827
8.93 -0.184107
8.94 -0.188771
8.95 -0.193809
8.96 -0.199192
8.97 -0.204872
8.98 -0.210798
8.99 -0.216852
9 -0.222939
9.01 -0.228954
9.02 -0.23479
9.03 -0.240341
9.04 -0.245477
9.05 -0.250089
9.06 -0.254122
9.07 -0.257514
9.08 -0.260219
9.09 -0.26221
9.1 -0.26348
9.11 -0.263971
9.12 -0.26379
9.13 -0.262998
9.14 -0.261666
9.15 -0.259875
9.16 -0.257716
9.17 -0.255277
9.18 -0.252665
9.19 -0.249993
9.2 -0.247351
9.21 -0.244818
9.22 -0.242459
9.23 -0.240328
9.24 -0.23849
9.25 -0.236942
9.26 -0.235677
9.27 -0.234678
9.28 -0.23391
9.29 -0.233328
9.3 -0.232876
9.31 -0.232484
9.32 -0.23207
9.33 -0.231563
9.34 -0.230895
9.35 -0.230002
9.36 -0.228828
9.37 -0.227299
9.38 -0.225397
9.39 -0.223119
9.4 -0.220462
9.41 -0.217441
9.42 -0.21408
9.43 -0.210414
9.44 -0.206478
9.45 -0.202355
9.46 -0.198105
9.47 -0.193789
9.48 -0.189463
9.49 -0.185179
9.5 -0.180988
9.51 -0.176921
9.52 -0.172986
9.53 -0.169184
9.54 -0.165494
9.55 -0.161884
9.56 -0.158301
9.57 -0.154667
9.58 -0.150898
9.59 -0.146904
9.6 -0.142585
9.61 -0.137839
9.62 -0.132563
9.63 -0.126615
9.64 -0.119894
9.65 -0.112358
9.66 -0.103942
9.67 -0.0945994
9.68 -0.0843015
9.69 -0.0730395
9.7 -0.0607188
9.71 -0.0474874
9.72 -0.0334038
9.73 -0.0185429
9.74 -0.00299507
9.75 0.0131363
9.76 0.0297559
9.77 0.0467304
9.78 0.0639078
9.79 0.0811671
9.8 0.0983926
9.81 0.115476
9.82 0.132322
9.83 0.148804
9.84 0.164879
9.85 0.180502
9.86 0.19564
9.87 0.210277
9.88 0.22441
9.89 0.238031
9.9 0.251149
9.91 0.263835
9.92 0.276125
9.93 0.288059
9.94 0.299676
9.95 0.31101
9.96 0.322068
9.97 0.332888
9.98 0.343484
9.99 0.35385
10 0.363968
10.01 0.373809
10.02 0.383321
10.03 0.392423
10.04 0.40108
10.05 0.409226
10.06 0.41679
10.07 0.4237
10.08 0.42989
10.09 0.435229
10.1 0.439695
10.11 0.443278
10.12 0.445955
10.13 0.447715
10.14 0.44857
10.15 0.448528
10.16 0.447573
10.17 0.445856
10.18 0.443456
10.19 0.440462
10.2 0.436978
10.21 0.43311
10.22 0.42896
10.23 0.424665
10.24 0.420344
10.25 0.4161
10.26 0.412025
10.27 0.408199
10.28 0.404689
10.29 0.401586
10.3 0.398878
10.31 0.396574
10.32 0.394661
10.33 0.393113
10.34 0.391884
10.35 0.390926
10.36 0.390155
10.37 0.389473
10.38 0.388791
10.39 0.388017
10.4 0.387058
10.41 0.385822
10.42 0.384174
10.43 0.382069
10.44 0.379441
10.45 0.376232
10.46 0.372399
10.47 0.367906
10.48 0.362699
10.49 0.356754
10.5 0.35012
10.51 0.342807
10.52 0.334834
10.53 0.326225
10.54 0.317006
10.55 0.30715
10.56 0.296741
10.57 0.285814
10.58 0.274395
10.59 0.262507
10.6 0.250166
10.61 0.237372
10.62 0.224117
10.63 0.210445
10.64 0.196358
10.65 0.181863
10.66 0.166963
10.67 0.151665
10.68 0.135946
10.69 0.119849
10.7 0.103406
10.71 0.0866469
10.72 0.069609
10.73 0.0523375
10.74 0.0348817
10.75 0.0173025
10.76 -0.000317215
10.77 -0.0179058
10.78 -0.0353887
10.79 -0.052691
10.8 -0.0697387
10.81 -0.0864303
10.82 -0.102708
10.83 -0.11853
10.84 -0.133852
10.85 -0.148643
10.86 -0.162883
10.87 -0.176558
10.88 -0.189633
10.89 -0.202191
10.9 -0.21427
10.91 -0.22592
10.92 -0.237201
10.93 -0.248179
10.94 -0.258915
10.95 -0.269497
10.96 -0.280007
10.97 -0.290511
10.98 -0.301066
10.99 -0.311722
11 -0.322512
11.01 -0.333475
11.02 -0.344592
11.03 -0.355847
11.04 -0.367204
11.05 -0.378609
11.06 -0.389995
11.07 -0.401268
11.08 -0.412316
11.09 -0.42304
11.1 -0.433329
11.11 -0.443069
11.12 -0.452148
11.13 -0.460458
11.14 -0.467792
11.15 -0.474145
11.16 -0.479451
11.17 -0.483655
11.18 -0.486717
11.19 -0.488618
11.2 -0.489304
11.21 -0.48877
11.22 -0.487138
11.23 -0.484461
11.24 -0.480808
11.25 -0.476258
11.26 -0.470894
11.27 -0.464745
11.28 -0.457972
11.29 -0.450674
11.3 -0.442933
11.31 -0.434822
11.32 -0.426405
11.33 -0.417722
11.34 -0.408803
11.35 -0.399684
11.36 -0.390369
11.37 -0.380845
11.38 -0.371089
11.39 -0.361066
11.4 -0.350702
11.41 -0.339959
11.42 -0.328794
11.43 -0.317157
11.44 -0.305002
11.45 -0.292287
11.46 -0.278968
11.47 -0.264986
11.48 -0.250395
11.49 -0.235211
11.5 -0.219466
11.51 -0.203211
11.52 -0.186508
11.53 -0.169417
11.54 -0.15206
11.55 -0.134557
11.56 -0.117024
11.57 -0.0995784
11.58 -0.0823428
11.59 -0.0654426
11.6 -0.0490466
11.61 -0.033223
11.62 -0.0180653
11.63 -0.00365364
11.64 0.0099473
11.65 0.0226894
11.66 0.0344825
11.67 0.0453282
11.68 0.0552813
11.69 0.0643671
11.7 0.0726258
11.71 0.0801098
11.72 0.0868811
11.73 0.0929471
11.74 0.0984651
11.75 0.103513
11.76 0.108169
11.77 0.112505
11.78 0.116589
11.79 0.120473
11.8 0.12421
11.81 0.127848
11.82 0.131409
11.83 0.134907
11.84 0.13834
11.85 0.141699
11.86 0.144949
11.87 0.148067
11.88 0.151018
11.89 0.153759
11.9 0.156247
11.91 0.158438
11.92 0.160272
11.93 0.161691
11.94 0.162685
11.95 0.163224
11.96 0.163284
11.97 0.162845
11.98 0.161896
11.99 0.160377
12 0.158326
12.01 0.155756
12.02 0.15267
12.03 0.149073
12.04 0.144969
12.05 0.140343
12.06 0.135169
12.07 0.129482
12.08 0.123273
12.09 0.116526
12.1 0.109221
12.11 0.101332
12.12 0.0927769
12.13 0.0835527
12.14 0.0736471
12.15 0.0630296
12.16 0.0516728
12.17 0.0395554
