# xPDFsuite Configuration #
[PDF]
wavelength = 0.1
dataformat = QA
inputfile = BiMsol6_insitu_700 C-00065.xy
backgroundfile = Quartz2mm-dist500-00000.xy
mode = xray
bgscale = 0.0042
composition = Bi2Fe4O9
outputtype = gr
qmaxinst = 24.998449118
qmin = 0.1
qmax = 21.4986662415
rmax = 80.0
rmin = 0.0
rstep = 0.01
rpoly = 0.9

[Misc]
inputdir = C:/Data/Seafile/CPH/Beamtime/Desy Oct 20/In situ data/Processed/BiMsol6/PDF
savedir = C:/Data/Seafile/CPH/Beamtime/Desy Oct 20/In situ data/PDF/BiMsol6
backgroundfilefull = C:/Data/Seafile/CPH/Beamtime/Desy Oct 20/In situ data/Processed/Standard_Empty_Cap/Quartz2mm-dist500-00000.xy

#### start data
#S 1
#L r($\AA$)  G($\AA^{-2}$)
0 0
0.01 0.00693796
0.02 0.0134904
0.03 0.0193274
0.04 0.0241526
0.05 0.0277169
0.06 0.0298302
0.07 0.0302837
0.08 0.0290153
0.09 0.026176
0.1 0.0218892
0.11 0.0163476
0.12 0.00980434
0.13 0.00256224
0.14 -0.00503972
0.15 -0.0125699
0.16 -0.0196646
0.17 -0.0259822
0.18 -0.0312152
0.19 -0.0351059
0.2 -0.0373888
0.21 -0.0378797
0.22 -0.0366772
0.23 -0.0338459
0.24 -0.0295332
0.25 -0.0239643
0.26 -0.0174339
0.27 -0.0102744
0.28 -0.0029756
0.29 0.00402733
0.3 0.0103115
0.31 0.0154737
0.32 0.0191501
0.33 0.0209722
0.34 0.0205777
0.35 0.0180119
0.36 0.0132638
0.37 0.00643149
0.38 -0.00227668
0.39 -0.0125449
0.4 -0.0240094
0.41 -0.0360302
0.42 -0.0479786
0.43 -0.0592158
0.44 -0.0690806
0.45 -0.0769133
0.46 -0.0820175
0.47 -0.083499
0.48 -0.0811563
0.49 -0.0746254
0.5 -0.0636691
0.51 -0.0481925
0.52 -0.0282525
0.53 -0.00378326
0.54 0.0246439
0.55 0.0562778
0.56 0.0904179
0.57 0.126246
0.58 0.16285
0.59 0.199234
0.6 0.234127
0.61 0.266545
0.62 0.295496
0.63 0.320051
0.64 0.33938
0.65 0.352774
0.66 0.359247
0.67 0.358414
0.68 0.350482
0.69 0.335483
0.7 0.313643
0.71 0.285371
0.72 0.251256
0.73 0.21156
0.74 0.167841
0.75 0.121127
0.76 0.0725014
0.77 0.0230858
0.78 -0.025996
0.79 -0.0735233
0.8 -0.118284
0.81 -0.159481
0.82 -0.196335
0.83 -0.228216
0.84 -0.254658
0.85 -0.275369
0.86 -0.289638
0.87 -0.298096
0.88 -0.3011
0.89 -0.299083
0.9 -0.292609
0.91 -0.282352
0.92 -0.268988
0.93 -0.253368
0.94 -0.236559
0.95 -0.219394
0.96 -0.202665
0.97 -0.187101
0.98 -0.173342
0.99 -0.162179
1 -0.153895
1.01 -0.148677
1.02 -0.146641
1.03 -0.14777
1.04 -0.151921
1.05 -0.158906
1.06 -0.168459
1.07 -0.179885
1.08 -0.192681
1.09 -0.20631
1.1 -0.220232
1.11 -0.233918
1.12 -0.246781
1.13 -0.258371
1.14 -0.268371
1.15 -0.276523
1.16 -0.282659
1.17 -0.286708
1.18 -0.288661
1.19 -0.288497
1.2 -0.286639
1.21 -0.283369
1.22 -0.279021
1.23 -0.273964
1.24 -0.268581
1.25 -0.263286
1.26 -0.258486
1.27 -0.25449
1.28 -0.251556
1.29 -0.249878
1.3 -0.249576
1.31 -0.250701
1.32 -0.253346
1.33 -0.25722
1.34 -0.262117
1.35 -0.267778
1.36 -0.273894
1.37 -0.280126
1.38 -0.286081
1.39 -0.291352
1.4 -0.295626
1.41 -0.298611
1.42 -0.300067
1.43 -0.299815
1.44 -0.29775
1.45 -0.293643
1.46 -0.287765
1.47 -0.280281
1.48 -0.271417
1.49 -0.261468
1.5 -0.250779
1.51 -0.239744
1.52 -0.228838
1.53 -0.218501
1.54 -0.209138
1.55 -0.201124
1.56 -0.194784
1.57 -0.190385
1.58 -0.188348
1.59 -0.188595
1.6 -0.19109
1.61 -0.195738
1.62 -0.202358
1.63 -0.210682
1.64 -0.220406
1.65 -0.231103
1.66 -0.242205
1.67 -0.253223
1.68 -0.263657
1.69 -0.273016
1.7 -0.280836
1.71 -0.286486
1.72 -0.289698
1.73 -0.29026
1.74 -0.287992
1.75 -0.282807
1.76 -0.274714
1.77 -0.263749
1.78 -0.249974
1.79 -0.233945
1.8 -0.216035
1.81 -0.19667
1.82 -0.176322
1.83 -0.155484
1.84 -0.134697
1.85 -0.11451
1.86 -0.0953675
1.87 -0.0776685
1.88 -0.061749
1.89 -0.0478714
1.9 -0.0362509
1.91 -0.0271853
1.92 -0.0204258
1.93 -0.0158696
1.94 -0.0133352
1.95 -0.0125719
1.96 -0.0132712
1.97 -0.0151284
1.98 -0.0176838
1.99 -0.0204915
2 -0.0231674
2.01 -0.0253528
2.02 -0.026729
2.03 -0.0270258
2.04 -0.025887
2.05 -0.0233336
2.06 -0.0193381
2.07 -0.0139536
2.08 -0.00731155
2.09 0.000382896
2.1 0.00888341
2.11 0.0178073
2.12 0.0267314
2.13 0.0352534
2.14 0.0429624
2.15 0.049455
2.16 0.0543506
2.17 0.0570618
2.18 0.0574784
2.19 0.055406
2.2 0.0507099
2.21 0.0433351
2.22 0.0333088
2.23 0.0206344
2.24 0.0054784
2.25 -0.0116982
2.26 -0.0305534
2.27 -0.0506952
2.28 -0.0716952
2.29 -0.0931018
2.3 -0.114406
2.31 -0.135113
2.32 -0.154804
2.33 -0.173098
2.34 -0.189665
2.35 -0.204235
2.36 -0.216525
2.37 -0.226286
2.38 -0.23367
2.39 -0.238716
2.4 -0.241535
2.41 -0.242301
2.42 -0.241245
2.43 -0.238535
2.44 -0.234614
2.45 -0.229863
2.46 -0.224626
2.47 -0.219241
2.48 -0.214028
2.49 -0.209296
2.5 -0.20538
2.51 -0.202427
2.52 -0.200585
2.53 -0.199945
2.54 -0.200546
2.55 -0.202373
2.56 -0.205441
2.57 -0.209577
2.58 -0.214578
2.59 -0.22026
2.6 -0.226421
2.61 -0.232847
2.62 -0.239322
2.63 -0.2456
2.64 -0.251495
2.65 -0.256845
2.66 -0.261516
2.67 -0.265408
2.68 -0.268455
2.69 -0.27057
2.7 -0.271774
2.71 -0.272155
2.72 -0.271783
2.73 -0.27075
2.74 -0.269162
2.75 -0.267137
2.76 -0.264772
2.77 -0.262229
2.78 -0.259615
2.79 -0.257019
2.8 -0.254512
2.81 -0.252143
2.82 -0.249948
2.83 -0.247927
2.84 -0.246043
2.85 -0.244248
2.86 -0.24248
2.87 -0.240661
2.88 -0.238706
2.89 -0.236494
2.9 -0.233951
2.91 -0.231003
2.92 -0.227584
2.93 -0.223647
2.94 -0.219162
2.95 -0.214098
2.96 -0.208457
2.97 -0.202321
2.98 -0.195752
2.99 -0.188831
3 -0.181649
3.01 -0.174309
3.02 -0.166926
3.03 -0.159623
3.04 -0.152502
3.05 -0.14565
3.06 -0.139142
3.07 -0.133029
3.08 -0.127357
3.09 -0.122151
3.1 -0.117346
3.11 -0.112889
3.12 -0.108701
3.13 -0.104685
3.14 -0.100722
3.15 -0.0966641
3.16 -0.092357
3.17 -0.0876614
3.18 -0.0824388
3.19 -0.0765603
3.2 -0.0699115
3.21 -0.0623772
3.22 -0.0538085
3.23 -0.0442514
3.24 -0.0336953
3.25 -0.0221579
3.26 -0.00968496
3.27 0.00365191
3.28 0.017806
3.29 0.032621
3.3 0.0479325
3.31 0.0636006
3.32 0.0794831
3.33 0.0954408
3.34 0.111342
3.35 0.12704
3.36 0.14245
3.37 0.157504
3.38 0.172153
3.39 0.18638
3.4 0.20019
3.41 0.213595
3.42 0.226661
3.43 0.239489
3.44 0.25217
3.45 0.264803
3.46 0.277493
3.47 0.290338
3.48 0.30347
3.49 0.316939
3.5 0.330797
3.51 0.345071
3.52 0.359758
3.53 0.374825
3.54 0.390219
3.55 0.405829
3.56 0.4215
3.57 0.437074
3.58 0.452367
3.59 0.46718
3.6 0.481304
3.61 0.494404
3.62 0.506328
3.63 0.516885
3.64 0.52589
3.65 0.53318
3.66 0.538619
3.67 0.542024
3.68 0.543249
3.69 0.542428
3.7 0.539582
3.71 0.53477
3.72 0.528088
3.73 0.519665
3.74 0.50953
3.75 0.498001
3.76 0.485322
3.77 0.47171
3.78 0.457386
3.79 0.442572
3.8 0.427477
3.81 0.41232
3.82 0.397297
3.83 0.382558
3.84 0.368228
3.85 0.354402
3.86 0.341147
3.87 0.328552
3.88 0.316593
3.89 0.305225
3.9 0.294406
3.91 0.284071
3.92 0.274146
3.93 0.264548
3.94 0.255196
3.95 0.245969
3.96 0.236782
3.97 0.227562
3.98 0.218243
3.99 0.208777
4 0.199116
4.01 0.189246
4.02 0.179181
4.03 0.168938
4.04 0.158551
4.05 0.148064
4.06 0.13753
4.07 0.127018
4.08 0.116594
4.09 0.106321
4.1 0.0962572
4.11 0.0864563
4.12 0.0769626
4.13 0.067833
4.14 0.0590925
4.15 0.0507308
4.16 0.0427461
4.17 0.0351265
4.18 0.0278508
4.19 0.0208905
4.2 0.0142393
4.21 0.00782537
4.22 0.00161006
4.23 -0.00444222
4.24 -0.0103628
4.25 -0.0161769
4.26 -0.0218986
4.27 -0.0275354
4.28 -0.0330908
4.29 -0.0385532
4.3 -0.0439026
4.31 -0.0491117
4.32 -0.0541472
4.33 -0.0589464
4.34 -0.0634842
4.35 -0.0677257
4.36 -0.071636
4.37 -0.075186
4.38 -0.0783538
4.39 -0.0811119
4.4 -0.0834435
4.41 -0.0853925
4.42 -0.0869834
4.43 -0.0882518
4.44 -0.0892437
4.45 -0.0900143
4.46 -0.0906176
4.47 -0.0911397
4.48 -0.0916544
4.49 -0.0922304
4.5 -0.0929324
4.51 -0.093819
4.52 -0.0949469
4.53 -0.0963753
4.54 -0.0981039
4.55 -0.10014
4.56 -0.102476
4.57 -0.105088
4.58 -0.107941
4.59 -0.110995
4.6 -0.114169
4.61 -0.117384
4.62 -0.120563
4.63 -0.123624
4.64 -0.126485
4.65 -0.129064
4.66 -0.131251
4.67 -0.133017
4.68 -0.134314
4.69 -0.135109
4.7 -0.135384
4.71 -0.135138
4.72 -0.134352
4.73 -0.133075
4.74 -0.131378
4.75 -0.129326
4.76 -0.126989
4.77 -0.124449
4.78 -0.121791
4.79 -0.119111
4.8 -0.116508
4.81 -0.114064
4.82 -0.111854
4.83 -0.109947
4.84 -0.108396
4.85 -0.10727
4.86 -0.106602
4.87 -0.106378
4.88 -0.106596
4.89 -0.107241
4.9 -0.108287
4.91 -0.109696
4.92 -0.111452
4.93 -0.113466
4.94 -0.115679
4.95 -0.118034
4.96 -0.120478
4.97 -0.122956
4.98 -0.125421
4.99 -0.127824
5 -0.130135
5.01 -0.132331
5.02 -0.134397
5.03 -0.136323
5.04 -0.138109
5.05 -0.139746
5.06 -0.141256
5.07 -0.142653
5.08 -0.143951
5.09 -0.145162
5.1 -0.146298
5.11 -0.147363
5.12 -0.148357
5.13 -0.149284
5.14 -0.150136
5.15 -0.150898
5.16 -0.151555
5.17 -0.152084
5.18 -0.152447
5.19 -0.152625
5.2 -0.152597
5.21 -0.152343
5.22 -0.151845
5.23 -0.151091
5.24 -0.150071
5.25 -0.148771
5.26 -0.14723
5.27 -0.145471
5.28 -0.143526
5.29 -0.141435
5.3 -0.139245
5.31 -0.137009
5.32 -0.134792
5.33 -0.132653
5.34 -0.130648
5.35 -0.128827
5.36 -0.127236
5.37 -0.125916
5.38 -0.12492
5.39 -0.124231
5.4 -0.123846
5.41 -0.123747
5.42 -0.123903
5.43 -0.124269
5.44 -0.124793
5.45 -0.125394
5.46 -0.125988
5.47 -0.126491
5.48 -0.126819
5.49 -0.12689
5.5 -0.126622
5.51 -0.125894
5.52 -0.124687
5.53 -0.122961
5.54 -0.120687
5.55 -0.117856
5.56 -0.114477
5.57 -0.110552
5.58 -0.106131
5.59 -0.101313
5.6 -0.0961772
5.61 -0.0908147
5.62 -0.0853247
5.63 -0.0798108
5.64 -0.0743975
5.65 -0.0691874
5.66 -0.0642717
5.67 -0.0597311
5.68 -0.0556315
5.69 -0.0520221
5.7 -0.0489563
5.71 -0.0464572
5.72 -0.0444697
5.73 -0.0429566
5.74 -0.0418618
5.75 -0.0411123
5.76 -0.0406211
5.77 -0.0402954
5.78 -0.0400051
5.79 -0.0396395
5.8 -0.039093
5.81 -0.0382668
5.82 -0.0370725
5.83 -0.0354191
5.84 -0.033219
5.85 -0.0304784
5.86 -0.0271871
5.87 -0.0233567
5.88 -0.0190206
5.89 -0.0142329
5.9 -0.00904127
5.91 -0.00356875
5.92 0.00206937
5.93 0.00776185
5.94 0.0133943
5.95 0.0188539
5.96 0.0240251
5.97 0.0287726
5.98 0.0330467
5.99 0.0367879
6 0.0399577
6.01 0.04254
6.02 0.0445428
6.03 0.0459604
6.04 0.0468762
6.05 0.0473932
6.06 0.0476089
6.07 0.0476341
6.08 0.0475894
6.09 0.0476019
6.1 0.0478291
6.11 0.0483805
6.12 0.049363
6.13 0.0508682
6.14 0.0529684
6.15 0.0557136
6.16 0.059172
6.17 0.063331
6.18 0.06812
6.19 0.0734785
6.2 0.0793217
6.21 0.0855437
6.22 0.0920203
6.23 0.0986102
6.24 0.105138
6.25 0.111452
6.26 0.117403
6.27 0.122852
6.28 0.127668
6.29 0.131699
6.3 0.134833
6.31 0.137062
6.32 0.138354
6.33 0.138706
6.34 0.138144
6.35 0.13672
6.36 0.134441
6.37 0.131497
6.38 0.12802
6.39 0.12415
6.4 0.120035
6.41 0.115826
6.42 0.111682
6.43 0.107773
6.44 0.104222
6.45 0.10114
6.46 0.0986191
6.47 0.0967263
6.48 0.0955047
6.49 0.0950347
6.5 0.0952502
6.51 0.096093
6.52 0.0974967
6.53 0.0993744
6.54 0.101622
6.55 0.104125
6.56 0.106746
6.57 0.109334
6.58 0.11176
6.59 0.113901
6.6 0.115643
6.61 0.116889
6.62 0.117503
6.63 0.117451
6.64 0.116718
6.65 0.115294
6.66 0.113191
6.67 0.110445
6.68 0.107098
6.69 0.103195
6.7 0.0988807
6.71 0.0942573
6.72 0.0894319
6.73 0.0845149
6.74 0.0796156
6.75 0.0748549
6.76 0.0703376
6.77 0.0661393
6.78 0.0623272
6.79 0.0589526
6.8 0.0560495
6.81 0.0536382
6.82 0.051764
6.83 0.0503512
6.84 0.0493627
6.85 0.0487484
6.86 0.0484481
6.87 0.0483938
6.88 0.0485184
6.89 0.0487349
6.9 0.0489614
6.91 0.0491292
6.92 0.0491766
6.93 0.0490505
6.94 0.0487078
6.95 0.0480861
6.96 0.0471937
6.97 0.0460262
6.98 0.0445899
6.99 0.0429012
7 0.0409853
7.01 0.0388668
7.02 0.0365869
7.03 0.0341998
7.04 0.0317476
7.05 0.0292709
7.06 0.0268073
7.07 0.0243899
7.08 0.0220552
7.09 0.0198174
7.1 0.0176858
7.11 0.015663
7.12 0.0137443
7.13 0.0119183
7.14 0.0101697
7.15 0.00847492
7.16 0.00680277
7.17 0.00512645
7.18 0.00341964
7.19 0.00165811
7.2 -0.000178798
7.21 -0.00211623
7.22 -0.00415776
7.23 -0.006302
7.24 -0.00854248
7.25 -0.0108652
7.26 -0.0132488
7.27 -0.0156652
7.28 -0.0180751
7.29 -0.0204363
7.3 -0.022706
7.31 -0.0248401
7.32 -0.0267945
7.33 -0.028527
7.34 -0.0299749
7.35 -0.0311128
7.36 -0.0319246
7.37 -0.0323925
7.38 -0.0325072
7.39 -0.0322684
7.4 -0.0316795
7.41 -0.0307349
7.42 -0.0294981
7.43 -0.0280061
7.44 -0.0263028
7.45 -0.0244376
7.46 -0.0224643
7.47 -0.0204399
7.48 -0.0184317
7.49 -0.0164986
7.5 -0.0146952
7.51 -0.0130726
7.52 -0.0116766
7.53 -0.0105492
7.54 -0.00975795
7.55 -0.00929576
7.56 -0.00917791
7.57 -0.00941152
7.58 -0.00999569
7.59 -0.0109218
7.6 -0.0121917
7.61 -0.0137783
7.62 -0.0156333
7.63 -0.0177223
7.64 -0.0200077
7.65 -0.0224491
7.66 -0.0250047
7.67 -0.0276353
7.68 -0.0302872
7.69 -0.0329199
7.7 -0.035495
7.71 -0.0379774
7.72 -0.040335
7.73 -0.0425312
7.74 -0.0445352
7.75 -0.0463395
7.76 -0.0479302
7.77 -0.0492977
7.78 -0.0504369
7.79 -0.0513471
7.8 -0.0520095
7.81 -0.0524518
7.82 -0.0526891
7.83 -0.0527361
7.84 -0.0526101
7.85 -0.0523305
7.86 -0.0519149
7.87 -0.0513844
7.88 -0.0507727
7.89 -0.0501037
7.9 -0.0494004
7.91 -0.0486851
7.92 -0.0479786
7.93 -0.0473033
7.94 -0.0466751
7.95 -0.0461053
7.96 -0.0456027
7.97 -0.0451722
7.98 -0.0448148
7.99 -0.0445294
8 -0.0443116
8.01 -0.0441437
8.02 -0.0440108
8.03 -0.0438952
8.04 -0.0437771
8.05 -0.0436352
8.06 -0.0434425
8.07 -0.0431765
8.08 -0.0428193
8.09 -0.0423538
8.1 -0.041766
8.11 -0.0410463
8.12 -0.0401882
8.13 -0.0391816
8.14 -0.038049
8.15 -0.0368054
8.16 -0.0354717
8.17 -0.0340746
8.18 -0.0326461
8.19 -0.0312256
8.2 -0.029859
8.21 -0.0285879
8.22 -0.0274547
8.23 -0.0265008
8.24 -0.0257644
8.25 -0.0252807
8.26 -0.0251111
8.27 -0.0252447
8.28 -0.0256912
8.29 -0.0264504
8.3 -0.0275118
8.31 -0.0288543
8.32 -0.0304577
8.33 -0.0322727
8.34 -0.034231
8.35 -0.0362711
8.36 -0.0383254
8.37 -0.040322
8.38 -0.0421867
8.39 -0.0438149
8.4 -0.0451494
8.41 -0.0461267
8.42 -0.0466889
8.43 -0.0467881
8.44 -0.0463876
8.45 -0.0454394
8.46 -0.0439202
8.47 -0.0418767
8.48 -0.0393325
8.49 -0.0363254
8.5 -0.0329065
8.51 -0.0291391
8.52 -0.0250773
8.53 -0.0208349
8.54 -0.0165046
8.55 -0.0121765
8.56 -0.00793993
8.57 -0.00388074
8.58 -9.00335e-05
8.59 0.00333682
8.6 0.00636558
8.61 0.00895275
8.62 0.0110694
8.63 0.0127019
8.64 0.013852
8.65 0.0144995
8.66 0.0147092
8.67 0.0145434
8.68 0.0140614
8.69 0.0133313
8.7 0.0124273
8.71 0.0114269
8.72 0.0104171
8.73 0.00948075
8.74 0.00868699
8.75 0.00809705
8.76 0.00776192
8.77 0.00772065
8.78 0.0080244
8.79 0.00867302
8.8 0.00964711
8.81 0.0109269
8.82 0.0124797
8.83 0.014262
8.84 0.0162219
8.85 0.0183017
8.86 0.020418
8.87 0.0225037
8.88 0.0244927
8.89 0.026323
8.9 0.0279388
8.91 0.0292733
8.92 0.0302891
8.93 0.0309782
8.94 0.0313311
8.95 0.0313516
8.96 0.0310557
8.97 0.0304716
8.98 0.0296148
8.99 0.0285684
9 0.0273886
9.01 0.0261361
9.02 0.0248729
9.03 0.0236601
9.04 0.0225645
9.05 0.0216463
9.06 0.0209398
9.07 0.0204767
9.08 0.0202774
9.09 0.0203502
9.1 0.0206913
9.11 0.0213085
9.12 0.0221453
9.13 0.0231587
9.14 0.0243005
9.15 0.0255163
9.16 0.0267477
9.17 0.0279305
9.18 0.0289948
9.19 0.0298908
9.2 0.0305711
9.21 0.0309967
9.22 0.0311387
9.23 0.0309791
9.24 0.0304834
9.25 0.0296839
9.26 0.0286088
9.27 0.0272908
9.28 0.0257726
9.29 0.0241044
9.3 0.0223422
9.31 0.020553
9.32 0.0188056
9.33 0.0171597
9.34 0.0156708
9.35 0.0143879
9.36 0.0133516
9.37 0.0126175
9.38 0.0121903
9.39 0.0120644
9.4 0.0122308
9.41 0.0126684
9.42 0.013345
9.43 0.0142214
9.44 0.0152508
9.45 0.016357
9.46 0.0174791
9.47 0.0185552
9.48 0.0195255
9.49 0.0203343
9.5 0.0209137
9.51 0.0212259
9.52 0.021253
9.53 0.02098
9.54 0.020404
9.55 0.0195352
9.56 0.0183935
9.57 0.0169951
9.58 0.0154153
9.59 0.0137085
9.6 0.0119349
9.61 0.0101583
9.62 0.00844307
9.63 0.00686341
9.64 0.00548456
9.65 0.00434861
9.66 0.00349556
9.67 0.00295438
9.68 0.00274185
9.69 0.00286178
9.7 0.0033395
9.71 0.00411131
9.72 0.0051392
9.73 0.00637541
9.74 0.00776373
9.75 0.00924179
9.76 0.0107409
9.77 0.0121833
9.78 0.0135034
9.79 0.0146416
9.8 0.0155459
9.81 0.0161737
9.82 0.016494
9.83 0.0164543
9.84 0.0160823
9.85 0.0153958
9.86 0.0144221
9.87 0.0132012
9.88 0.0117847
9.89 0.0102313
9.9 0.00861733
9.91 0.00702624
9.92 0.00553295
9.93 0.00421062
9.94 0.00312777
9.95 0.0023456
9.96 0.00195219
9.97 0.00196472
9.98 0.00239651
9.99 0.00325437
10 0.00452961
10.01 0.00619803
10.02 0.00822935
10.03 0.0105797
10.04 0.0131511
10.05 0.0158669
10.06 0.0186439
10.07 0.0213952
10.08 0.0240332
10.09 0.0264495
10.1 0.0285645
10.11 0.0303161
10.12 0.0316463
10.13 0.03251
10.14 0.032877
10.15 0.0327233
10.16 0.0320115
10.17 0.0308144
10.18 0.0291689
10.19 0.0271257
10.2 0.0247475
10.21 0.0221067
10.22 0.0192761
10.23 0.0163568
10.24 0.0134425
10.25 0.0106167
10.26 0.00795814
10.27 0.00553833
10.28 0.00342161
10.29 0.00169903
10.3 0.000369819
10.31 -0.000546521
10.32 -0.0010449
10.33 -0.00113445
10.34 -0.000837858
10.35 -0.000172146
10.36 0.000806863
10.37 0.0020222
10.38 0.00341035
10.39 0.00490387
10.4 0.00643382
10.41 0.00793211
10.42 0.00931609
10.43 0.0105322
10.44 0.0115305
10.45 0.0122698
10.46 0.0127188
10.47 0.0128568
10.48 0.0126585
10.49 0.0121206
10.5 0.0112788
10.51 0.0101561
10.52 0.00878311
10.53 0.00719679
10.54 0.00543863
10.55 0.00354484
10.56 0.00157699
10.57 -0.000418374
10.58 -0.00239905
10.59 -0.00432659
10.6 -0.00616739
10.61 -0.00788825
10.62 -0.00945955
10.63 -0.0108771
10.64 -0.0121335
10.65 -0.013227
10.66 -0.0141612
10.67 -0.0149439
10.68 -0.0155746
10.69 -0.0160777
10.7 -0.0164715
10.71 -0.0167702
10.72 -0.016987
10.73 -0.0171331
10.74 -0.0172155
10.75 -0.0172362
10.76 -0.0172018
10.77 -0.0171103
10.78 -0.0169568
10.79 -0.016734
10.8 -0.0164331
10.81 -0.0160366
10.82 -0.0155377
10.83 -0.0149322
10.84 -0.0142148
10.85 -0.013384
10.86 -0.0124423
10.87 -0.0113957
10.88 -0.0102515
10.89 -0.00903964
10.9 -0.0077853
10.91 -0.00651841
10.92 -0.00527312
10.93 -0.00408687
10.94 -0.00300892
10.95 -0.00208348
10.96 -0.00134478
10.97 -0.000829467
10.98 -0.000570032
10.99 -0.000593361
11 -0.000920834
11.01 -0.00159857
11.02 -0.00259224
11.03 -0.00389214
11.04 -0.00547855
11.05 -0.00732183
11.06 -0.00938287
11.07 -0.0116203
11.08 -0.0139694
11.09 -0.0163575
11.1 -0.0187181
11.11 -0.0209822
11.12 -0.0230813
11.13 -0.0249486
11.14 -0.0264829
11.15 -0.0276546
11.16 -0.0284198
11.17 -0.0287428
11.18 -0.0285992
11.19 -0.0279767
11.2 -0.0268538
11.21 -0.0252366
11.22 -0.0231876
11.23 -0.0207478
11.24 -0.0179684
11.25 -0.0149097
11.26 -0.0116395
11.27 -0.0082251
11.28 -0.00476303
11.29 -0.00133323
11.3 0.0019884
11.31 0.00512979
11.32 0.00802463
11.33 0.0106015
11.34 0.0127889
11.35 0.0145765
11.36 0.0159393
11.37 0.0168647
11.38 0.0173514
11.39 0.0174102
11.4 0.0170294
11.41 0.0162704
11.42 0.0151869
11.43 0.0138281
11.44 0.0122481
11.45 0.010504
11.46 0.00865374
11.47 0.00675966
11.48 0.00488574
11.49 0.00308296
11.5 0.00139672
11.51 -0.000134262
11.52 -0.00147877
11.53 -0.00259632
11.54 -0.00347953
11.55 -0.00413281
11.56 -0.00456004
11.57 -0.00477241
11.58 -0.0047876
11.59 -0.00462688
11.6 -0.0043083
11.61 -0.00388064
11.62 -0.00337652
11.63 -0.00282868
11.64 -0.00226882
11.65 -0.00172645
11.66 -0.00123244
11.67 -0.000811135
11.68 -0.000476621
11.69 -0.000240342
11.7 -0.000108525
11.71 -8.22374e-05
11.72 -0.000157804
11.73 -0.000335905
11.74 -0.000591637
11.75 -0.00090862
11.76 -0.00126822
11.77 -0.00165037
11.78 -0.00203445
11.79 -0.00239792
11.8 -0.00271844
11.81 -0.00298037
11.82 -0.00316923
