# xPDFsuite Configuration #
[PDF]
wavelength = 0.1
dataformat = QA
inputfile = BiMsol6_insitu_700 C-00484.xy
backgroundfile = Quartz2mm-dist500-00000.xy
mode = xray
bgscale = 0.0042
composition = Bi2Fe4O9
outputtype = gr
qmaxinst = 24.998449118
qmin = 0.1
qmax = 21.4986662415
rmax = 80.0
rmin = 0.0
rstep = 0.01
rpoly = 0.9

[Misc]
inputdir = C:/Data/Seafile/CPH/Beamtime/Desy Oct 20/In situ data/Processed/BiMsol6/PDF
savedir = C:/Data/Seafile/CPH/Beamtime/Desy Oct 20/In situ data/PDF/BiMsol6
backgroundfilefull = C:/Data/Seafile/CPH/Beamtime/Desy Oct 20/In situ data/Processed/Standard_Empty_Cap/Quartz2mm-dist500-00000.xy

#### start data
#S 1
#L r($\AA$)  G($\AA^{-2}$)
0 0
0.01 0.00645018
0.02 0.0125345
0.03 0.01794
0.04 0.0223859
0.05 0.0256366
0.06 0.0275128
0.07 0.0278184
0.08 0.026497
0.09 0.0236941
0.1 0.0195297
0.11 0.0141894
0.12 0.0079164
0.13 0.00100038
0.14 -0.00623248
0.15 -0.0133735
0.16 -0.0200777
0.17 -0.0260219
0.18 -0.0309168
0.19 -0.0345215
0.2 -0.0365885
0.21 -0.0369504
0.22 -0.0357088
0.23 -0.0329335
0.24 -0.0287731
0.25 -0.0234503
0.26 -0.0172535
0.27 -0.0105115
0.28 -0.00369326
0.29 0.00278407
0.3 0.00851598
0.31 0.0131189
0.32 0.0162492
0.33 0.0175596
0.34 0.0167119
0.35 0.0137645
0.36 0.00871984
0.37 0.00168619
0.38 -0.00712167
0.39 -0.0173855
0.4 -0.0287355
0.41 -0.0405444
0.42 -0.0521978
0.43 -0.063072
0.44 -0.072523
0.45 -0.0799112
0.46 -0.0845618
0.47 -0.0856063
0.48 -0.0828649
0.49 -0.0759932
0.5 -0.0647712
0.51 -0.0491178
0.52 -0.0290995
0.53 -0.00466319
0.54 0.0236238
0.55 0.0550216
0.56 0.088842
0.57 0.124284
0.58 0.160456
0.59 0.196388
0.6 0.230842
0.61 0.262867
0.62 0.291501
0.63 0.315846
0.64 0.335098
0.65 0.348574
0.66 0.355321
0.67 0.354968
0.68 0.347718
0.69 0.333602
0.7 0.312837
0.71 0.285819
0.72 0.25311
0.73 0.214952
0.74 0.172849
0.75 0.127786
0.76 0.0807997
0.77 0.0329632
0.78 -0.0146484
0.79 -0.0608717
0.8 -0.104549
0.81 -0.144909
0.82 -0.181204
0.83 -0.212829
0.84 -0.239333
0.85 -0.260428
0.86 -0.27543
0.87 -0.284922
0.88 -0.289233
0.89 -0.288756
0.9 -0.284014
0.91 -0.275631
0.92 -0.26423
0.93 -0.250598
0.94 -0.235739
0.95 -0.22043
0.96 -0.205414
0.97 -0.191374
0.98 -0.178913
0.99 -0.168771
1 -0.161228
1.01 -0.156479
1.02 -0.154647
1.03 -0.155734
1.04 -0.159631
1.05 -0.166186
1.06 -0.175181
1.07 -0.185995
1.08 -0.198183
1.09 -0.21127
1.1 -0.224775
1.11 -0.238225
1.12 -0.251105
1.13 -0.262998
1.14 -0.273608
1.15 -0.282688
1.16 -0.290072
1.17 -0.295676
1.18 -0.299468
1.19 -0.301399
1.2 -0.301806
1.21 -0.300906
1.22 -0.298958
1.23 -0.296248
1.24 -0.29308
1.25 -0.289761
1.26 -0.286616
1.27 -0.283894
1.28 -0.281796
1.29 -0.28047
1.3 -0.280005
1.31 -0.280436
1.32 -0.281809
1.33 -0.283921
1.34 -0.286614
1.35 -0.289692
1.36 -0.292926
1.37 -0.296071
1.38 -0.298836
1.39 -0.300943
1.4 -0.302196
1.41 -0.302413
1.42 -0.301459
1.43 -0.29925
1.44 -0.295761
1.45 -0.290902
1.46 -0.284923
1.47 -0.278003
1.48 -0.270364
1.49 -0.26227
1.5 -0.254015
1.51 -0.245936
1.52 -0.238409
1.53 -0.231725
1.54 -0.226164
1.55 -0.221965
1.56 -0.219317
1.57 -0.218351
1.58 -0.219305
1.59 -0.222006
1.6 -0.226325
1.61 -0.232089
1.62 -0.239058
1.63 -0.246938
1.64 -0.255389
1.65 -0.263983
1.66 -0.272276
1.67 -0.279861
1.68 -0.286345
1.69 -0.291363
1.7 -0.294592
1.71 -0.295561
1.72 -0.294184
1.73 -0.29041
1.74 -0.284211
1.75 -0.275639
1.76 -0.264829
1.77 -0.251941
1.78 -0.237181
1.79 -0.221077
1.8 -0.204016
1.81 -0.186414
1.82 -0.168697
1.83 -0.151287
1.84 -0.134675
1.85 -0.119244
1.86 -0.105271
1.87 -0.0930033
1.88 -0.0826164
1.89 -0.0742128
1.9 -0.0678456
1.91 -0.0636178
1.92 -0.0611787
1.93 -0.0603188
1.94 -0.0607738
1.95 -0.0622369
1.96 -0.0643715
1.97 -0.0668229
1.98 -0.0691846
1.99 -0.0711146
2 -0.0723175
2.01 -0.0725443
2.02 -0.0716027
2.03 -0.0693607
2.04 -0.0656166
2.05 -0.0605591
2.06 -0.0543012
2.07 -0.0470255
2.08 -0.0389778
2.09 -0.0304579
2.1 -0.0218234
2.11 -0.0135085
2.12 -0.00590733
2.13 0.00059468
2.14 0.0056307
2.15 0.00886683
2.16 0.010015
2.17 0.00857227
2.18 0.00460941
2.19 -0.001925
2.2 -0.0110217
2.21 -0.0225929
2.22 -0.0364745
2.23 -0.0525116
2.24 -0.0703999
2.25 -0.0896297
2.26 -0.109799
2.27 -0.130483
2.28 -0.151246
2.29 -0.171658
2.3 -0.191192
2.31 -0.209497
2.32 -0.226268
2.33 -0.24124
2.34 -0.254216
2.35 -0.265066
2.36 -0.273658
2.37 -0.279916
2.38 -0.284122
2.39 -0.286442
2.4 -0.287095
2.41 -0.286344
2.42 -0.284488
2.43 -0.281807
2.44 -0.278716
2.45 -0.275562
2.46 -0.272648
2.47 -0.270253
2.48 -0.268617
2.49 -0.26796
2.5 -0.268517
2.51 -0.27027
2.52 -0.273242
2.53 -0.2774
2.54 -0.282663
2.55 -0.288904
2.56 -0.296006
2.57 -0.303719
2.58 -0.311791
2.59 -0.319997
2.6 -0.32811
2.61 -0.335915
2.62 -0.343205
2.63 -0.349726
2.64 -0.3554
2.65 -0.360129
2.66 -0.363852
2.67 -0.366546
2.68 -0.368226
2.69 -0.368882
2.7 -0.36862
2.71 -0.3676
2.72 -0.365945
2.73 -0.363792
2.74 -0.361279
2.75 -0.358541
2.76 -0.355706
2.77 -0.352902
2.78 -0.350213
2.79 -0.3477
2.8 -0.345398
2.81 -0.343315
2.82 -0.341443
2.83 -0.339734
2.84 -0.33811
2.85 -0.33649
2.86 -0.334785
2.87 -0.332899
2.88 -0.33074
2.89 -0.32817
2.9 -0.325143
2.91 -0.321604
2.92 -0.317514
2.93 -0.312854
2.94 -0.307627
2.95 -0.301835
2.96 -0.295515
2.97 -0.288769
2.98 -0.281673
2.99 -0.274307
3 -0.266755
3.01 -0.259094
3.02 -0.251397
3.03 -0.243722
3.04 -0.236099
3.05 -0.228529
3.06 -0.22099
3.07 -0.213428
3.08 -0.205753
3.09 -0.197825
3.1 -0.189513
3.11 -0.180656
3.12 -0.171075
3.13 -0.160587
3.14 -0.149005
3.15 -0.136027
3.16 -0.121535
3.17 -0.105436
3.18 -0.0876207
3.19 -0.0680206
3.2 -0.0466072
3.21 -0.0233619
3.22 0.00176537
3.23 0.0284745
3.24 0.0565904
3.25 0.0858933
3.26 0.116124
3.27 0.146987
3.28 0.178161
3.29 0.209244
3.3 0.239875
3.31 0.269702
3.32 0.298387
3.33 0.32561
3.34 0.351057
3.35 0.374249
3.36 0.395176
3.37 0.41368
3.38 0.429654
3.39 0.443042
3.4 0.453838
3.41 0.461931
3.42 0.467451
3.43 0.470674
3.44 0.471773
3.45 0.470944
3.46 0.468404
3.47 0.464379
3.48 0.45898
3.49 0.452595
3.5 0.445436
3.51 0.437695
3.52 0.429543
3.53 0.421123
3.54 0.412546
3.55 0.403909
3.56 0.395272
3.57 0.386659
3.58 0.378075
3.59 0.369504
3.6 0.360919
3.61 0.352272
3.62 0.343524
3.63 0.334639
3.64 0.32559
3.65 0.316361
3.66 0.306955
3.67 0.297387
3.68 0.287704
3.69 0.277986
3.7 0.268323
3.71 0.258823
3.72 0.249611
3.73 0.240825
3.74 0.232677
3.75 0.225295
3.76 0.218813
3.77 0.21337
3.78 0.209094
3.79 0.206094
3.8 0.204504
3.81 0.204478
3.82 0.205929
3.83 0.208861
3.84 0.213252
3.85 0.219053
3.86 0.226191
3.87 0.23466
3.88 0.244267
3.89 0.254835
3.9 0.266219
3.91 0.278266
3.92 0.290824
3.93 0.303747
3.94 0.316891
3.95 0.330091
3.96 0.34323
3.97 0.356203
3.98 0.368921
3.99 0.381311
4 0.393285
4.01 0.404802
4.02 0.415852
4.03 0.426412
4.04 0.436468
4.05 0.446005
4.06 0.455008
4.07 0.463403
4.08 0.471226
4.09 0.478448
4.1 0.485029
4.11 0.490922
4.12 0.496068
4.13 0.500348
4.14 0.503678
4.15 0.506024
4.16 0.507301
4.17 0.507428
4.18 0.506326
4.19 0.50392
4.2 0.499989
4.21 0.49463
4.22 0.487818
4.23 0.47954
4.24 0.469803
4.25 0.458634
4.26 0.446013
4.27 0.431994
4.28 0.416756
4.29 0.400399
4.3 0.383036
4.31 0.364787
4.32 0.345776
4.33 0.326077
4.34 0.30588
4.35 0.285309
4.36 0.264467
4.37 0.243444
4.38 0.222317
4.39 0.201146
4.4 0.179975
4.41 0.158831
4.42 0.13772
4.43 0.116636
4.44 0.0955603
4.45 0.0744689
4.46 0.0533248
4.47 0.032097
4.48 0.0107602
4.49 -0.0107049
4.5 -0.0323075
4.51 -0.0540436
4.52 -0.0758962
4.53 -0.0978278
4.54 -0.119771
4.55 -0.14165
4.56 -0.163374
4.57 -0.18484
4.58 -0.205931
4.59 -0.226471
4.6 -0.246335
4.61 -0.265414
4.62 -0.283582
4.63 -0.300725
4.64 -0.316739
4.65 -0.331517
4.66 -0.344878
4.67 -0.356909
4.68 -0.367594
4.69 -0.376946
4.7 -0.384998
4.71 -0.39181
4.72 -0.39739
4.73 -0.401879
4.74 -0.405452
4.75 -0.408241
4.76 -0.410383
4.77 -0.412018
4.78 -0.413285
4.79 -0.414306
4.8 -0.415238
4.81 -0.416188
4.82 -0.417243
4.83 -0.418473
4.84 -0.419929
4.85 -0.421653
4.86 -0.423654
4.87 -0.4259
4.88 -0.42836
4.89 -0.430985
4.9 -0.433719
4.91 -0.436494
4.92 -0.439226
4.93 -0.441839
4.94 -0.444262
4.95 -0.446429
4.96 -0.448283
4.97 -0.449775
4.98 -0.450848
4.99 -0.451464
5 -0.451639
5.01 -0.451375
5.02 -0.450679
5.03 -0.449567
5.04 -0.448063
5.05 -0.446155
5.06 -0.443903
5.07 -0.441336
5.08 -0.43847
5.09 -0.435316
5.1 -0.431877
5.11 -0.428132
5.12 -0.424046
5.13 -0.419612
5.14 -0.414791
5.15 -0.409536
5.16 -0.403792
5.17 -0.397506
5.18 -0.390562
5.19 -0.382938
5.2 -0.374605
5.21 -0.365528
5.22 -0.355683
5.23 -0.345061
5.24 -0.333653
5.25 -0.321439
5.26 -0.308541
5.27 -0.295026
5.28 -0.280979
5.29 -0.266502
5.3 -0.251709
5.31 -0.236721
5.32 -0.221693
5.33 -0.206769
5.34 -0.19208
5.35 -0.177753
5.36 -0.163905
5.37 -0.15065
5.38 -0.138144
5.39 -0.126388
5.4 -0.115425
5.41 -0.105276
5.42 -0.0959405
5.43 -0.0873978
5.44 -0.079654
5.45 -0.0726301
5.46 -0.0662147
5.47 -0.0603252
5.48 -0.0548739
5.49 -0.0497714
5.5 -0.0449314
5.51 -0.040286
5.52 -0.0357401
5.53 -0.0312402
5.54 -0.0267487
5.55 -0.0222447
5.56 -0.0177251
5.57 -0.0132057
5.58 -0.0087238
5.59 -0.00432753
5.6 -7.56895e-05
5.61 0.00396546
5.62 0.00772594
5.63 0.011136
5.64 0.0140792
5.65 0.0165362
5.66 0.0184699
5.67 0.0198558
5.68 0.0206879
5.69 0.0209804
5.7 0.0207494
5.71 0.0200502
5.72 0.0190012
5.73 0.0177023
5.74 0.0162681
5.75 0.0148242
5.76 0.0135029
5.77 0.0124768
5.78 0.0118716
5.79 0.0118028
5.8 0.0123775
5.81 0.0136847
5.82 0.0157916
5.83 0.018769
5.84 0.0226744
5.85 0.0274159
5.86 0.0329453
5.87 0.0391876
5.88 0.0460436
5.89 0.0533927
5.9 0.061115
5.91 0.069021
5.92 0.0769428
5.93 0.0847232
5.94 0.0922114
5.95 0.099268
5.96 0.105755
5.97 0.111514
5.98 0.116531
5.99 0.120764
6 0.124205
6.01 0.126872
6.02 0.128816
6.03 0.130074
6.04 0.130786
6.05 0.131108
6.06 0.13118
6.07 0.131153
6.08 0.131182
6.09 0.13142
6.1 0.132056
6.11 0.133186
6.12 0.134909
6.13 0.137297
6.14 0.140394
6.15 0.144211
6.16 0.148767
6.17 0.15399
6.18 0.159746
6.19 0.165916
6.2 0.172353
6.21 0.178893
6.22 0.185354
6.23 0.191497
6.24 0.197146
6.25 0.202117
6.26 0.206241
6.27 0.209365
6.28 0.21136
6.29 0.212054
6.3 0.211355
6.31 0.209312
6.32 0.20593
6.33 0.201246
6.34 0.195329
6.35 0.188275
6.36 0.180117
6.37 0.171111
6.38 0.161431
6.39 0.151247
6.4 0.140735
6.41 0.130063
6.42 0.1194
6.43 0.108919
6.44 0.0987405
6.45 0.0889676
6.46 0.0796764
6.47 0.0709174
6.48 0.062714
6.49 0.0551133
6.5 0.0480406
6.51 0.0414286
6.52 0.0352051
6.53 0.0292838
6.54 0.0235699
6.55 0.0179639
6.56 0.0123546
6.57 0.00664263
6.58 0.000747315
6.59 -0.00539785
6.6 -0.011842
6.61 -0.0186147
6.62 -0.0257516
6.63 -0.0332173
6.64 -0.0409605
6.65 -0.0489219
6.66 -0.0570246
6.67 -0.0651773
6.68 -0.0732743
6.69 -0.0811781
6.7 -0.0887823
6.71 -0.0959749
6.72 -0.10265
6.73 -0.108709
6.74 -0.114069
6.75 -0.118598
6.76 -0.122262
6.77 -0.125063
6.78 -0.12699
6.79 -0.12805
6.8 -0.128266
6.81 -0.127669
6.82 -0.126243
6.83 -0.124137
6.84 -0.121419
6.85 -0.118162
6.86 -0.114436
6.87 -0.110309
6.88 -0.105822
6.89 -0.101035
6.9 -0.0960017
6.91 -0.0907461
6.92 -0.0852772
6.93 -0.0795907
6.94 -0.0736688
6.95 -0.0674473
6.96 -0.0609103
6.97 -0.0540089
6.98 -0.0466886
6.99 -0.0388934
7 -0.030568
7.01 -0.0216298
7.02 -0.0120186
7.03 -0.00174184
7.04 0.00922061
7.05 0.0208751
7.06 0.0332134
7.07 0.046212
7.08 0.0598907
7.09 0.0741322
7.1 0.0888574
7.11 0.103984
7.12 0.119422
7.13 0.135071
7.14 0.150829
7.15 0.166575
7.16 0.182197
7.17 0.197594
7.18 0.212672
7.19 0.227342
7.2 0.241526
7.21 0.255095
7.22 0.268025
7.23 0.280282
7.24 0.291832
7.25 0.302646
7.26 0.312706
7.27 0.321977
7.28 0.330403
7.29 0.338047
7.3 0.344907
7.31 0.350976
7.32 0.356247
7.33 0.36071
7.34 0.36428
7.35 0.36697
7.36 0.368782
7.37 0.369683
7.38 0.369636
7.39 0.3686
7.4 0.366515
7.41 0.363241
7.42 0.358843
7.43 0.353282
7.44 0.346526
7.45 0.338551
7.46 0.329341
7.47 0.318805
7.48 0.306983
7.49 0.293956
7.5 0.279762
7.51 0.264453
7.52 0.248094
7.53 0.230757
7.54 0.212452
7.55 0.193391
7.56 0.173684
7.57 0.153454
7.58 0.132825
7.59 0.111927
7.6 0.0908919
7.61 0.06987
7.62 0.0489968
7.63 0.0283967
7.64 0.00818894
7.65 -0.0115137
7.66 -0.0306058
7.67 -0.0489007
7.68 -0.0663783
7.69 -0.0829649
7.7 -0.0985922
7.71 -0.113201
7.72 -0.126742
7.73 -0.139118
7.74 -0.150269
7.75 -0.16025
7.76 -0.169049
7.77 -0.176661
7.78 -0.183089
7.79 -0.188343
7.8 -0.192332
7.81 -0.195183
7.82 -0.196956
7.83 -0.197696
7.84 -0.197458
7.85 -0.196305
7.86 -0.194278
7.87 -0.191434
7.88 -0.187924
7.89 -0.183838
7.9 -0.17927
7.91 -0.174315
7.92 -0.169071
7.93 -0.163625
7.94 -0.158095
7.95 -0.152573
7.96 -0.147141
7.97 -0.141872
7.98 -0.136831
7.99 -0.132079
8 -0.12768
8.01 -0.123635
8.02 -0.119954
8.03 -0.116635
8.04 -0.113666
8.05 -0.111022
8.06 -0.108687
8.07 -0.106598
8.08 -0.104695
8.09 -0.10292
8.1 -0.10122
8.11 -0.0995377
8.12 -0.0978206
8.13 -0.0960102
8.14 -0.0940741
8.15 -0.0919851
8.16 -0.0897264
8.17 -0.0872925
8.18 -0.0846892
8.19 -0.0819252
8.2 -0.0790365
8.21 -0.0760692
8.22 -0.0730693
8.23 -0.0700874
8.24 -0.0671766
8.25 -0.0643909
8.26 -0.0618052
8.27 -0.0594477
8.28 -0.0573533
8.29 -0.0555469
8.3 -0.0540408
8.31 -0.0528346
8.32 -0.0519278
8.33 -0.0512859
8.34 -0.0508453
8.35 -0.0505471
8.36 -0.0503219
8.37 -0.0500914
8.38 -0.0497718
8.39 -0.0492472
8.4 -0.0484406
8.41 -0.0472717
8.42 -0.0456666
8.43 -0.0435618
8.44 -0.0409073
8.45 -0.0376417
8.46 -0.0337326
8.47 -0.0292297
8.48 -0.0241597
8.49 -0.0185683
8.5 -0.0125194
8.51 -0.006093
8.52 0.000633675
8.53 0.00751903
8.54 0.0144426
8.55 0.0212858
8.56 0.02793
8.57 0.0342611
8.58 0.0401546
8.59 0.0454788
8.6 0.0501934
8.61 0.0542392
8.62 0.0575762
8.63 0.0601844
8.64 0.0620643
8.65 0.0631786
8.66 0.0636154
8.67 0.063457
8.68 0.0627782
8.69 0.0616646
8.7 0.0602089
8.71 0.0585044
8.72 0.0566486
8.73 0.0547531
8.74 0.052899
8.75 0.0511559
8.76 0.0495786
8.77 0.0482051
8.78 0.0470725
8.79 0.0461707
8.8 0.0454673
8.81 0.0449213
8.82 0.0444753
8.83 0.0440581
8.84 0.0435854
8.85 0.0429413
8.86 0.0420376
8.87 0.0407789
8.88 0.0390739
8.89 0.0368387
8.9 0.0339999
8.91 0.0304518
8.92 0.0261551
8.93 0.0211235
8.94 0.0153543
8.95 0.00886343
8.96 0.00168529
8.97 -0.00612942
8.98 -0.0145705
8.99 -0.0234833
9 -0.0327763
9.01 -0.0423525
9.02 -0.052112
9.03 -0.0619561
9.04 -0.071784
9.05 -0.081495
9.06 -0.0910154
9.07 -0.100282
9.08 -0.109247
9.09 -0.117874
9.1 -0.126145
9.11 -0.134014
9.12 -0.14153
9.13 -0.148717
9.14 -0.155607
9.15 -0.162237
9.16 -0.168649
9.17 -0.174878
9.18 -0.180966
9.19 -0.186958
9.2 -0.19288
9.21 -0.198745
9.22 -0.204559
9.23 -0.210313
9.24 -0.215974
9.25 -0.221509
9.26 -0.226871
9.27 -0.232003
9.28 -0.236839
9.29 -0.241309
9.3 -0.245322
9.31 -0.24877
9.32 -0.251624
9.33 -0.253823
9.34 -0.255316
9.35 -0.256065
9.36 -0.256043
9.37 -0.255175
9.38 -0.253511
9.39 -0.251101
9.4 -0.247984
9.41 -0.244214
9.42 -0.239854
9.43 -0.234968
9.44 -0.229614
9.45 -0.223921
9.46 -0.21797
9.47 -0.211836
9.48 -0.205588
9.49 -0.199282
9.5 -0.192964
9.51 -0.186664
9.52 -0.180391
9.53 -0.174133
9.54 -0.167866
9.55 -0.161545
9.56 -0.155111
9.57 -0.148465
9.58 -0.14154
9.59 -0.134246
9.6 -0.126494
9.61 -0.118194
9.62 -0.109264
9.63 -0.0995799
9.64 -0.0890783
9.65 -0.0777552
9.66 -0.0655862
9.67 -0.0525662
9.68 -0.0387112
9.69 -0.0240578
9.7 -0.00858658
9.71 0.00753087
9.72 0.0241952
9.73 0.0412943
9.74 0.0587052
9.75 0.0762973
9.76 0.0939318
9.77 0.111453
9.78 0.128732
9.79 0.145649
9.8 0.162094
9.81 0.177974
9.82 0.193211
9.83 0.207668
9.84 0.221366
9.85 0.234298
9.86 0.246462
9.87 0.257877
9.88 0.268571
9.89 0.278563
9.9 0.28789
9.91 0.29666
9.92 0.304934
9.93 0.312769
9.94 0.320217
9.95 0.327325
9.96 0.334102
9.97 0.340592
9.98 0.346811
9.99 0.352751
10 0.358393
10.01 0.363704
10.02 0.368628
10.03 0.37308
10.04 0.377031
10.05 0.38042
10.06 0.383181
10.07 0.385257
10.08 0.386592
10.09 0.387075
10.1 0.38671
10.11 0.385511
10.12 0.38348
10.13 0.380637
10.14 0.377021
10.15 0.372674
10.16 0.367626
10.17 0.362036
10.18 0.356006
10.19 0.349645
10.2 0.343069
10.21 0.336395
10.22 0.32975
10.23 0.323261
10.24 0.317026
10.25 0.311135
10.26 0.305662
10.27 0.300665
10.28 0.296186
10.29 0.292301
10.3 0.288947
10.31 0.286099
10.32 0.283716
10.33 0.28174
10.34 0.280097
10.35 0.278713
10.36 0.27748
10.37 0.276285
10.38 0.275027
10.39 0.273608
10.4 0.271935
10.41 0.269922
10.42 0.267435
10.43 0.264453
10.44 0.260928
10.45 0.256824
10.46 0.252122
10.47 0.246812
10.48 0.240872
10.49 0.23431
10.5 0.227196
10.51 0.219564
10.52 0.211455
10.53 0.202911
10.54 0.193974
10.55 0.184655
10.56 0.175025
10.57 0.16512
10.58 0.154964
10.59 0.144574
10.6 0.13396
10.61 0.123115
10.62 0.112024
10.63 0.100693
10.64 0.0891044
10.65 0.0772401
10.66 0.0650802
10.67 0.0526059
10.68 0.0397701
10.69 0.026582
10.7 0.0130467
10.71 -0.000831642
10.72 -0.0150406
10.73 -0.0295585
10.74 -0.0443609
10.75 -0.0594166
10.76 -0.0746507
10.77 -0.0900061
10.78 -0.10542
10.79 -0.120827
10.8 -0.136157
10.81 -0.151326
10.82 -0.166267
10.83 -0.180923
10.84 -0.195242
10.85 -0.209178
10.86 -0.222694
10.87 -0.235757
10.88 -0.24831
10.89 -0.260398
10.9 -0.27203
10.91 -0.283224
10.92 -0.294005
10.93 -0.304408
10.94 -0.314451
10.95 -0.324188
10.96 -0.333677
10.97 -0.34296
10.98 -0.352071
10.99 -0.361044
11 -0.369899
11.01 -0.378642
11.02 -0.387288
11.03 -0.395826
11.04 -0.404239
11.05 -0.412495
11.06 -0.420555
11.07 -0.428354
11.08 -0.435826
11.09 -0.442922
11.1 -0.449577
11.11 -0.455725
11.12 -0.461299
11.13 -0.466237
11.14 -0.470398
11.15 -0.473799
11.16 -0.476404
11.17 -0.478183
11.18 -0.479113
11.19 -0.479186
11.2 -0.478361
11.21 -0.476631
11.22 -0.474078
11.23 -0.470733
11.24 -0.466632
11.25 -0.461814
11.26 -0.456325
11.27 -0.450152
11.28 -0.443395
11.29 -0.436107
11.3 -0.428325
11.31 -0.420081
11.32 -0.411403
11.33 -0.402295
11.34 -0.392752
11.35 -0.38281
11.36 -0.372468
11.37 -0.361718
11.38 -0.350546
11.39 -0.338938
11.4 -0.326835
11.41 -0.314245
11.42 -0.301167
11.43 -0.287589
11.44 -0.273508
11.45 -0.258922
11.46 -0.243831
11.47 -0.22822
11.48 -0.212164
11.49 -0.195701
11.5 -0.178875
11.51 -0.161741
11.52 -0.144361
11.53 -0.126792
11.54 -0.109124
11.55 -0.0914378
11.56 -0.0738106
11.57 -0.056317
11.58 -0.0390295
11.59 -0.0220208
11.6 -0.00539102
11.61 0.0108365
11.62 0.0266165
11.63 0.0419129
11.64 0.0566988
11.65 0.0709564
11.66 0.0846417
11.67 0.097764
11.68 0.11036
11.69 0.122445
11.7 0.13404
11.71 0.145169
11.72 0.155856
11.73 0.166085
11.74 0.17593
11.75 0.185413
11.76 0.194554
11.77 0.203365
11.78 0.211854
11.79 0.220007
11.8 0.227814
11.81 0.235284
11.82 0.2424
11.83 0.249138
11.84 0.255471
11.85 0.261369
11.86 0.266746
11.87 0.271608
11.88 0.275926
11.89 0.279668
11.9 0.282801
11.91 0.2853
11.92 0.287109
11.93 0.288187
11.94 0.288569
11.95 0.288245
11.96 0.287211
11.97 0.285467
11.98 0.283016
11.99 0.279798
12 0.275876
12.01 0.271276
12.02 0.266009
12.03 0.260086
12.04 0.253516
12.05 0.246287
12.06 0.238373
12.07 0.229831
12.08 0.220661
12.09 0.210861
12.1 0.200428
12.11 0.189356
12.12 0.177584
12.13 0.165142
12.14 0.152045
12.15 0.138294
12.16 0.123891
12.17 0.108848
