# xPDFsuite Configuration #
[PDF]
wavelength = 0.1
dataformat = QA
inputfile = BiMsol6_insitu_700 C-00357.xy
backgroundfile = Quartz2mm-dist500-00000.xy
mode = xray
bgscale = 0.0042
composition = Bi2Fe4O9
outputtype = gr
qmaxinst = 24.998449118
qmin = 0.1
qmax = 21.4986662415
rmax = 80.0
rmin = 0.0
rstep = 0.01
rpoly = 0.9

[Misc]
inputdir = C:/Data/Seafile/CPH/Beamtime/Desy Oct 20/In situ data/Processed/BiMsol6/PDF
savedir = C:/Data/Seafile/CPH/Beamtime/Desy Oct 20/In situ data/PDF/BiMsol6
backgroundfilefull = C:/Data/Seafile/CPH/Beamtime/Desy Oct 20/In situ data/Processed/Standard_Empty_Cap/Quartz2mm-dist500-00000.xy

#### start data
#S 1
#L r($\AA$)  G($\AA^{-2}$)
0 0
0.01 0.00636429
0.02 0.0123701
0.03 0.0177107
0.04 0.0221107
0.05 0.0253388
0.06 0.0272186
0.07 0.0275571
0.08 0.0262976
0.09 0.0235815
0.1 0.019525
0.11 0.0143086
0.12 0.00816912
0.13 0.0013896
0.14 -0.00571234
0.15 -0.0127354
0.16 -0.0193412
0.17 -0.025212
0.18 -0.0300629
0.19 -0.0336554
0.2 -0.0357449
0.21 -0.0361634
0.22 -0.0350073
0.23 -0.0323413
0.24 -0.028308
0.25 -0.0231229
0.26 -0.0170664
0.27 -0.0104575
0.28 -0.00375697
0.29 0.00262521
0.3 0.00829037
0.31 0.0128592
0.32 0.0159904
0.33 0.017338
0.34 0.0165628
0.35 0.0137153
0.36 0.00879114
0.37 0.00188978
0.38 -0.0067839
0.39 -0.0169225
0.4 -0.0281695
0.41 -0.0399085
0.42 -0.0515335
0.43 -0.0624274
0.44 -0.071951
0.45 -0.0794661
0.46 -0.0842968
0.47 -0.0855714
0.48 -0.0830947
0.49 -0.0765082
0.5 -0.065575
0.51 -0.0501935
0.52 -0.0304084
0.53 -0.00613658
0.54 0.02208
0.55 0.0535215
0.56 0.0875209
0.57 0.123295
0.58 0.159967
0.59 0.196579
0.6 0.231913
0.61 0.264997
0.62 0.294857
0.63 0.320581
0.64 0.341342
0.65 0.35643
0.66 0.364859
0.67 0.366217
0.68 0.360662
0.69 0.348183
0.7 0.328957
0.71 0.303339
0.72 0.271854
0.73 0.234686
0.74 0.193332
0.75 0.148758
0.76 0.101992
0.77 0.0541006
0.78 0.00616473
0.79 -0.0406524
0.8 -0.0851729
0.81 -0.12658
0.82 -0.164095
0.83 -0.197072
0.84 -0.22502
0.85 -0.24761
0.86 -0.264113
0.87 -0.275069
0.88 -0.280769
0.89 -0.281579
0.9 -0.277994
0.91 -0.270624
0.92 -0.260073
0.93 -0.24712
0.94 -0.232788
0.95 -0.217868
0.96 -0.203121
0.97 -0.189253
0.98 -0.176897
0.99 -0.16682
1 -0.159339
1.01 -0.154677
1.02 -0.152984
1.03 -0.154284
1.04 -0.158483
1.05 -0.165444
1.06 -0.174957
1.07 -0.186388
1.08 -0.199278
1.09 -0.213136
1.1 -0.227456
1.11 -0.241739
1.12 -0.255436
1.13 -0.268094
1.14 -0.279388
1.15 -0.289043
1.16 -0.296872
1.17 -0.302771
1.18 -0.306697
1.19 -0.308585
1.2 -0.308799
1.21 -0.307574
1.22 -0.305195
1.23 -0.301984
1.24 -0.298284
1.25 -0.294456
1.26 -0.290881
1.27 -0.287858
1.28 -0.285637
1.29 -0.284411
1.3 -0.284308
1.31 -0.285396
1.32 -0.287775
1.33 -0.291211
1.34 -0.29554
1.35 -0.300541
1.36 -0.305951
1.37 -0.311473
1.38 -0.316762
1.39 -0.321454
1.4 -0.325268
1.41 -0.327937
1.42 -0.329241
1.43 -0.329013
1.44 -0.327152
1.45 -0.323446
1.46 -0.318134
1.47 -0.311358
1.48 -0.303324
1.49 -0.294296
1.5 -0.28459
1.51 -0.274565
1.52 -0.26466
1.53 -0.255284
1.54 -0.246815
1.55 -0.239605
1.56 -0.233963
1.57 -0.230144
1.58 -0.228552
1.59 -0.229124
1.6 -0.231835
1.61 -0.236607
1.62 -0.243276
1.63 -0.251603
1.64 -0.261306
1.65 -0.271995
1.66 -0.28313
1.67 -0.29425
1.68 -0.304878
1.69 -0.314546
1.7 -0.322804
1.71 -0.329046
1.72 -0.332999
1.73 -0.334447
1.74 -0.333202
1.75 -0.329165
1.76 -0.322327
1.77 -0.312709
1.78 -0.300351
1.79 -0.285779
1.8 -0.269345
1.81 -0.251458
1.82 -0.232571
1.83 -0.213167
1.84 -0.19378
1.85 -0.174959
1.86 -0.157161
1.87 -0.140796
1.88 -0.126222
1.89 -0.113727
1.9 -0.103556
1.91 -0.0960512
1.92 -0.090991
1.93 -0.0883048
1.94 -0.0878414
1.95 -0.0893755
1.96 -0.0926183
1.97 -0.0972948
1.98 -0.102942
1.99 -0.109092
2 -0.115339
2.01 -0.121292
2.02 -0.126589
2.03 -0.130905
2.04 -0.133816
2.05 -0.135259
2.06 -0.135126
2.07 -0.133386
2.08 -0.130085
2.09 -0.125343
2.1 -0.119294
2.11 -0.112233
2.12 -0.104547
2.13 -0.0965851
2.14 -0.0887183
2.15 -0.0813241
2.16 -0.0747733
2.17 -0.0695803
2.18 -0.0659604
2.19 -0.064157
2.2 -0.0643639
2.21 -0.0667088
2.22 -0.0712493
2.23 -0.0780653
2.24 -0.0871018
2.25 -0.0980305
2.26 -0.110619
2.27 -0.124584
2.28 -0.139601
2.29 -0.155316
2.3 -0.171354
2.31 -0.187277
2.32 -0.20272
2.33 -0.217352
2.34 -0.230876
2.35 -0.243043
2.36 -0.2536
2.37 -0.262318
2.38 -0.269271
2.39 -0.274467
2.4 -0.277975
2.41 -0.279918
2.42 -0.280475
2.43 -0.279783
2.44 -0.2782
2.45 -0.276039
2.46 -0.27359
2.47 -0.271141
2.48 -0.268968
2.49 -0.267344
2.5 -0.26657
2.51 -0.266766
2.52 -0.268061
2.53 -0.270536
2.54 -0.274223
2.55 -0.279104
2.56 -0.285191
2.57 -0.292315
2.58 -0.300277
2.59 -0.308891
2.6 -0.317954
2.61 -0.327246
2.62 -0.336541
2.63 -0.345573
2.64 -0.354139
2.65 -0.362054
2.66 -0.369154
2.67 -0.375307
2.68 -0.38041
2.69 -0.384318
2.7 -0.387009
2.71 -0.388545
2.72 -0.388955
2.73 -0.388293
2.74 -0.386631
2.75 -0.384053
2.76 -0.38057
2.77 -0.37638
2.78 -0.371574
2.79 -0.36623
2.8 -0.360415
2.81 -0.354178
2.82 -0.347531
2.83 -0.340478
2.84 -0.333031
2.85 -0.325159
2.86 -0.316814
2.87 -0.30794
2.88 -0.298471
2.89 -0.288261
2.9 -0.277302
2.91 -0.265545
2.92 -0.252946
2.93 -0.239478
2.94 -0.225136
2.95 -0.209899
2.96 -0.193791
2.97 -0.176947
2.98 -0.159462
2.99 -0.141451
3 -0.12305
3.01 -0.104408
3.02 -0.0856916
3.03 -0.0670899
3.04 -0.0487661
3.05 -0.0308743
3.06 -0.013555
3.07 0.00306918
3.08 0.0188706
3.09 0.0337232
3.1 0.0476598
3.11 0.0606747
3.12 0.0727928
3.13 0.0840688
3.14 0.0945853
3.15 0.104405
3.16 0.113708
3.17 0.122661
3.18 0.131418
3.19 0.140137
3.2 0.14897
3.21 0.158071
3.22 0.167611
3.23 0.177667
3.24 0.188318
3.25 0.199613
3.26 0.211573
3.27 0.224187
3.28 0.237454
3.29 0.25127
3.3 0.265504
3.31 0.280029
3.32 0.294701
3.33 0.309359
3.34 0.323834
3.35 0.337903
3.36 0.351424
3.37 0.364243
3.38 0.376222
3.39 0.387241
3.4 0.397203
3.41 0.405964
3.42 0.413487
3.43 0.419827
3.44 0.425003
3.45 0.429063
3.46 0.432078
3.47 0.43414
3.48 0.43528
3.49 0.435732
3.5 0.435634
3.51 0.43513
3.52 0.434359
3.53 0.433461
3.54 0.432571
3.55 0.431826
3.56 0.431326
3.57 0.431153
3.58 0.431375
3.59 0.43204
3.6 0.433179
3.61 0.434854
3.62 0.437014
3.63 0.439633
3.64 0.442677
3.65 0.446103
3.66 0.449863
3.67 0.453913
3.68 0.458194
3.69 0.462632
3.7 0.467172
3.71 0.471762
3.72 0.476357
3.73 0.480914
3.74 0.485385
3.75 0.489738
3.76 0.493947
3.77 0.497984
3.78 0.501824
3.79 0.50544
3.8 0.508797
3.81 0.511844
3.82 0.514567
3.83 0.516926
3.84 0.518876
3.85 0.520365
3.86 0.521336
3.87 0.521673
3.88 0.521329
3.89 0.520253
3.9 0.518375
3.91 0.515623
3.92 0.511929
3.93 0.507205
3.94 0.501301
3.95 0.494267
3.96 0.486061
3.97 0.476652
3.98 0.466021
3.99 0.45416
4 0.440988
4.01 0.426558
4.02 0.410957
4.03 0.394229
4.04 0.376426
4.05 0.357612
4.06 0.337849
4.07 0.317136
4.08 0.295656
4.09 0.273494
4.1 0.250738
4.11 0.227476
4.12 0.203796
4.13 0.17977
4.14 0.155499
4.15 0.131084
4.16 0.106608
4.17 0.0821501
4.18 0.0577899
4.19 0.033605
4.2 0.00970959
4.21 -0.0138401
4.22 -0.036969
4.23 -0.059601
4.24 -0.0816604
4.25 -0.103072
4.26 -0.123723
4.27 -0.143515
4.28 -0.16243
4.29 -0.180403
4.3 -0.197376
4.31 -0.213296
4.32 -0.22812
4.33 -0.241696
4.34 -0.254099
4.35 -0.26534
4.36 -0.275422
4.37 -0.284367
4.38 -0.292208
4.39 -0.298953
4.4 -0.304633
4.41 -0.309405
4.42 -0.313355
4.43 -0.316577
4.44 -0.31917
4.45 -0.321237
4.46 -0.322855
4.47 -0.324166
4.48 -0.325278
4.49 -0.326281
4.5 -0.327255
4.51 -0.328269
4.52 -0.329382
4.53 -0.330648
4.54 -0.332078
4.55 -0.333679
4.56 -0.335444
4.57 -0.337349
4.58 -0.339362
4.59 -0.341438
4.6 -0.343513
4.61 -0.345526
4.62 -0.347415
4.63 -0.34912
4.64 -0.350582
4.65 -0.351744
4.66 -0.352529
4.67 -0.352937
4.68 -0.352951
4.69 -0.352565
4.7 -0.351786
4.71 -0.350638
4.72 -0.349136
4.73 -0.347342
4.74 -0.345332
4.75 -0.343175
4.76 -0.340945
4.77 -0.338719
4.78 -0.336577
4.79 -0.334621
4.8 -0.332912
4.81 -0.331513
4.82 -0.330479
4.83 -0.329856
4.84 -0.329677
4.85 -0.329988
4.86 -0.330798
4.87 -0.33207
4.88 -0.333784
4.89 -0.335909
4.9 -0.338405
4.91 -0.341223
4.92 -0.344331
4.93 -0.347636
4.94 -0.351075
4.95 -0.354587
4.96 -0.358111
4.97 -0.361591
4.98 -0.364966
4.99 -0.368179
5 -0.371195
5.01 -0.373978
5.02 -0.376495
5.03 -0.37872
5.04 -0.380627
5.05 -0.38216
5.06 -0.383322
5.07 -0.384096
5.08 -0.38446
5.09 -0.384386
5.1 -0.383842
5.11 -0.382773
5.12 -0.381106
5.13 -0.378832
5.14 -0.375899
5.15 -0.372248
5.16 -0.367817
5.17 -0.362542
5.18 -0.35627
5.19 -0.348985
5.2 -0.34065
5.21 -0.331211
5.22 -0.320617
5.23 -0.308828
5.24 -0.295782
5.25 -0.281373
5.26 -0.26571
5.27 -0.248802
5.28 -0.230671
5.29 -0.21135
5.3 -0.190885
5.31 -0.169255
5.32 -0.14658
5.33 -0.12298
5.34 -0.0985402
5.35 -0.0733511
5.36 -0.047506
5.37 -0.0210942
5.38 0.00581823
5.39 0.0330803
5.4 0.0605988
5.41 0.0882825
5.42 0.116043
5.43 0.143793
5.44 0.171437
5.45 0.198879
5.46 0.22604
5.47 0.252835
5.48 0.279175
5.49 0.304966
5.5 0.330108
5.51 0.3544
5.52 0.377805
5.53 0.400201
5.54 0.421462
5.55 0.441452
5.56 0.460033
5.57 0.476968
5.58 0.49208
5.59 0.505323
5.6 0.516559
5.61 0.525661
5.62 0.532509
5.63 0.537001
5.64 0.538782
5.65 0.538027
5.66 0.534727
5.67 0.528876
5.68 0.520496
5.69 0.50964
5.7 0.496289
5.71 0.480508
5.72 0.462616
5.73 0.442783
5.74 0.421201
5.75 0.398081
5.76 0.373646
5.77 0.348051
5.78 0.321644
5.79 0.294685
5.8 0.267406
5.81 0.24003
5.82 0.212762
5.83 0.185809
5.84 0.159383
5.85 0.133592
5.86 0.108552
5.87 0.0843496
5.88 0.0610483
5.89 0.0386883
5.9 0.0173709
5.91 -0.0029592
5.92 -0.0223504
5.93 -0.0408315
5.94 -0.0584377
5.95 -0.0752063
5.96 -0.0911561
5.97 -0.106264
5.98 -0.120623
5.99 -0.134241
6 -0.147109
6.01 -0.159203
6.02 -0.170486
6.03 -0.180831
6.04 -0.190189
6.05 -0.198513
6.06 -0.205712
6.07 -0.211691
6.08 -0.216354
6.09 -0.21959
6.1 -0.221165
6.11 -0.221161
6.12 -0.219527
6.13 -0.216231
6.14 -0.211267
6.15 -0.204654
6.16 -0.196341
6.17 -0.186435
6.18 -0.17513
6.19 -0.162561
6.2 -0.148888
6.21 -0.134288
6.22 -0.118957
6.23 -0.103066
6.24 -0.0869086
6.25 -0.0706998
6.26 -0.0546478
6.27 -0.0389503
6.28 -0.0237891
6.29 -0.00937008
6.3 0.00414362
6.31 0.0166975
6.32 0.0282212
6.33 0.0386763
6.34 0.0480566
6.35 0.0563872
6.36 0.0636274
6.37 0.0699673
6.38 0.0755316
6.39 0.0804527
6.4 0.084878
6.41 0.0889648
6.42 0.0928752
6.43 0.0967938
6.44 0.100887
6.45 0.105299
6.46 0.11016
6.47 0.115583
6.48 0.121659
6.49 0.128531
6.5 0.136195
6.51 0.14465
6.52 0.153892
6.53 0.163891
6.54 0.174604
6.55 0.185984
6.56 0.197976
6.57 0.210436
6.58 0.223272
6.59 0.236387
6.6 0.249687
6.61 0.263082
6.62 0.276483
6.63 0.289807
6.64 0.302992
6.65 0.315991
6.66 0.328765
6.67 0.341289
6.68 0.353544
6.69 0.365502
6.7 0.377191
6.71 0.388621
6.72 0.399799
6.73 0.410734
6.74 0.421429
6.75 0.431866
6.76 0.442038
6.77 0.451931
6.78 0.461509
6.79 0.470723
6.8 0.479509
6.81 0.487785
6.82 0.495388
6.83 0.50227
6.84 0.508316
6.85 0.513403
6.86 0.517405
6.87 0.520191
6.88 0.521545
6.89 0.521331
6.9 0.519511
6.91 0.515981
6.92 0.510654
6.93 0.503455
6.94 0.494328
6.95 0.483013
6.96 0.469715
6.97 0.454453
6.98 0.437261
6.99 0.418193
7 0.397323
7.01 0.374665
7.02 0.350321
7.03 0.324534
7.04 0.297442
7.05 0.269196
7.06 0.239953
7.07 0.209873
7.08 0.179068
7.09 0.147777
7.1 0.116168
7.11 0.084396
7.12 0.0526082
7.13 0.0209446
7.14 -0.0104488
7.15 -0.0414203
7.16 -0.0718833
7.17 -0.10174
7.18 -0.130902
7.19 -0.159292
7.2 -0.186843
7.21 -0.213408
7.22 -0.238992
7.23 -0.263577
7.24 -0.287131
7.25 -0.309625
7.26 -0.331038
7.27 -0.351321
7.28 -0.370395
7.29 -0.38835
7.3 -0.405182
7.31 -0.420891
7.32 -0.43548
7.33 -0.448955
7.34 -0.461236
7.35 -0.472387
7.36 -0.482464
7.37 -0.491484
7.38 -0.499468
7.39 -0.506441
7.4 -0.512412
7.41 -0.517335
7.42 -0.52134
7.43 -0.524461
7.44 -0.526734
7.45 -0.528198
7.46 -0.52889
7.47 -0.528802
7.48 -0.527998
7.49 -0.526551
7.5 -0.524503
7.51 -0.521892
7.52 -0.518756
7.53 -0.51513
7.54 -0.511004
7.55 -0.506462
7.56 -0.501533
7.57 -0.496244
7.58 -0.490615
7.59 -0.484667
7.6 -0.478397
7.61 -0.471819
7.62 -0.464957
7.63 -0.457816
7.64 -0.450396
7.65 -0.442693
7.66 -0.434704
7.67 -0.426387
7.68 -0.417763
7.69 -0.408823
7.7 -0.399557
7.71 -0.389954
7.72 -0.380007
7.73 -0.369691
7.74 -0.358995
7.75 -0.347945
7.76 -0.336548
7.77 -0.324815
7.78 -0.312766
7.79 -0.300424
7.8 -0.287802
7.81 -0.274966
7.82 -0.261971
7.83 -0.248872
7.84 -0.235736
7.85 -0.22263
7.86 -0.20964
7.87 -0.196866
7.88 -0.184381
7.89 -0.172273
7.9 -0.160628
7.91 -0.149529
7.92 -0.13906
7.93 -0.129364
7.94 -0.120477
7.95 -0.112437
7.96 -0.105296
7.97 -0.0990913
7.98 -0.0938517
7.99 -0.0896178
8 -0.086456
8.01 -0.0842638
8.02 -0.0830165
8.03 -0.0826782
8.04 -0.0832031
8.05 -0.0845361
8.06 -0.0866678
8.07 -0.0894902
8.08 -0.092902
8.09 -0.0968283
8.1 -0.101194
8.11 -0.105927
8.12 -0.110959
8.13 -0.116239
8.14 -0.12168
8.15 -0.127229
8.16 -0.132842
8.17 -0.138483
8.18 -0.144119
8.19 -0.149722
8.2 -0.15527
8.21 -0.16075
8.22 -0.166148
8.23 -0.171452
8.24 -0.176645
8.25 -0.181711
8.26 -0.186608
8.27 -0.191321
8.28 -0.195813
8.29 -0.200038
8.3 -0.203942
8.31 -0.207462
8.32 -0.210495
8.33 -0.212946
8.34 -0.214755
8.35 -0.215828
8.36 -0.21607
8.37 -0.215384
8.38 -0.213673
8.39 -0.210715
8.4 -0.20653
8.41 -0.201053
8.42 -0.194221
8.43 -0.185986
8.44 -0.176314
8.45 -0.165122
8.46 -0.152372
8.47 -0.138193
8.48 -0.122623
8.49 -0.105717
8.5 -0.087547
8.51 -0.0681956
8.52 -0.0476625
8.53 -0.0261509
8.54 -0.00379303
8.55 0.0192966
8.56 0.043003
8.57 0.067214
8.58 0.0918318
8.59 0.116758
8.6 0.141871
8.61 0.167094
8.62 0.192358
8.63 0.217609
8.64 0.242801
8.65 0.267888
8.66 0.29285
8.67 0.317672
8.68 0.342342
8.69 0.36685
8.7 0.391185
8.71 0.415329
8.72 0.439246
8.73 0.462922
8.74 0.486318
8.75 0.509381
8.76 0.532044
8.77 0.554228
8.78 0.575785
8.79 0.596611
8.8 0.616603
8.81 0.635627
8.82 0.653538
8.83 0.670186
8.84 0.685399
8.85 0.69886
8.86 0.710571
8.87 0.720394
8.88 0.728199
8.89 0.733871
8.9 0.737312
8.91 0.738289
8.92 0.736768
8.93 0.732839
8.94 0.726497
8.95 0.717757
8.96 0.706657
8.97 0.693253
8.98 0.677379
8.99 0.659401
9 0.639432
9.01 0.617596
9.02 0.594028
9.03 0.568865
9.04 0.542179
9.05 0.514121
9.06 0.484919
9.07 0.454708
9.08 0.423615
9.09 0.391761
9.1 0.359261
9.11 0.326174
9.12 0.292663
9.13 0.258825
9.14 0.224751
9.15 0.190526
9.16 0.156238
9.17 0.121979
9.18 0.0878567
9.19 0.053966
9.2 0.0204103
9.21 -0.0126991
9.22 -0.0452429
9.23 -0.0770929
9.24 -0.10802
9.25 -0.137924
9.26 -0.166673
9.27 -0.194111
9.28 -0.220083
9.29 -0.244432
9.3 -0.266947
9.31 -0.28736
9.32 -0.305693
9.33 -0.321829
9.34 -0.335664
9.35 -0.347115
9.36 -0.356119
9.37 -0.362422
9.38 -0.366139
9.39 -0.367363
9.4 -0.366131
9.41 -0.3625
9.42 -0.356551
9.43 -0.348341
9.44 -0.337844
9.45 -0.325408
9.46 -0.311179
9.47 -0.29531
9.48 -0.277959
9.49 -0.259287
9.5 -0.239379
9.51 -0.218445
9.52 -0.196682
9.53 -0.174227
9.54 -0.151211
9.55 -0.127751
9.56 -0.103953
9.57 -0.0799033
9.58 -0.0557204
9.59 -0.0314822
9.6 -0.00725962
9.61 0.0168811
9.62 0.0408767
9.63 0.0646481
9.64 0.0881244
9.65 0.111251
9.66 0.133958
9.67 0.156169
9.68 0.177804
9.69 0.198775
9.7 0.21889
9.71 0.238127
9.72 0.256384
9.73 0.273558
9.74 0.289545
9.75 0.304242
9.76 0.317477
9.77 0.329128
9.78 0.33921
9.79 0.347661
9.8 0.354433
9.81 0.359494
9.82 0.362832
9.83 0.364276
9.84 0.364015
9.85 0.362121
9.86 0.358662
9.87 0.353724
9.88 0.347406
9.89 0.339775
9.9 0.330933
9.91 0.321106
9.92 0.310429
9.93 0.299039
9.94 0.287068
9.95 0.274642
9.96 0.261861
9.97 0.248865
9.98 0.235755
9.99 0.222609
10 0.20949
10.01 0.196446
10.02 0.183515
10.03 0.170725
10.04 0.15807
10.05 0.145543
10.06 0.133132
10.07 0.120814
10.08 0.108565
10.09 0.0963639
10.1 0.0841804
10.11 0.0719943
10.12 0.0597925
10.13 0.047569
10.14 0.0353266
10.15 0.0230771
10.16 0.0108466
10.17 -0.00133174
10.18 -0.0134173
10.19 -0.0253623
10.2 -0.0371138
10.21 -0.0486152
10.22 -0.0597821
10.23 -0.0705569
10.24 -0.0809006
10.25 -0.0907651
10.26 -0.10011
10.27 -0.108903
10.28 -0.117118
10.29 -0.124687
10.3 -0.131677
10.31 -0.138106
10.32 -0.144003
10.33 -0.149407
10.34 -0.154368
10.35 -0.158922
10.36 -0.163145
10.37 -0.167126
10.38 -0.170934
10.39 -0.174636
10.4 -0.178297
10.41 -0.181977
10.42 -0.185739
10.43 -0.189622
10.44 -0.193656
10.45 -0.197861
10.46 -0.202243
10.47 -0.206801
10.48 -0.211527
10.49 -0.216394
10.5 -0.221359
10.51 -0.22638
10.52 -0.231412
10.53 -0.236406
10.54 -0.241314
10.55 -0.246068
10.56 -0.250632
10.57 -0.25497
10.58 -0.259051
10.59 -0.26285
10.6 -0.266354
10.61 -0.269545
10.62 -0.272418
10.63 -0.275011
10.64 -0.277348
10.65 -0.279459
10.66 -0.281382
10.67 -0.283156
10.68 -0.28482
10.69 -0.286431
10.7 -0.288035
10.71 -0.289671
10.72 -0.291376
10.73 -0.293181
10.74 -0.295112
10.75 -0.297196
10.76 -0.299428
10.77 -0.301805
10.78 -0.304319
10.79 -0.306952
10.8 -0.309682
10.81 -0.312484
10.82 -0.315319
10.83 -0.31815
10.84 -0.32094
10.85 -0.323658
10.86 -0.32627
10.87 -0.328745
10.88 -0.331044
10.89 -0.333164
10.9 -0.335093
10.91 -0.336826
10.92 -0.338365
10.93 -0.339714
10.94 -0.340875
10.95 -0.341868
10.96 -0.342718
10.97 -0.343445
10.98 -0.344066
10.99 -0.344596
11 -0.345049
11.01 -0.345423
11.02 -0.345728
11.03 -0.345954
11.04 -0.346089
11.05 -0.346108
11.06 -0.345981
11.07 -0.345656
11.08 -0.345081
11.09 -0.344216
11.1 -0.343004
11.11 -0.341388
11.12 -0.339311
11.13 -0.336715
11.14 -0.333478
11.15 -0.329609
11.16 -0.325073
11.17 -0.31984
11.18 -0.313891
11.19 -0.307218
11.2 -0.299793
11.21 -0.291621
11.22 -0.282785
11.23 -0.273329
11.24 -0.263309
11.25 -0.252788
11.26 -0.24184
11.27 -0.230516
11.28 -0.218937
11.29 -0.207194
11.3 -0.195368
11.31 -0.18354
11.32 -0.171783
11.33 -0.160172
11.34 -0.148777
11.35 -0.137631
11.36 -0.126764
11.37 -0.116195
11.38 -0.105928
11.39 -0.0959554
11.4 -0.0862789
11.41 -0.0768444
11.42 -0.0675996
11.43 -0.0584917
11.44 -0.0494617
11.45 -0.040446
11.46 -0.0313754
11.47 -0.0221671
11.48 -0.012763
11.49 -0.00310386
11.5 0.00686412
11.51 0.0171871
11.52 0.0279027
11.53 0.039073
11.54 0.0507008
11.55 0.0627741
11.56 0.0752876
11.57 0.0882262
11.58 0.101566
11.59 0.11528
11.6 0.129353
11.61 0.143703
11.62 0.158281
11.63 0.173037
11.64 0.18792
11.65 0.202879
11.66 0.217863
11.67 0.232822
11.68 0.247712
11.69 0.262498
11.7 0.277147
11.71 0.291632
11.72 0.305929
11.73 0.319993
11.74 0.33383
11.75 0.347425
11.76 0.360765
11.77 0.373833
11.78 0.386615
11.79 0.399072
11.8 0.411176
11.81 0.422914
11.82 0.434253
11.83 0.44515
11.84 0.455559
11.85 0.465423
11.86 0.474612
11.87 0.48311
11.88 0.490853
11.89 0.497766
11.9 0.503771
11.91 0.508792
11.92 0.512705
11.93 0.515392
11.94 0.516868
11.95 0.517071
11.96 0.515952
11.97 0.513469
11.98 0.509592
11.99 0.504166
12 0.497297
12.01 0.489025
12.02 0.479376
12.03 0.468389
12.04 0.456117
12.05 0.442587
12.06 0.42783
12.07 0.412035
12.08 0.395302
12.09 0.377736
12.1 0.359449
12.11 0.340556
12.12 0.321144
12.13 0.301374
12.14 0.281381
12.15 0.261282
12.16 0.241189
12.17 0.221214
12.18 0.201469
12.19 0.182089
12.2 0.163142
12.21 0.144713
12.22 0.126882
12.23 0.109718
12.24 0.0932884
12.25 0.077713
