# xPDFsuite Configuration #
[PDF]
wavelength = 0.1
dataformat = QA
inputfile = BiMsol6_insitu_700 C-00063.xy
backgroundfile = Quartz2mm-dist500-00000.xy
mode = xray
bgscale = 0.0042
composition = Bi2Fe4O9
outputtype = gr
qmaxinst = 24.998449118
qmin = 0.1
qmax = 21.4986662415
rmax = 80.0
rmin = 0.0
rstep = 0.01
rpoly = 0.9

[Misc]
inputdir = C:/Data/Seafile/CPH/Beamtime/Desy Oct 20/In situ data/Processed/BiMsol6/PDF
savedir = C:/Data/Seafile/CPH/Beamtime/Desy Oct 20/In situ data/PDF/BiMsol6
backgroundfilefull = C:/Data/Seafile/CPH/Beamtime/Desy Oct 20/In situ data/Processed/Standard_Empty_Cap/Quartz2mm-dist500-00000.xy

#### start data
#S 1
#L r($\AA$)  G($\AA^{-2}$)
0 0
0.01 0.00632121
0.02 0.012288
0.03 0.017597
0.04 0.0219762
0.05 0.0251968
0.06 0.0270847
0.07 0.0274491
0.08 0.0262345
0.09 0.0235807
0.1 0.019603
0.11 0.0144801
0.12 0.00844651
0.13 0.00178214
0.14 -0.00519859
0.15 -0.0120992
0.16 -0.0185851
0.17 -0.0243426
0.18 -0.0290902
0.19 -0.0325926
0.2 -0.0346082
0.21 -0.0349715
0.22 -0.0337779
0.23 -0.0310918
0.24 -0.0270538
0.25 -0.0218768
0.26 -0.0158371
0.27 -0.00924892
0.28 -0.00256602
0.29 0.003808
0.3 0.00948134
0.31 0.0140816
0.32 0.017274
0.33 0.0187199
0.34 0.0180882
0.35 0.0154295
0.36 0.0107413
0.37 0.00412297
0.38 -0.004223
0.39 -0.0139938
0.4 -0.0248382
0.41 -0.0361527
0.42 -0.0473449
0.43 -0.0578131
0.44 -0.0669347
0.45 -0.0740902
0.46 -0.0786253
0.47 -0.0796979
0.48 -0.0771272
0.49 -0.0705746
0.5 -0.0598219
0.51 -0.0447844
0.52 -0.025521
0.53 -0.00197395
0.54 0.0253126
0.55 0.0556255
0.56 0.0883003
0.57 0.122562
0.58 0.157546
0.59 0.192311
0.6 0.225653
0.61 0.256642
0.62 0.284338
0.63 0.307864
0.64 0.32643
0.65 0.339364
0.66 0.345729
0.67 0.345157
0.68 0.337838
0.69 0.323797
0.7 0.303241
0.71 0.276551
0.72 0.244277
0.73 0.206649
0.74 0.165144
0.75 0.120728
0.76 0.0744215
0.77 0.0272813
0.78 -0.0196305
0.79 -0.0651629
0.8 -0.108168
0.81 -0.14788
0.82 -0.183554
0.83 -0.214584
0.84 -0.240519
0.85 -0.261068
0.86 -0.275544
0.87 -0.284522
0.88 -0.288324
0.89 -0.287341
0.9 -0.282088
0.91 -0.273189
0.92 -0.261262
0.93 -0.247094
0.94 -0.231691
0.95 -0.215833
0.96 -0.200264
0.97 -0.185674
0.98 -0.172669
0.99 -0.161994
1 -0.153933
1.01 -0.148681
1.02 -0.146362
1.03 -0.146978
1.04 -0.150412
1.05 -0.15651
1.06 -0.165041
1.07 -0.175374
1.08 -0.187051
1.09 -0.199586
1.1 -0.212483
1.11 -0.225258
1.12 -0.237377
1.13 -0.248418
1.14 -0.258081
1.15 -0.266122
1.16 -0.272379
1.17 -0.276778
1.18 -0.279301
1.19 -0.279919
1.2 -0.279005
1.21 -0.276806
1.22 -0.273619
1.23 -0.26977
1.24 -0.265599
1.25 -0.261473
1.26 -0.257753
1.27 -0.254716
1.28 -0.252589
1.29 -0.251542
1.3 -0.251679
1.31 -0.253039
1.32 -0.255693
1.33 -0.25938
1.34 -0.263911
1.35 -0.269046
1.36 -0.274505
1.37 -0.279979
1.38 -0.28511
1.39 -0.289533
1.4 -0.292974
1.41 -0.295178
1.42 -0.295935
1.43 -0.295096
1.44 -0.29258
1.45 -0.288195
1.46 -0.282207
1.47 -0.274783
1.48 -0.266147
1.49 -0.256584
1.5 -0.246424
1.51 -0.236046
1.52 -0.225898
1.53 -0.216385
1.54 -0.20788
1.55 -0.200729
1.56 -0.195227
1.57 -0.191612
1.58 -0.190268
1.59 -0.191104
1.6 -0.194065
1.61 -0.199047
1.62 -0.205861
1.63 -0.214239
1.64 -0.223873
1.65 -0.234344
1.66 -0.245107
1.67 -0.25569
1.68 -0.265613
1.69 -0.274405
1.7 -0.281625
1.71 -0.286663
1.72 -0.289276
1.73 -0.28927
1.74 -0.286481
1.75 -0.280834
1.76 -0.272347
1.77 -0.261065
1.78 -0.247057
1.79 -0.230869
1.8 -0.212868
1.81 -0.193476
1.82 -0.173152
1.83 -0.152379
1.84 -0.131687
1.85 -0.111612
1.86 -0.0925846
1.87 -0.0749954
1.88 -0.0591719
1.89 -0.0453709
1.9 -0.0338034
1.91 -0.0247644
1.92 -0.0180097
1.93 -0.0134405
1.94 -0.0108818
1.95 -0.0100906
1.96 -0.010767
1.97 -0.0126176
1.98 -0.0151928
1.99 -0.0180544
2 -0.0208254
2.01 -0.0231524
2.02 -0.02472
2.03 -0.0252592
2.04 -0.024417
2.05 -0.0222036
2.06 -0.0185843
2.07 -0.0136024
2.08 -0.00737806
2.09 -0.000103676
2.1 0.00798961
2.11 0.0165353
2.12 0.025123
2.13 0.0333627
2.14 0.0408544
2.15 0.0472035
2.16 0.0520358
2.17 0.0547766
2.18 0.0553071
2.19 0.0534294
2.2 0.0490027
2.21 0.0419632
2.22 0.0323274
2.23 0.0200872
2.24 0.00539356
2.25 -0.01131
2.26 -0.0296962
2.27 -0.0493871
2.28 -0.0699669
2.29 -0.0909952
2.3 -0.111977
2.31 -0.132421
2.32 -0.15191
2.33 -0.170064
2.34 -0.18655
2.35 -0.201093
2.36 -0.213406
2.37 -0.223233
2.38 -0.230711
2.39 -0.235872
2.4 -0.238817
2.41 -0.239711
2.42 -0.23878
2.43 -0.236184
2.44 -0.232366
2.45 -0.227709
2.46 -0.22256
2.47 -0.217261
2.48 -0.212141
2.49 -0.207522
2.5 -0.203751
2.51 -0.200989
2.52 -0.199392
2.53 -0.199064
2.54 -0.200053
2.55 -0.202349
2.56 -0.205979
2.57 -0.210763
2.58 -0.216491
2.59 -0.222966
2.6 -0.22997
2.61 -0.23727
2.62 -0.244626
2.63 -0.251757
2.64 -0.258448
2.65 -0.264502
2.66 -0.269756
2.67 -0.274076
2.68 -0.277368
2.69 -0.279504
2.7 -0.280485
2.71 -0.280397
2.72 -0.279306
2.73 -0.277304
2.74 -0.27451
2.75 -0.271058
2.76 -0.267055
2.77 -0.262727
2.78 -0.258224
2.79 -0.253684
2.8 -0.249233
2.81 -0.244977
2.82 -0.241018
2.83 -0.237423
2.84 -0.234201
2.85 -0.23135
2.86 -0.228849
2.87 -0.226651
2.88 -0.224693
2.89 -0.222906
2.9 -0.221175
2.91 -0.219406
2.92 -0.217505
2.93 -0.215385
2.94 -0.212967
2.95 -0.210165
2.96 -0.206911
2.97 -0.203202
2.98 -0.199027
2.99 -0.194389
3 -0.189311
3.01 -0.18383
3.02 -0.177965
3.03 -0.171809
3.04 -0.165434
3.05 -0.158905
3.06 -0.152286
3.07 -0.145633
3.08 -0.138997
3.09 -0.132421
3.1 -0.125921
3.11 -0.119502
3.12 -0.113153
3.13 -0.106848
3.14 -0.100548
3.15 -0.0941897
3.16 -0.0877066
3.17 -0.0810301
3.18 -0.0740873
3.19 -0.066806
3.2 -0.0591172
3.21 -0.0509477
3.22 -0.0421999
3.23 -0.0328827
3.24 -0.0229723
3.25 -0.0124598
3.26 -0.0013512
3.27 0.0103327
3.28 0.0225941
3.29 0.035362
3.3 0.0485551
3.31 0.0621089
3.32 0.0759556
3.33 0.0900269
3.34 0.104258
3.35 0.118591
3.36 0.132962
3.37 0.147329
3.38 0.161666
3.39 0.175958
3.4 0.190199
3.41 0.2044
3.42 0.218582
3.43 0.232779
3.44 0.247024
3.45 0.261356
3.46 0.275809
3.47 0.290418
3.48 0.305227
3.49 0.32023
3.5 0.335422
3.51 0.350782
3.52 0.366272
3.53 0.381835
3.54 0.397387
3.55 0.412814
3.56 0.428001
3.57 0.442815
3.58 0.457113
3.59 0.470743
3.6 0.483548
3.61 0.495254
3.62 0.505785
3.63 0.515013
3.64 0.52281
3.65 0.529069
3.66 0.533699
3.67 0.536565
3.68 0.537564
3.69 0.536817
3.7 0.534347
3.71 0.530198
3.72 0.524442
3.73 0.517172
3.74 0.508381
3.75 0.498317
3.76 0.487156
3.77 0.475052
3.78 0.462163
3.79 0.448646
3.8 0.434647
3.81 0.420311
3.82 0.405812
3.83 0.39127
3.84 0.376793
3.85 0.362469
3.86 0.348373
3.87 0.334589
3.88 0.321148
3.89 0.308063
3.9 0.295345
3.91 0.282993
3.92 0.270997
3.93 0.259349
3.94 0.24805
3.95 0.237044
3.96 0.226308
3.97 0.215819
3.98 0.205558
3.99 0.195509
4 0.185672
4.01 0.176031
4.02 0.166573
4.03 0.157296
4.04 0.148198
4.05 0.13928
4.06 0.130544
4.07 0.122008
4.08 0.113648
4.09 0.105458
4.1 0.0974307
4.11 0.0895524
4.12 0.0818079
4.13 0.0741846
4.14 0.0666581
4.15 0.0592004
4.16 0.0517899
4.17 0.044407
4.18 0.0370347
4.19 0.0296606
4.2 0.0222765
4.21 0.0148847
4.22 0.0074946
4.23 0.00012368
4.24 -0.00720238
4.25 -0.01445
4.26 -0.0215704
4.27 -0.0285058
4.28 -0.0352126
4.29 -0.0416364
4.3 -0.0477226
4.31 -0.0534188
4.32 -0.0586768
4.33 -0.0634029
4.34 -0.0676045
4.35 -0.07127
4.36 -0.0743931
4.37 -0.0769808
4.38 -0.0790544
4.39 -0.0806327
4.4 -0.0817552
4.41 -0.0825233
4.42 -0.0830111
4.43 -0.0833004
4.44 -0.0834785
4.45 -0.0836348
4.46 -0.0838723
4.47 -0.0842807
4.48 -0.0849332
4.49 -0.0858949
4.5 -0.0872174
4.51 -0.088937
4.52 -0.0910847
4.53 -0.0936865
4.54 -0.0966834
4.55 -0.100037
4.56 -0.103691
4.57 -0.107576
4.58 -0.111611
4.59 -0.1157
4.6 -0.11973
4.61 -0.123599
4.62 -0.127209
4.63 -0.130467
4.64 -0.133288
4.65 -0.135593
4.66 -0.13727
4.67 -0.138336
4.68 -0.138776
4.69 -0.13859
4.7 -0.137802
4.71 -0.136451
4.72 -0.134566
4.73 -0.132241
4.74 -0.129589
4.75 -0.126708
4.76 -0.123699
4.77 -0.120666
4.78 -0.117714
4.79 -0.114967
4.8 -0.112503
4.81 -0.110394
4.82 -0.108701
4.83 -0.107469
4.84 -0.106726
4.85 -0.10651
4.86 -0.106814
4.87 -0.107581
4.88 -0.108772
4.89 -0.110335
4.9 -0.112209
4.91 -0.114326
4.92 -0.116628
4.93 -0.119018
4.94 -0.121426
4.95 -0.12379
4.96 -0.126056
4.97 -0.128178
4.98 -0.130114
4.99 -0.131834
5 -0.133343
5.01 -0.134647
5.02 -0.13576
5.03 -0.136704
5.04 -0.137511
5.05 -0.138208
5.06 -0.138847
5.07 -0.139467
5.08 -0.140102
5.09 -0.140783
5.1 -0.141533
5.11 -0.14237
5.12 -0.143304
5.13 -0.144322
5.14 -0.145408
5.15 -0.146536
5.16 -0.147675
5.17 -0.148784
5.18 -0.149811
5.19 -0.150707
5.2 -0.151429
5.21 -0.151935
5.22 -0.152188
5.23 -0.152157
5.24 -0.151814
5.25 -0.151126
5.26 -0.150126
5.27 -0.148829
5.28 -0.147263
5.29 -0.145464
5.3 -0.14348
5.31 -0.141358
5.32 -0.139171
5.33 -0.136986
5.34 -0.134863
5.35 -0.132861
5.36 -0.13103
5.37 -0.129416
5.38 -0.128075
5.39 -0.126999
5.4 -0.12619
5.41 -0.125633
5.42 -0.1253
5.43 -0.12515
5.44 -0.125134
5.45 -0.125174
5.46 -0.125191
5.47 -0.125106
5.48 -0.124842
5.49 -0.124321
5.5 -0.123473
5.51 -0.122187
5.52 -0.120454
5.53 -0.118245
5.54 -0.115544
5.55 -0.112353
5.56 -0.108695
5.57 -0.104587
5.58 -0.100092
5.59 -0.0953107
5.6 -0.0903291
5.61 -0.085241
5.62 -0.0801456
5.63 -0.0751435
5.64 -0.0703633
5.65 -0.0658847
5.66 -0.0617832
5.67 -0.0581218
5.68 -0.0549462
5.69 -0.0522825
5.7 -0.0501587
5.71 -0.0485679
5.72 -0.04743
5.73 -0.0466835
5.74 -0.0462495
5.75 -0.0460348
5.76 -0.0459354
5.77 -0.0458295
5.78 -0.0455907
5.79 -0.0451091
5.8 -0.0442823
5.81 -0.0430197
5.82 -0.0412463
5.83 -0.0388863
5.84 -0.0358727
5.85 -0.0322491
5.86 -0.0280348
5.87 -0.0232726
5.88 -0.0180278
5.89 -0.0123859
5.9 -0.00643439
5.91 -0.0003218
5.92 0.00581645
5.93 0.0118508
5.94 0.0176539
5.95 0.0231055
5.96 0.0280849
5.97 0.0324503
5.98 0.0361818
5.99 0.0392378
6 0.041603
6.01 0.043289
6.02 0.0443344
6.03 0.0447676
6.04 0.0447119
6.05 0.0443059
6.06 0.0436798
6.07 0.0429749
6.08 0.0423384
6.09 0.0419218
6.1 0.0419174
6.11 0.0424267
6.12 0.0435592
6.13 0.0454028
6.14 0.0480197
6.15 0.0514438
6.16 0.0557286
6.17 0.060829
6.18 0.0666356
6.19 0.073054
6.2 0.0799642
6.21 0.0872248
6.22 0.0946771
6.23 0.102133
6.24 0.109397
6.25 0.116294
6.26 0.122659
6.27 0.128337
6.28 0.133194
6.29 0.137068
6.3 0.139854
6.31 0.14157
6.32 0.142206
6.33 0.141784
6.34 0.140357
6.35 0.138011
6.36 0.134785
6.37 0.130909
6.38 0.126551
6.39 0.12188
6.4 0.11707
6.41 0.112299
6.42 0.107749
6.43 0.103611
6.44 0.100002
6.45 0.0970314
6.46 0.0947855
6.47 0.0933193
6.48 0.0926582
6.49 0.092868
6.5 0.0938452
6.51 0.0954993
6.52 0.0977331
6.53 0.100428
6.54 0.103449
6.55 0.10665
6.56 0.109859
6.57 0.112909
6.58 0.115655
6.59 0.117962
6.6 0.119711
6.61 0.120803
6.62 0.121097
6.63 0.120577
6.64 0.119253
6.65 0.117135
6.66 0.114259
6.67 0.110688
6.68 0.106494
6.69 0.101754
6.7 0.0966447
6.71 0.0912935
6.72 0.0858323
6.73 0.0803921
6.74 0.075099
6.75 0.0700966
6.76 0.0654929
6.77 0.0613578
6.78 0.0577538
6.79 0.0547227
6.8 0.0522847
6.81 0.050443
6.82 0.0492272
6.83 0.048527
6.84 0.0482796
6.85 0.0484095
6.86 0.0488311
6.87 0.0494525
6.88 0.0501795
6.89 0.0509043
6.9 0.0515344
6.91 0.0519912
6.92 0.0522068
6.93 0.0521266
6.94 0.0517105
6.95 0.0508915
6.96 0.0497032
6.97 0.0481566
6.98 0.0462759
6.99 0.044097
7 0.0416659
7.01 0.0390291
7.02 0.036252
7.03 0.0334078
7.04 0.0305554
7.05 0.0277499
7.06 0.0250401
7.07 0.0224668
7.08 0.0200804
7.09 0.0178861
7.1 0.0158877
7.11 0.0140798
7.12 0.0124469
7.13 0.010964
7.14 0.00960139
7.15 0.00831711
7.16 0.00705923
7.17 0.0057835
7.18 0.00444706
7.19 0.00301062
7.2 0.0014405
7.21 -0.00030591
7.22 -0.00223536
7.23 -0.00434809
7.24 -0.00663759
7.25 -0.00908651
7.26 -0.011667
7.27 -0.0143429
7.28 -0.017064
7.29 -0.0197683
7.3 -0.0223974
7.31 -0.0248906
7.32 -0.0271874
7.33 -0.0292299
7.34 -0.0309359
7.35 -0.0322682
7.36 -0.0332028
7.37 -0.0337155
7.38 -0.0337932
7.39 -0.0334357
7.4 -0.0326483
7.41 -0.0314273
7.42 -0.0298544
7.43 -0.0279796
7.44 -0.0258621
7.45 -0.0235682
7.46 -0.0211692
7.47 -0.0187432
7.48 -0.0163769
7.49 -0.0141443
7.5 -0.0121142
7.51 -0.0103493
7.52 -0.00890436
7.53 -0.00782699
7.54 -0.00719682
7.55 -0.0069923
7.56 -0.00722158
7.57 -0.00788095
7.58 -0.00895534
7.59 -0.010419
7.6 -0.0122545
7.61 -0.0144101
7.62 -0.0168132
7.63 -0.0194072
7.64 -0.0221324
7.65 -0.0249283
7.66 -0.027735
7.67 -0.0304836
7.68 -0.0331214
7.69 -0.0356021
7.7 -0.0378858
7.71 -0.0399403
7.72 -0.0417413
7.73 -0.04326
7.74 -0.0444832
7.75 -0.0454329
7.76 -0.0461202
7.77 -0.0465626
7.78 -0.0467842
7.79 -0.0468138
7.8 -0.0466719
7.81 -0.0464118
7.82 -0.0460735
7.83 -0.0456943
7.84 -0.0453104
7.85 -0.0449557
7.86 -0.0446641
7.87 -0.0444692
7.88 -0.0443859
7.89 -0.044429
7.9 -0.0446074
7.91 -0.0449239
7.92 -0.0453749
7.93 -0.0459611
7.94 -0.0466565
7.95 -0.0474359
7.96 -0.0482731
7.97 -0.0491379
7.98 -0.0499972
7.99 -0.050814
8 -0.0515423
8.01 -0.0521505
8.02 -0.0526043
8.03 -0.0528716
8.04 -0.0529241
8.05 -0.0527377
8.06 -0.0522728
8.07 -0.0515266
8.08 -0.0505056
8.09 -0.0492137
8.1 -0.0476623
8.11 -0.0458707
8.12 -0.0438631
8.13 -0.0416631
8.14 -0.0393343
8.15 -0.0369249
8.16 -0.0344875
8.17 -0.0320778
8.18 -0.0297537
8.19 -0.0275868
8.2 -0.0256395
8.21 -0.0239569
8.22 -0.0225868
8.23 -0.0215702
8.24 -0.0209403
8.25 -0.020722
8.26 -0.0209754
8.27 -0.0216521
8.28 -0.0227386
8.29 -0.0242097
8.3 -0.0260281
8.31 -0.0281456
8.32 -0.0305133
8.33 -0.0330525
8.34 -0.035673
8.35 -0.0382933
8.36 -0.0408296
8.37 -0.0431974
8.38 -0.0453144
8.39 -0.047059
8.4 -0.0483877
8.41 -0.0492439
8.42 -0.0495795
8.43 -0.0493596
8.44 -0.0485633
8.45 -0.0471589
8.46 -0.0451445
8.47 -0.042591
8.48 -0.0395419
8.49 -0.0360538
8.5 -0.0321953
8.51 -0.0280445
8.52 -0.023676
8.53 -0.0192073
8.54 -0.014735
8.55 -0.0103507
8.56 -0.00614156
8.57 -0.00218833
8.58 0.00142414
8.59 0.00461024
8.6 0.00735481
8.61 0.00962911
8.62 0.0114197
8.63 0.0127285
8.64 0.0135726
8.65 0.0139495
8.66 0.0139357
8.67 0.0136022
8.68 0.0130154
8.69 0.0122476
8.7 0.0113743
8.71 0.0104728
8.72 0.00962924
8.73 0.00891231
8.74 0.00838142
8.75 0.00808615
8.76 0.00806464
8.77 0.00834242
8.78 0.00895532
8.79 0.00988864
8.8 0.0111116
8.81 0.0125941
8.82 0.0142955
8.83 0.0161664
8.84 0.018151
8.85 0.0201856
8.86 0.0221965
8.87 0.0241222
8.88 0.0259048
8.89 0.0274921
8.9 0.0288401
8.91 0.0298946
8.92 0.0306337
8.93 0.0310632
8.94 0.0311861
8.95 0.0310171
8.96 0.0305821
8.97 0.0299162
8.98 0.0290476
8.99 0.0280535
9 0.0269887
9.01 0.0259094
9.02 0.0248705
9.03 0.0239237
9.04 0.0231245
9.05 0.022518
9.06 0.0221218
9.07 0.0219523
9.08 0.0220151
9.09 0.0223042
9.1 0.0228029
9.11 0.0234997
9.12 0.0243359
9.13 0.0252642
9.14 0.0262345
9.15 0.0271937
9.16 0.0280883
9.17 0.0288591
9.18 0.029447
9.19 0.0298214
9.2 0.0299511
9.21 0.0298144
9.22 0.0294007
9.23 0.0287107
9.24 0.0277336
9.25 0.0265171
9.26 0.0251031
9.27 0.0235367
9.28 0.0218697
9.29 0.0201588
9.3 0.0184657
9.31 0.016862
9.32 0.0154017
9.33 0.0141359
9.34 0.0131084
9.35 0.0123539
9.36 0.0118964
9.37 0.0117748
9.38 0.0119707
9.39 0.0124586
9.4 0.0132111
9.41 0.0141899
9.42 0.0153476
9.43 0.0166302
9.44 0.0179736
9.45 0.0193027
9.46 0.0205536
9.47 0.021665
9.48 0.0225806
9.49 0.0232515
9.5 0.0236149
9.51 0.0236486
9.52 0.0233521
9.53 0.0227251
9.54 0.0217804
9.55 0.0205431
9.56 0.0190483
9.57 0.0173294
9.58 0.0154706
9.59 0.0135349
9.6 0.0115887
9.61 0.00969881
9.62 0.00793005
9.63 0.00635769
9.64 0.00504053
9.65 0.00400986
9.66 0.00329622
9.67 0.00291784
9.68 0.00287993
9.69 0.00317452
9.7 0.00381287
9.71 0.00472115
9.72 0.00585247
9.73 0.00715201
9.74 0.00855866
9.75 0.0100075
9.76 0.0114274
9.77 0.012743
9.78 0.0138972
9.79 0.0148378
9.8 0.0155215
9.81 0.0159161
9.82 0.0160015
9.83 0.0157382
9.84 0.0151647
9.85 0.0143082
9.86 0.0132038
9.87 0.0118975
9.88 0.0104444
9.89 0.00890586
9.9 0.00735791
9.91 0.00587492
9.92 0.00452418
9.93 0.00336894
9.94 0.00246604
9.95 0.00186362
9.96 0.00163331
9.97 0.00177774
9.98 0.00229749
9.99 0.00318764
10 0.00442977
10.01 0.0059926
10.02 0.00783949
10.03 0.00992191
10.04 0.0121528
10.05 0.0144632
10.06 0.0167817
10.07 0.0190363
10.08 0.0211572
10.09 0.0230582
10.1 0.0246847
10.11 0.0259977
10.12 0.026962
10.13 0.0275541
10.14 0.0277636
10.15 0.0275858
10.16 0.0270093
10.17 0.0261007
10.18 0.0248994
10.19 0.0234527
10.2 0.0218146
10.21 0.020043
10.22 0.0181971
10.23 0.0163465
10.24 0.01455
10.25 0.0128585
10.26 0.0113157
10.27 0.00995708
10.28 0.00881045
10.29 0.00791593
10.3 0.00725286
10.31 0.00681432
10.32 0.00658421
10.33 0.00653829
10.34 0.00664554
10.35 0.00687428
10.36 0.00717812
10.37 0.00750954
10.38 0.00782828
10.39 0.00809676
10.4 0.00828163
10.41 0.00835518
10.42 0.00827986
10.43 0.0080568
10.44 0.00768305
10.45 0.00716289
10.46 0.00650794
10.47 0.00573639
10.48 0.00486884
10.49 0.00393657
10.5 0.00297663
10.51 0.00202062
10.52 0.00109907
10.53 0.000239914
10.54 -0.000532959
10.55 -0.00118899
10.56 -0.00172498
10.57 -0.00213924
10.58 -0.00243581
10.59 -0.00262594
10.6 -0.00272761
10.61 -0.0027635
10.62 -0.00276554
10.63 -0.00277145
10.64 -0.0028156
10.65 -0.00293207
10.66 -0.00315292
10.67 -0.00350649
10.68 -0.00403153
10.69 -0.00473488
10.7 -0.00561857
10.71 -0.00668001
10.72 -0.00790749
10.73 -0.00928022
10.74 -0.0107708
10.75 -0.0123412
10.76 -0.0139361
10.77 -0.0155056
10.78 -0.0169972
10.79 -0.0183575
10.8 -0.0195349
10.81 -0.0204592
10.82 -0.0210935
10.83 -0.0214141
10.84 -0.0213986
10.85 -0.0210353
10.86 -0.0203245
10.87 -0.0192739
10.88 -0.0178867
10.89 -0.0162364
10.9 -0.0143737
10.91 -0.0123583
10.92 -0.0102571
10.93 -0.00814207
10.94 -0.00609744
10.95 -0.0042073
10.96 -0.00253923
10.97 -0.00115844
10.98 -0.000121866
10.99 0.000523913
11 0.000742497
11.01 0.000464314
11.02 -0.000263959
11.03 -0.00142902
11.04 -0.00300259
11.05 -0.00494216
11.06 -0.00719215
11.07 -0.00969488
11.08 -0.0123611
11.09 -0.0150923
11.1 -0.0177999
11.11 -0.0203951
11.12 -0.0227908
11.13 -0.0249052
11.14 -0.0266173
11.15 -0.0278955
11.16 -0.0286936
11.17 -0.0289769
11.18 -0.0287259
11.19 -0.0279366
11.2 -0.0265978
11.21 -0.0247307
11.22 -0.0224174
11.23 -0.0197155
11.24 -0.016693
11.25 -0.013426
11.26 -0.00999667
11.27 -0.0064913
11.28 -0.00301127
11.29 0.000359463
11.3 0.00354337
11.31 0.00647032
11.32 0.00907947
11.33 0.0113064
11.34 0.0130907
11.35 0.0144416
11.36 0.0153504
11.37 0.0158212
11.38 0.01587
11.39 0.015524
11.4 0.0147922
11.41 0.0137476
11.42 0.0124523
11.43 0.0109622
11.44 0.00933471
11.45 0.00762698
11.46 0.00589475
11.47 0.00419708
11.48 0.00257967
11.49 0.00108013
11.5 -0.000271366
11.51 -0.00145249
11.52 -0.00244894
11.53 -0.00323953
11.54 -0.00383364
11.55 -0.00424813
11.56 -0.00449767
11.57 -0.00460121
11.58 -0.00458084
11.59 -0.00445955
11.6 -0.00425812
11.61 -0.00401017
11.62 -0.00373761
11.63 -0.00345963
11.64 -0.00319211
11.65 -0.00294717
11.66 -0.00273521
11.67 -0.0025598
11.68 -0.00241856
11.69 -0.00230742
11.7 -0.00221953
11.71 -0.00214598
11.72 -0.00207649
11.73 -0.00199821
11.74 -0.00190052
11.75 -0.00177415
11.76 -0.00161162
11.77 -0.00140766
11.78 -0.0011596
11.79 -0.000865311
11.8 -0.000528332
11.81 -0.000157709
11.82 0.000237944
