# xPDFsuite Configuration #
[PDF]
wavelength = 0.1
dataformat = QA
inputfile = BiMsol6_insitu_700 C-00483.xy
backgroundfile = Quartz2mm-dist500-00000.xy
mode = xray
bgscale = 0.0042
composition = Bi2Fe4O9
outputtype = gr
qmaxinst = 24.998449118
qmin = 0.1
qmax = 21.4986662415
rmax = 80.0
rmin = 0.0
rstep = 0.01
rpoly = 0.9

[Misc]
inputdir = C:/Data/Seafile/CPH/Beamtime/Desy Oct 20/In situ data/Processed/BiMsol6/PDF
savedir = C:/Data/Seafile/CPH/Beamtime/Desy Oct 20/In situ data/PDF/BiMsol6
backgroundfilefull = C:/Data/Seafile/CPH/Beamtime/Desy Oct 20/In situ data/Processed/Standard_Empty_Cap/Quartz2mm-dist500-00000.xy

#### start data
#S 1
#L r($\AA$)  G($\AA^{-2}$)
0 0
0.01 0.00646219
0.02 0.0125599
0.03 0.0179813
0.04 0.0224464
0.05 0.02572
0.06 0.0276229
0.07 0.0279587
0.08 0.0266698
0.09 0.0238998
0.1 0.0197669
0.11 0.0144544
0.12 0.00820298
0.13 0.00130013
0.14 -0.0059316
0.15 -0.0130845
0.16 -0.0198147
0.17 -0.0257995
0.18 -0.0307495
0.19 -0.0344225
0.2 -0.0365697
0.21 -0.0370204
0.22 -0.0358717
0.23 -0.0331889
0.24 -0.0291159
0.25 -0.0238703
0.26 -0.0177355
0.27 -0.0110333
0.28 -0.00422948
0.29 0.00226132
0.3 0.00803663
0.31 0.0127136
0.32 0.0159477
0.33 0.0173904
0.34 0.0167001
0.35 0.0139273
0.36 0.00906757
0.37 0.00222125
0.38 -0.00640561
0.39 -0.0165039
0.4 -0.0277158
0.41 -0.0394227
0.42 -0.0510172
0.43 -0.0618818
0.44 -0.0713777
0.45 -0.0788681
0.46 -0.08368
0.47 -0.0849472
0.48 -0.0824797
0.49 -0.075926
0.5 -0.0650571
0.51 -0.0497806
0.52 -0.0301504
0.53 -0.00609845
0.54 0.0218244
0.55 0.0528925
0.56 0.0864313
0.57 0.121652
0.58 0.157674
0.59 0.193538
0.6 0.228019
0.61 0.260159
0.62 0.288995
0.63 0.313626
0.64 0.333239
0.65 0.347141
0.66 0.354367
0.67 0.354529
0.68 0.347809
0.69 0.334221
0.7 0.313963
0.71 0.287413
0.72 0.255119
0.73 0.217298
0.74 0.175452
0.75 0.130555
0.76 0.0836428
0.77 0.0357875
0.78 -0.0119318
0.79 -0.0583479
0.8 -0.102291
0.81 -0.142969
0.82 -0.17962
0.83 -0.211617
0.84 -0.238491
0.85 -0.259935
0.86 -0.27524
0.87 -0.284976
0.88 -0.289455
0.89 -0.289065
0.9 -0.284319
0.91 -0.275841
0.92 -0.264249
0.93 -0.250339
0.94 -0.235131
0.95 -0.21942
0.96 -0.203964
0.97 -0.189469
0.98 -0.17656
0.99 -0.166004
1 -0.158105
1.01 -0.153076
1.02 -0.151058
1.03 -0.152068
1.04 -0.156005
1.05 -0.162726
1.06 -0.17202
1.07 -0.183247
1.08 -0.195948
1.09 -0.209632
1.1 -0.223796
1.11 -0.237941
1.12 -0.251522
1.13 -0.264089
1.14 -0.275313
1.15 -0.28492
1.16 -0.292719
1.17 -0.298602
1.18 -0.302516
1.19 -0.304385
1.2 -0.304559
1.21 -0.303258
1.22 -0.30075
1.23 -0.29734
1.24 -0.293352
1.25 -0.289121
1.26 -0.285012
1.27 -0.281318
1.28 -0.278278
1.29 -0.276081
1.3 -0.274857
1.31 -0.274676
1.32 -0.27564
1.33 -0.277551
1.34 -0.280271
1.35 -0.283612
1.36 -0.287345
1.37 -0.291215
1.38 -0.294928
1.39 -0.298171
1.4 -0.300702
1.41 -0.302296
1.42 -0.30277
1.43 -0.301991
1.44 -0.299881
1.45 -0.29628
1.46 -0.291397
1.47 -0.285366
1.48 -0.278372
1.49 -0.270648
1.5 -0.262469
1.51 -0.254147
1.52 -0.246052
1.53 -0.238512
1.54 -0.231828
1.55 -0.226277
1.56 -0.222089
1.57 -0.219446
1.58 -0.218639
1.59 -0.21957
1.6 -0.222172
1.61 -0.226332
1.62 -0.231868
1.63 -0.238534
1.64 -0.246049
1.65 -0.254035
1.66 -0.262048
1.67 -0.269691
1.68 -0.276572
1.69 -0.28231
1.7 -0.28656
1.71 -0.288834
1.72 -0.288979
1.73 -0.286884
1.74 -0.282461
1.75 -0.275701
1.76 -0.266675
1.77 -0.255479
1.78 -0.242245
1.79 -0.22746
1.8 -0.211471
1.81 -0.194659
1.82 -0.177432
1.83 -0.160201
1.84 -0.143436
1.85 -0.127551
1.86 -0.112861
1.87 -0.0996509
1.88 -0.0881424
1.89 -0.0784886
1.9 -0.0707985
1.91 -0.0652384
1.92 -0.0615208
1.93 -0.0594897
1.94 -0.0589293
1.95 -0.0595737
1.96 -0.0611186
1.97 -0.0632493
1.98 -0.0655658
1.99 -0.0677102
2 -0.0693728
2.01 -0.0702795
2.02 -0.0702032
2.03 -0.0689697
2.04 -0.0663316
2.05 -0.0624079
2.06 -0.0572556
2.07 -0.0510017
2.08 -0.0438396
2.09 -0.0360218
2.1 -0.0278508
2.11 -0.0197253
2.12 -0.0120348
2.13 -0.00515774
2.14 0.000534328
2.15 0.00469122
2.16 0.00699744
2.17 0.00692917
2.18 0.00448429
2.19 -0.000445194
2.2 -0.00790954
2.21 -0.0178826
2.22 -0.0302621
2.23 -0.0449617
2.24 -0.0617437
2.25 -0.080132
2.26 -0.0997607
2.27 -0.120229
2.28 -0.141116
2.29 -0.161991
2.3 -0.18235
2.31 -0.201784
2.32 -0.219945
2.33 -0.236523
2.34 -0.251264
2.35 -0.26398
2.36 -0.274472
2.37 -0.282587
2.38 -0.288545
2.39 -0.292449
2.4 -0.294467
2.41 -0.294816
2.42 -0.29376
2.43 -0.291525
2.44 -0.288534
2.45 -0.285145
2.46 -0.281677
2.47 -0.278435
2.48 -0.275693
2.49 -0.273716
2.5 -0.272783
2.51 -0.272954
2.52 -0.27431
2.53 -0.276877
2.54 -0.28063
2.55 -0.285494
2.56 -0.291413
2.57 -0.29817
2.58 -0.305531
2.59 -0.313283
2.6 -0.321206
2.61 -0.329076
2.62 -0.336671
2.63 -0.343726
2.64 -0.350103
2.65 -0.355663
2.66 -0.3603
2.67 -0.363943
2.68 -0.366559
2.69 -0.368088
2.7 -0.368592
2.71 -0.3682
2.72 -0.367011
2.73 -0.365145
2.74 -0.362732
2.75 -0.359911
2.76 -0.356801
2.77 -0.353575
2.78 -0.350345
2.79 -0.347208
2.8 -0.344237
2.81 -0.341482
2.82 -0.338981
2.83 -0.336732
2.84 -0.33469
2.85 -0.332805
2.86 -0.331008
2.87 -0.329219
2.88 -0.327349
2.89 -0.325277
2.9 -0.322919
2.91 -0.320194
2.92 -0.317029
2.93 -0.313367
2.94 -0.309164
2.95 -0.304373
2.96 -0.298972
2.97 -0.293019
2.98 -0.286545
2.99 -0.279595
3 -0.272222
3.01 -0.264483
3.02 -0.256413
3.03 -0.248094
3.04 -0.239575
3.05 -0.230885
3.06 -0.222035
3.07 -0.213018
3.08 -0.203795
3.09 -0.194292
3.1 -0.184445
3.11 -0.174156
3.12 -0.163309
3.13 -0.151776
3.14 -0.139418
3.15 -0.126003
3.16 -0.111431
3.17 -0.0956089
3.18 -0.0784326
3.19 -0.0598197
3.2 -0.0397166
3.21 -0.0180715
3.22 0.00520506
3.23 0.0299014
3.24 0.0559112
3.25 0.083088
3.26 0.111248
3.27 0.140171
3.28 0.169626
3.29 0.199279
3.3 0.228812
3.31 0.257917
3.32 0.286285
3.33 0.313609
3.34 0.339583
3.35 0.363746
3.36 0.38601
3.37 0.406172
3.38 0.424065
3.39 0.439565
3.4 0.45259
3.41 0.462948
3.42 0.470673
3.43 0.475961
3.44 0.478911
3.45 0.479653
3.46 0.478346
3.47 0.475174
3.48 0.470169
3.49 0.463751
3.5 0.456141
3.51 0.44755
3.52 0.438184
3.53 0.428236
3.54 0.417869
3.55 0.407258
3.56 0.396557
3.57 0.385873
3.58 0.375291
3.59 0.364874
3.6 0.354666
3.61 0.34472
3.62 0.335027
3.63 0.325582
3.64 0.31638
3.65 0.30741
3.66 0.298665
3.67 0.290148
3.68 0.281869
3.69 0.273825
3.7 0.266038
3.71 0.258541
3.72 0.251381
3.73 0.244613
3.74 0.238351
3.75 0.232646
3.76 0.227568
3.77 0.223198
3.78 0.219619
3.79 0.216912
3.8 0.215182
3.81 0.214562
3.82 0.215022
3.83 0.216604
3.84 0.219336
3.85 0.223232
3.86 0.228289
3.87 0.234581
3.88 0.242014
3.89 0.250498
3.9 0.25997
3.91 0.270355
3.92 0.281566
3.93 0.293522
3.94 0.306158
3.95 0.319297
3.96 0.332829
3.97 0.34664
3.98 0.360616
3.99 0.374646
4 0.388602
4.01 0.402359
4.02 0.415812
4.03 0.428855
4.04 0.441382
4.05 0.453291
4.06 0.464478
4.07 0.474752
4.08 0.484102
4.09 0.492441
4.1 0.499686
4.11 0.50576
4.12 0.510594
4.13 0.514042
4.14 0.51605
4.15 0.516651
4.16 0.515816
4.17 0.51353
4.18 0.50979
4.19 0.504607
4.2 0.49785
4.21 0.48972
4.22 0.480281
4.23 0.469601
4.24 0.457761
4.25 0.444851
4.26 0.430925
4.27 0.416086
4.28 0.400503
4.29 0.384278
4.3 0.367511
4.31 0.350293
4.32 0.332709
4.33 0.314806
4.34 0.296671
4.35 0.278351
4.36 0.25987
4.37 0.241238
4.38 0.222453
4.39 0.203489
4.4 0.184307
4.41 0.164881
4.42 0.145169
4.43 0.125127
4.44 0.104713
4.45 0.0838899
4.46 0.06259
4.47 0.0408266
4.48 0.0186155
4.49 -0.00402132
4.5 -0.0270422
4.51 -0.0503856
4.52 -0.0739732
4.53 -0.0976962
4.54 -0.121411
4.55 -0.144978
4.56 -0.168248
4.57 -0.191063
4.58 -0.213261
4.59 -0.234607
4.6 -0.25496
4.61 -0.274209
4.62 -0.292228
4.63 -0.308911
4.64 -0.324177
4.65 -0.337945
4.66 -0.350058
4.67 -0.360673
4.68 -0.369827
4.69 -0.377584
4.7 -0.384035
4.71 -0.389291
4.72 -0.393422
4.73 -0.39662
4.74 -0.399094
4.75 -0.401008
4.76 -0.402524
4.77 -0.403799
4.78 -0.404979
4.79 -0.406214
4.8 -0.407618
4.81 -0.409277
4.82 -0.411253
4.83 -0.413583
4.84 -0.41628
4.85 -0.41935
4.86 -0.422754
4.87 -0.426411
4.88 -0.430247
4.89 -0.434178
4.9 -0.438109
4.91 -0.441943
4.92 -0.44555
4.93 -0.448849
4.94 -0.45176
4.95 -0.45421
4.96 -0.456144
4.97 -0.457519
4.98 -0.458283
4.99 -0.458413
5 -0.457961
5.01 -0.456952
5.02 -0.455421
5.03 -0.453413
5.04 -0.450978
5.05 -0.448136
5.06 -0.444974
5.07 -0.441545
5.08 -0.437885
5.09 -0.434023
5.1 -0.429971
5.11 -0.425726
5.12 -0.42126
5.13 -0.41656
5.14 -0.411583
5.15 -0.406274
5.16 -0.400574
5.17 -0.394415
5.18 -0.387675
5.19 -0.380312
5.2 -0.372282
5.21 -0.363535
5.22 -0.354034
5.23 -0.343758
5.24 -0.332687
5.25 -0.320789
5.26 -0.30818
5.27 -0.294924
5.28 -0.281101
5.29 -0.266813
5.3 -0.252173
5.31 -0.237302
5.32 -0.22236
5.33 -0.207494
5.34 -0.19284
5.35 -0.178529
5.36 -0.164681
5.37 -0.151412
5.38 -0.138878
5.39 -0.127083
5.4 -0.116069
5.41 -0.105853
5.42 -0.096433
5.43 -0.0877829
5.44 -0.0799014
5.45 -0.0727027
5.46 -0.0660708
5.47 -0.0599168
5.48 -0.0541471
5.49 -0.0486679
5.5 -0.0433893
5.51 -0.0382343
5.52 -0.0331158
5.53 -0.0279836
5.54 -0.0228053
5.55 -0.0175686
5.56 -0.0122806
5.57 -0.00697013
5.58 -0.00169249
5.59 0.00348528
5.6 0.00848513
5.61 0.0132206
5.62 0.0176013
5.63 0.0215371
5.64 0.0248776
5.65 0.0275955
5.66 0.0296396
5.67 0.030973
5.68 0.0315809
5.69 0.0314727
5.7 0.030656
5.71 0.029186
5.72 0.0272038
5.73 0.0248234
5.74 0.022178
5.75 0.0194154
5.76 0.0166942
5.77 0.0142138
5.78 0.0121386
5.79 0.0106178
5.8 0.00979136
5.81 0.00978045
5.82 0.0106828
5.83 0.0126026
5.84 0.0156331
5.85 0.0196894
5.86 0.0247371
5.87 0.0307097
5.88 0.0375106
5.89 0.0450158
5.9 0.0531118
5.91 0.06158
5.92 0.0702242
5.93 0.0788606
5.94 0.0873077
5.95 0.0953925
5.96 0.102942
5.97 0.109756
5.98 0.115782
5.99 0.120947
6 0.125207
6.01 0.128558
6.02 0.131026
6.03 0.132617
6.04 0.133467
6.05 0.133737
6.06 0.133571
6.07 0.133133
6.08 0.132593
6.09 0.132126
6.1 0.131943
6.11 0.132188
6.12 0.132993
6.13 0.134468
6.14 0.136693
6.15 0.139715
6.16 0.143597
6.17 0.148295
6.18 0.153696
6.19 0.159696
6.2 0.166161
6.21 0.172929
6.22 0.179817
6.23 0.186595
6.24 0.193044
6.25 0.198957
6.26 0.204135
6.27 0.208389
6.28 0.211553
6.29 0.213415
6.3 0.213836
6.31 0.212829
6.32 0.210363
6.33 0.206443
6.34 0.201114
6.35 0.194453
6.36 0.186454
6.37 0.177393
6.38 0.167448
6.39 0.156803
6.4 0.145651
6.41 0.134188
6.42 0.12261
6.43 0.111129
6.44 0.0999148
6.45 0.0891107
6.46 0.0788348
6.47 0.0691769
6.48 0.0601973
6.49 0.0519926
6.5 0.0445054
6.51 0.0376829
6.52 0.0314631
6.53 0.0257624
6.54 0.0204799
6.55 0.0155076
6.56 0.0107189
6.57 0.00596758
6.58 0.00113728
6.59 -0.00387828
6.6 -0.00917092
6.61 -0.0148142
6.62 -0.0208964
6.63 -0.0274254
6.64 -0.0343844
6.65 -0.0417456
6.66 -0.0494572
6.67 -0.0574454
6.68 -0.0656181
6.69 -0.0738559
6.7 -0.0820184
6.71 -0.0899744
6.72 -0.0975906
6.73 -0.104736
6.74 -0.111285
6.75 -0.117066
6.76 -0.121985
6.77 -0.125998
6.78 -0.129045
6.79 -0.131089
6.8 -0.132112
6.81 -0.132113
6.82 -0.131019
6.83 -0.12899
6.84 -0.126088
6.85 -0.122386
6.86 -0.117968
6.87 -0.112923
6.88 -0.107312
6.89 -0.101241
6.9 -0.0948194
6.91 -0.0881193
6.92 -0.0812017
6.93 -0.0741144
6.94 -0.0668909
6.95 -0.0595368
6.96 -0.0520661
6.97 -0.0444646
6.98 -0.0367052
6.99 -0.02875
7 -0.0205527
7.01 -0.0120431
7.02 -0.00315166
7.03 0.00615665
7.04 0.0159335
7.05 0.0262242
7.06 0.0370658
7.07 0.0484842
7.08 0.0605539
7.09 0.0732191
7.1 0.0864526
7.11 0.10022
7.12 0.114474
7.13 0.129151
7.14 0.144187
7.15 0.159493
7.16 0.174944
7.17 0.190438
7.18 0.205867
7.19 0.221119
7.2 0.236087
7.21 0.250616
7.22 0.264619
7.23 0.27801
7.24 0.290701
7.25 0.302613
7.26 0.313678
7.27 0.323806
7.28 0.332885
7.29 0.340957
7.3 0.347993
7.31 0.353972
7.32 0.358878
7.33 0.362705
7.34 0.36536
7.35 0.366895
7.36 0.367354
7.37 0.366743
7.38 0.365072
7.39 0.362348
7.4 0.358566
7.41 0.353649
7.42 0.347713
7.43 0.340767
7.44 0.332824
7.45 0.323896
7.46 0.313998
7.47 0.303082
7.48 0.291192
7.49 0.278399
7.5 0.264733
7.51 0.250227
7.52 0.234923
7.53 0.218864
7.54 0.202034
7.55 0.184578
7.56 0.166564
7.57 0.148065
7.58 0.12916
7.59 0.109936
7.6 0.0904744
7.61 0.0708863
7.62 0.0512836
7.63 0.0317681
7.64 0.0124437
7.65 -0.00658529
7.66 -0.0252147
7.67 -0.0432741
7.68 -0.0607076
7.69 -0.0774223
7.7 -0.0933274
7.71 -0.108338
7.72 -0.122378
7.73 -0.135324
7.74 -0.147085
7.75 -0.157687
7.76 -0.167095
7.77 -0.175284
7.78 -0.182242
7.79 -0.18797
7.8 -0.192363
7.81 -0.195555
7.82 -0.197609
7.83 -0.198579
7.84 -0.198532
7.85 -0.197542
7.86 -0.195668
7.87 -0.192983
7.88 -0.189653
7.89 -0.185781
7.9 -0.181471
7.91 -0.176829
7.92 -0.171953
7.93 -0.166937
7.94 -0.161889
7.95 -0.156891
7.96 -0.152011
7.97 -0.147307
7.98 -0.142822
7.99 -0.138596
8 -0.134666
8.01 -0.131011
8.02 -0.127621
8.03 -0.124475
8.04 -0.121545
8.05 -0.118792
8.06 -0.116181
8.07 -0.113653
8.08 -0.111155
8.09 -0.108642
8.1 -0.106072
8.11 -0.103409
8.12 -0.100623
8.13 -0.097681
8.14 -0.09459
8.15 -0.0913554
8.16 -0.0879932
8.17 -0.0845302
8.18 -0.0810028
8.19 -0.0774584
8.2 -0.0739571
8.21 -0.0705567
8.22 -0.0673155
8.23 -0.064291
8.24 -0.0615371
8.25 -0.0591027
8.26 -0.0570694
8.27 -0.0554248
8.28 -0.0541807
8.29 -0.0533344
8.3 -0.0528679
8.31 -0.052748
8.32 -0.0529395
8.33 -0.0533693
8.34 -0.0539414
8.35 -0.0545679
8.36 -0.0551532
8.37 -0.0555977
8.38 -0.0558003
8.39 -0.0556147
8.4 -0.0549746
8.41 -0.0538017
8.42 -0.0520276
8.43 -0.0495995
8.44 -0.0464821
8.45 -0.0426277
8.46 -0.0380256
8.47 -0.0327573
8.48 -0.0268732
8.49 -0.0204428
8.5 -0.0135523
8.51 -0.00630249
8.52 0.00120632
8.53 0.00881936
8.54 0.0164065
8.55 0.0238423
8.56 0.0310054
8.57 0.0377822
8.58 0.0440501
8.59 0.0496825
8.6 0.0546545
8.61 0.058918
8.62 0.0624445
8.63 0.0652262
8.64 0.0672745
8.65 0.0685629
8.66 0.0691877
8.67 0.0692353
8.68 0.0687822
8.69 0.0679126
8.7 0.066715
8.71 0.0652752
8.72 0.0636791
8.73 0.0620253
8.74 0.0603812
8.75 0.058802
8.76 0.057328
8.77 0.0559839
8.78 0.0547874
8.79 0.0537211
8.8 0.0527507
8.81 0.051833
8.82 0.050913
8.83 0.0499257
8.84 0.0487965
8.85 0.04742
8.86 0.0457362
8.87 0.0436723
8.88 0.0411621
8.89 0.0381482
8.9 0.0345846
8.91 0.0303994
8.92 0.0255815
8.93 0.0201625
8.94 0.0141585
8.95 0.00760005
8.96 0.000530756
8.97 -0.00699474
8.98 -0.014949
8.99 -0.0232084
9 -0.0316975
9.01 -0.040341
9.02 -0.0490659
9.03 -0.0578041
9.04 -0.0664896
9.05 -0.0750642
9.06 -0.0834939
9.07 -0.0917534
9.08 -0.0998291
9.09 -0.107719
9.1 -0.115432
9.11 -0.122973
9.12 -0.130385
9.13 -0.137702
9.14 -0.144957
9.15 -0.152183
9.16 -0.159409
9.17 -0.16666
9.18 -0.173954
9.19 -0.181289
9.2 -0.188657
9.21 -0.196035
9.22 -0.203386
9.23 -0.210662
9.24 -0.217785
9.25 -0.224685
9.26 -0.231285
9.27 -0.237501
9.28 -0.243246
9.29 -0.248436
9.3 -0.252966
9.31 -0.256715
9.32 -0.25968
9.33 -0.261811
9.34 -0.263077
9.35 -0.263462
9.36 -0.262967
9.37 -0.26154
9.38 -0.259268
9.39 -0.256234
9.4 -0.252504
9.41 -0.248158
9.42 -0.243279
9.43 -0.237949
9.44 -0.232243
9.45 -0.226287
9.46 -0.220159
9.47 -0.213927
9.48 -0.207645
9.49 -0.201352
9.5 -0.195071
9.51 -0.188803
9.52 -0.182529
9.53 -0.176212
9.54 -0.169801
9.55 -0.16323
9.56 -0.156419
9.57 -0.149243
9.58 -0.141639
9.59 -0.13352
9.6 -0.124804
9.61 -0.115416
9.62 -0.105295
9.63 -0.0943426
9.64 -0.0825353
9.65 -0.0699124
9.66 -0.0564916
9.67 -0.0423119
9.68 -0.027433
9.69 -0.0119338
9.7 0.004137
9.71 0.0205961
9.72 0.0373184
9.73 0.0541735
9.74 0.0710287
9.75 0.0877534
9.76 0.104204
9.77 0.120244
9.78 0.135796
9.79 0.150779
9.8 0.165133
9.81 0.178817
9.82 0.191813
9.83 0.204052
9.84 0.215625
9.85 0.226583
9.86 0.236984
9.87 0.246897
9.88 0.256398
9.89 0.265555
9.9 0.274448
9.91 0.283173
9.92 0.291789
9.93 0.300346
9.94 0.308872
9.95 0.317383
9.96 0.325865
9.97 0.334287
9.98 0.342595
9.99 0.350721
10 0.358575
10.01 0.366059
10.02 0.373044
10.03 0.379364
10.04 0.384948
10.05 0.389683
10.06 0.393467
10.07 0.396211
10.08 0.397845
10.09 0.398218
10.1 0.39736
10.11 0.395315
10.12 0.392117
10.13 0.387821
10.14 0.382512
10.15 0.376281
10.16 0.369211
10.17 0.361538
10.18 0.35342
10.19 0.345025
10.2 0.336522
10.21 0.328078
10.22 0.319876
10.23 0.312077
10.24 0.304795
10.25 0.298134
10.26 0.292175
10.27 0.286972
10.28 0.28256
10.29 0.27902
10.3 0.276234
10.31 0.274146
10.32 0.272682
10.33 0.271746
10.34 0.27123
10.35 0.271025
10.36 0.270982
10.37 0.270958
10.38 0.270827
10.39 0.27047
10.4 0.269778
10.41 0.268654
10.42 0.26695
10.43 0.264655
10.44 0.261727
10.45 0.258139
10.46 0.25388
10.47 0.248955
10.48 0.24335
10.49 0.237086
10.5 0.230245
10.51 0.222868
10.52 0.214998
10.53 0.206678
10.54 0.197946
10.55 0.1888
10.56 0.1793
10.57 0.169467
10.58 0.15931
10.59 0.148827
10.6 0.138009
10.61 0.126828
10.62 0.115246
10.63 0.103268
10.64 0.0908733
10.65 0.0780418
10.66 0.0647605
10.67 0.0510232
10.68 0.0367934
10.69 0.022119
10.7 0.0070421
10.71 -0.00839418
10.72 -0.0241339
10.73 -0.040109
10.74 -0.0562425
10.75 -0.0724388
10.76 -0.0885897
10.77 -0.104597
10.78 -0.120363
10.79 -0.135794
10.8 -0.150801
10.81 -0.165262
10.82 -0.179126
10.83 -0.192368
10.84 -0.204958
10.85 -0.216888
10.86 -0.228167
10.87 -0.238815
10.88 -0.248838
10.89 -0.258365
10.9 -0.267476
10.91 -0.276263
10.92 -0.284822
10.93 -0.293255
10.94 -0.301664
10.95 -0.310159
10.96 -0.318821
10.97 -0.327719
10.98 -0.336904
10.99 -0.34641
11 -0.356249
11.01 -0.36644
11.02 -0.376906
11.03 -0.387584
11.04 -0.398393
11.05 -0.40923
11.06 -0.419979
11.07 -0.43049
11.08 -0.440605
11.09 -0.450196
11.1 -0.459124
11.11 -0.467256
11.12 -0.474469
11.13 -0.480654
11.14 -0.485588
11.15 -0.489313
11.16 -0.491792
11.17 -0.493006
11.18 -0.492959
11.19 -0.491677
11.2 -0.489157
11.21 -0.485451
11.22 -0.480732
11.23 -0.4751
11.24 -0.468662
11.25 -0.461533
11.26 -0.453826
11.27 -0.445614
11.28 -0.437047
11.29 -0.42822
11.3 -0.419207
11.31 -0.410064
11.32 -0.400828
11.33 -0.391517
11.34 -0.382125
11.35 -0.372637
11.36 -0.363015
11.37 -0.353208
11.38 -0.343155
11.39 -0.332787
11.4 -0.321993
11.41 -0.310715
11.42 -0.298897
11.43 -0.286483
11.44 -0.273425
11.45 -0.25969
11.46 -0.245246
11.47 -0.230048
11.48 -0.214185
11.49 -0.197701
11.5 -0.180656
11.51 -0.163127
11.52 -0.145205
11.53 -0.126978
11.54 -0.108585
11.55 -0.0901539
11.56 -0.0718016
11.57 -0.0536432
11.58 -0.0357876
11.59 -0.018341
11.6 -0.00144482
11.61 0.0148757
11.62 0.0305676
11.63 0.0455953
11.64 0.0599406
11.65 0.0736025
11.66 0.0865537
11.67 0.0988407
11.68 0.110543
11.69 0.121713
11.7 0.132414
11.71 0.142708
11.72 0.152658
11.73 0.162301
11.74 0.171728
11.75 0.180984
11.76 0.1901
11.77 0.199098
11.78 0.207986
11.79 0.216748
11.8 0.225357
11.81 0.233783
11.82 0.241977
11.83 0.24988
11.84 0.257424
11.85 0.264539
11.86 0.271086
11.87 0.277034
11.88 0.282317
11.89 0.286869
11.9 0.290634
11.91 0.293564
11.92 0.295583
11.93 0.296641
11.94 0.296792
11.95 0.296042
11.96 0.294405
11.97 0.291908
11.98 0.288586
11.99 0.284411
12 0.279495
12.01 0.273903
12.02 0.267686
12.03 0.260891
12.04 0.25356
12.05 0.245714
12.06 0.23736
12.07 0.228556
12.08 0.21931
12.09 0.209619
12.1 0.199471
12.11 0.188848
12.12 0.177678
12.13 0.165951
12.14 0.153649
12.15 0.140739
12.16 0.12719
12.17 0.112974
