# xPDFsuite Configuration #
[PDF]
wavelength = 0.1
dataformat = QA
inputfile = BiMsol6_insitu_700 C-00077.xy
backgroundfile = Quartz2mm-dist500-00000.xy
mode = xray
bgscale = 0.0042
composition = Bi2Fe4O9
outputtype = gr
qmaxinst = 24.998449118
qmin = 0.1
qmax = 21.4986662415
rmax = 80.0
rmin = 0.0
rstep = 0.01
rpoly = 0.9

[Misc]
inputdir = C:/Data/Seafile/CPH/Beamtime/Desy Oct 20/In situ data/Processed/BiMsol6/PDF
savedir = C:/Data/Seafile/CPH/Beamtime/Desy Oct 20/In situ data/PDF/BiMsol6
backgroundfilefull = C:/Data/Seafile/CPH/Beamtime/Desy Oct 20/In situ data/Processed/Standard_Empty_Cap/Quartz2mm-dist500-00000.xy

#### start data
#S 1
#L r($\AA$)  G($\AA^{-2}$)
0 0
0.01 0.00656074
0.02 0.0127551
0.03 0.0182694
0.04 0.0228223
0.05 0.0261771
0.06 0.0281536
0.07 0.0285539
0.08 0.02732
0.09 0.024596
0.1 0.0205001
0.11 0.0152165
0.12 0.00898693
0.13 0.0021
0.14 -0.0051204
0.15 -0.0122641
0.16 -0.0189854
0.17 -0.0249596
0.18 -0.0298952
0.19 -0.0335481
0.2 -0.0356673
0.21 -0.0360803
0.22 -0.0348837
0.23 -0.0321417
0.24 -0.027998
0.25 -0.02267
0.26 -0.0164416
0.27 -0.00963418
0.28 -0.00271573
0.29 0.00389763
0.3 0.00980179
0.31 0.0146122
0.32 0.0179826
0.33 0.0195626
0.34 0.0190092
0.35 0.0163711
0.36 0.0116431
0.37 0.00492481
0.38 -0.00357803
0.39 -0.0135563
0.4 -0.0246521
0.41 -0.036246
0.42 -0.0477297
0.43 -0.0584849
0.44 -0.0678723
0.45 -0.0752547
0.46 -0.0799593
0.47 -0.0811211
0.48 -0.0785516
0.49 -0.0719022
0.5 -0.0609478
0.51 -0.0456008
0.52 -0.0259216
0.53 -0.00185162
0.54 0.0260494
0.55 0.0570477
0.56 0.0904592
0.57 0.125485
0.58 0.161235
0.59 0.196739
0.6 0.230754
0.61 0.262326
0.62 0.290487
0.63 0.314334
0.64 0.333056
0.65 0.345963
0.66 0.352095
0.67 0.351078
0.68 0.343114
0.69 0.328239
0.7 0.306674
0.71 0.278822
0.72 0.245259
0.73 0.206246
0.74 0.163308
0.75 0.117453
0.76 0.0697461
0.77 0.0212864
0.78 -0.0268223
0.79 -0.0733795
0.8 -0.117195
0.81 -0.157484
0.82 -0.193483
0.83 -0.224572
0.84 -0.250294
0.85 -0.270362
0.86 -0.284078
0.87 -0.292065
0.88 -0.294681
0.89 -0.292356
0.9 -0.285651
0.91 -0.27524
0.92 -0.261796
0.93 -0.24617
0.94 -0.229424
0.95 -0.212388
0.96 -0.195855
0.97 -0.180551
0.98 -0.16712
0.99 -0.156358
1 -0.148543
1.01 -0.143861
1.02 -0.142427
1.03 -0.144217
1.04 -0.149086
1.05 -0.156837
1.06 -0.167194
1.07 -0.179445
1.08 -0.193068
1.09 -0.20751
1.1 -0.222205
1.11 -0.236604
1.12 -0.250086
1.13 -0.262177
1.14 -0.272541
1.15 -0.280897
1.16 -0.287058
1.17 -0.290939
1.18 -0.292517
1.19 -0.291748
1.2 -0.289079
1.21 -0.284801
1.22 -0.279266
1.23 -0.272863
1.24 -0.266007
1.25 -0.259142
1.26 -0.252726
1.27 -0.247115
1.28 -0.242618
1.29 -0.239475
1.3 -0.237855
1.31 -0.237856
1.32 -0.239643
1.33 -0.242935
1.34 -0.247556
1.35 -0.253264
1.36 -0.259761
1.37 -0.266705
1.38 -0.273713
1.39 -0.280349
1.4 -0.286249
1.41 -0.291076
1.42 -0.294539
1.43 -0.296403
1.44 -0.2965
1.45 -0.294526
1.46 -0.290684
1.47 -0.285073
1.48 -0.277862
1.49 -0.269292
1.5 -0.259664
1.51 -0.249318
1.52 -0.238697
1.53 -0.228257
1.54 -0.218407
1.55 -0.209537
1.56 -0.202005
1.57 -0.196117
1.58 -0.192324
1.59 -0.190638
1.6 -0.191094
1.61 -0.193667
1.62 -0.198247
1.63 -0.204639
1.64 -0.212611
1.65 -0.221817
1.66 -0.231725
1.67 -0.241884
1.68 -0.251821
1.69 -0.261061
1.7 -0.269141
1.71 -0.275448
1.72 -0.279659
1.73 -0.281513
1.74 -0.280778
1.75 -0.277307
1.76 -0.271042
1.77 -0.261948
1.78 -0.250005
1.79 -0.235694
1.8 -0.219322
1.81 -0.201259
1.82 -0.181925
1.83 -0.161773
1.84 -0.14129
1.85 -0.121024
1.86 -0.101438
1.87 -0.0829489
1.88 -0.0659233
1.89 -0.0506663
1.9 -0.0374437
1.91 -0.0266099
1.92 -0.0180067
1.93 -0.0116037
1.94 -0.00729225
1.95 -0.00489219
1.96 -0.00416077
1.97 -0.00487352
1.98 -0.00662042
1.99 -0.00897703
2 -0.0115811
2.01 -0.014082
2.02 -0.0161555
2.03 -0.0175133
2.04 -0.0177972
2.05 -0.0169403
2.06 -0.0148579
2.07 -0.0115381
2.08 -0.00704215
2.09 -0.00150215
2.1 0.00491687
2.11 0.011914
2.12 0.0191258
2.13 0.0262062
2.14 0.032791
2.15 0.0385119
2.16 0.0430114
2.17 0.0457531
2.18 0.0465805
2.19 0.0452761
2.2 0.0416725
2.21 0.0356714
2.22 0.0272477
2.23 0.0163499
2.24 0.0030734
2.25 -0.0121991
2.26 -0.0291915
2.27 -0.0475748
2.28 -0.0669779
2.29 -0.0869995
2.3 -0.107199
2.31 -0.127095
2.32 -0.14628
2.33 -0.164377
2.34 -0.181049
2.35 -0.196008
2.36 -0.20895
2.37 -0.219595
2.38 -0.228027
2.39 -0.234237
2.4 -0.238282
2.41 -0.240284
2.42 -0.240423
2.43 -0.238809
2.44 -0.235845
2.45 -0.231885
2.46 -0.227249
2.47 -0.222261
2.48 -0.217239
2.49 -0.212495
2.5 -0.208369
2.51 -0.205056
2.52 -0.202735
2.53 -0.201538
2.54 -0.201545
2.55 -0.202785
2.56 -0.205324
2.57 -0.209034
2.58 -0.213745
2.59 -0.219301
2.6 -0.225521
2.61 -0.232203
2.62 -0.239136
2.63 -0.246086
2.64 -0.252823
2.65 -0.25916
2.66 -0.264928
2.67 -0.269985
2.68 -0.274219
2.69 -0.277488
2.7 -0.279756
2.71 -0.281067
2.72 -0.281446
2.73 -0.280947
2.74 -0.279644
2.75 -0.277633
2.76 -0.274965
2.77 -0.271835
2.78 -0.26836
2.79 -0.264652
2.8 -0.260813
2.81 -0.256931
2.82 -0.253085
2.83 -0.249336
2.84 -0.245711
2.85 -0.242221
2.86 -0.238858
2.87 -0.235597
2.88 -0.232403
2.89 -0.229221
2.9 -0.22599
2.91 -0.222651
2.92 -0.219147
2.93 -0.215427
2.94 -0.211447
2.95 -0.207162
2.96 -0.20254
2.97 -0.197601
2.98 -0.192358
2.99 -0.186835
3 -0.181069
3.01 -0.175107
3.02 -0.168997
3.03 -0.162814
3.04 -0.156622
3.05 -0.150476
3.06 -0.144428
3.07 -0.138516
3.08 -0.132776
3.09 -0.12723
3.1 -0.121858
3.11 -0.116638
3.12 -0.11153
3.13 -0.10648
3.14 -0.10142
3.15 -0.0962555
3.16 -0.0908912
3.17 -0.0852363
3.18 -0.0791959
3.19 -0.072678
3.2 -0.0655973
3.21 -0.0578631
3.22 -0.0493532
3.23 -0.0400872
3.24 -0.030039
3.25 -0.019201
3.26 -0.00758436
3.27 0.00478198
3.28 0.0178993
3.29 0.0316743
3.3 0.0460005
3.31 0.0607926
3.32 0.0759598
3.33 0.0914095
3.34 0.107051
3.35 0.122798
3.36 0.138555
3.37 0.154257
3.38 0.169849
3.39 0.185293
3.4 0.200562
3.41 0.215633
3.42 0.230511
3.43 0.245223
3.44 0.259792
3.45 0.274248
3.46 0.288623
3.47 0.302949
3.48 0.317255
3.49 0.331563
3.5 0.345881
3.51 0.360203
3.52 0.374508
3.53 0.388758
3.54 0.402889
3.55 0.416814
3.56 0.430447
3.57 0.443685
3.58 0.456409
3.59 0.468495
3.6 0.479812
3.61 0.49012
3.62 0.499362
3.63 0.507429
3.64 0.514211
3.65 0.519617
3.66 0.523568
3.67 0.525948
3.68 0.526664
3.69 0.525829
3.7 0.52346
3.71 0.5196
3.72 0.514311
3.73 0.507674
3.74 0.499684
3.75 0.490554
3.76 0.480441
3.77 0.469475
3.78 0.457791
3.79 0.445521
3.8 0.432785
3.81 0.4197
3.82 0.406413
3.83 0.393019
3.84 0.379602
3.85 0.366231
3.86 0.352959
3.87 0.339842
3.88 0.326903
3.89 0.31415
3.9 0.301589
3.91 0.289217
3.92 0.277027
3.93 0.265013
3.94 0.253177
3.95 0.241494
3.96 0.229959
3.97 0.218571
3.98 0.207336
3.99 0.196261
4 0.185377
4.01 0.174701
4.02 0.164247
4.03 0.154041
4.04 0.144108
4.05 0.134472
4.06 0.125155
4.07 0.11621
4.08 0.10761
4.09 0.0993544
4.1 0.0914369
4.11 0.0838416
4.12 0.0765447
4.13 0.0695281
4.14 0.062746
4.15 0.0561387
4.16 0.0496585
4.17 0.0432569
4.18 0.0368865
4.19 0.0305034
4.2 0.02406
4.21 0.0175306
4.22 0.0108972
4.23 0.00415326
4.24 -0.00269567
4.25 -0.00963157
4.26 -0.0166246
4.27 -0.023625
4.28 -0.0305742
4.29 -0.0374091
4.3 -0.0440606
4.31 -0.050457
4.32 -0.0565257
4.33 -0.0621501
4.34 -0.0672956
4.35 -0.0719158
4.36 -0.0759703
4.37 -0.0794326
4.38 -0.0822918
4.39 -0.084532
4.4 -0.0861583
4.41 -0.0872623
4.42 -0.0879041
4.43 -0.0881576
4.44 -0.0881086
4.45 -0.0878515
4.46 -0.0874864
4.47 -0.0871347
4.48 -0.0868988
4.49 -0.0868723
4.5 -0.0871393
4.51 -0.0877711
4.52 -0.088836
4.53 -0.0904038
4.54 -0.0924491
4.55 -0.094965
4.56 -0.0979246
4.57 -0.101282
4.58 -0.104972
4.59 -0.108929
4.6 -0.113036
4.61 -0.117179
4.62 -0.12125
4.63 -0.12514
4.64 -0.128743
4.65 -0.131954
4.66 -0.134632
4.67 -0.136751
4.68 -0.138256
4.69 -0.139115
4.7 -0.139316
4.71 -0.138866
4.72 -0.137755
4.73 -0.136054
4.74 -0.133864
4.75 -0.131271
4.76 -0.128373
4.77 -0.125276
4.78 -0.12209
4.79 -0.118942
4.8 -0.115947
4.81 -0.113205
4.82 -0.110804
4.83 -0.10882
4.84 -0.107311
4.85 -0.106352
4.86 -0.105969
4.87 -0.10613
4.88 -0.106818
4.89 -0.107998
4.9 -0.109624
4.91 -0.111632
4.92 -0.113979
4.93 -0.116546
4.94 -0.119249
4.95 -0.122009
4.96 -0.124748
4.97 -0.127394
4.98 -0.129877
4.99 -0.132134
5 -0.13414
5.01 -0.135874
5.02 -0.137324
5.03 -0.138494
5.04 -0.139399
5.05 -0.140044
5.06 -0.140486
5.07 -0.140773
5.08 -0.140949
5.09 -0.14106
5.1 -0.141149
5.11 -0.141261
5.12 -0.141437
5.13 -0.1417
5.14 -0.142066
5.15 -0.142544
5.16 -0.143131
5.17 -0.143813
5.18 -0.144576
5.19 -0.145381
5.2 -0.146191
5.21 -0.146965
5.22 -0.147663
5.23 -0.148243
5.24 -0.148663
5.25 -0.14887
5.26 -0.148854
5.27 -0.148595
5.28 -0.148083
5.29 -0.147317
5.3 -0.146306
5.31 -0.14505
5.32 -0.143589
5.33 -0.141964
5.34 -0.140215
5.35 -0.138382
5.36 -0.13651
5.37 -0.13464
5.38 -0.132819
5.39 -0.131078
5.4 -0.129443
5.41 -0.12793
5.42 -0.126548
5.43 -0.125295
5.44 -0.124164
5.45 -0.12313
5.46 -0.122155
5.47 -0.121201
5.48 -0.120225
5.49 -0.11918
5.5 -0.11802
5.51 -0.116676
5.52 -0.115121
5.53 -0.113322
5.54 -0.111251
5.55 -0.108893
5.56 -0.10624
5.57 -0.103284
5.58 -0.100042
5.59 -0.0965624
5.6 -0.0928858
5.61 -0.0890602
5.62 -0.0851403
5.63 -0.0811849
5.64 -0.0772643
5.65 -0.0734417
5.66 -0.0697722
5.67 -0.0663049
5.68 -0.0630799
5.69 -0.060127
5.7 -0.057477
5.71 -0.0551415
5.72 -0.0530864
5.73 -0.0512856
5.74 -0.0497004
5.75 -0.048281
5.76 -0.0469682
5.77 -0.0456928
5.78 -0.0443724
5.79 -0.0429345
5.8 -0.0413092
5.81 -0.0394321
5.82 -0.0372466
5.83 -0.0346941
5.84 -0.0317189
5.85 -0.028337
5.86 -0.0245495
5.87 -0.0203738
5.88 -0.0158428
5.89 -0.0110041
5.9 -0.00590405
5.91 -0.000638802
5.92 0.00470191
5.93 0.0100312
5.94 0.0152612
5.95 0.0203057
5.96 0.025077
5.97 0.029471
5.98 0.0334582
5.99 0.0369974
6 0.0400641
6.01 0.0426515
6.02 0.0447713
6.03 0.0464243
6.04 0.0476811
6.05 0.0486269
6.06 0.0493409
6.07 0.0499122
6.08 0.0504364
6.09 0.0510134
6.1 0.0517662
6.11 0.0527775
6.12 0.0541282
6.13 0.0558863
6.14 0.0581043
6.15 0.0608165
6.16 0.0640703
6.17 0.0678503
6.18 0.0720978
6.19 0.0767613
6.2 0.0817715
6.21 0.0870432
6.22 0.0924783
6.23 0.0979622
6.24 0.103364
6.25 0.108568
6.26 0.113463
6.27 0.117944
6.28 0.121918
6.29 0.125271
6.3 0.127926
6.31 0.129886
6.32 0.131134
6.33 0.131674
6.34 0.131532
6.35 0.130756
6.36 0.129357
6.37 0.127481
6.38 0.12523
6.39 0.122708
6.4 0.120025
6.41 0.117288
6.42 0.114611
6.43 0.112111
6.44 0.109867
6.45 0.10795
6.46 0.106412
6.47 0.10529
6.48 0.1046
6.49 0.104376
6.5 0.104561
6.51 0.105099
6.52 0.105932
6.53 0.106987
6.54 0.108184
6.55 0.109432
6.56 0.110627
6.57 0.111677
6.58 0.1125
6.59 0.113019
6.6 0.113173
6.61 0.11291
6.62 0.112157
6.63 0.110919
6.64 0.109213
6.65 0.10706
6.66 0.104493
6.67 0.101562
6.68 0.0983208
6.69 0.0948309
6.7 0.0911969
6.71 0.0874975
6.72 0.0838105
6.73 0.0802101
6.74 0.0767639
6.75 0.0735496
6.76 0.0706135
6.77 0.0679775
6.78 0.0656594
6.79 0.0636633
6.8 0.0619797
6.81 0.0605886
6.82 0.0594772
6.83 0.0585694
6.84 0.0578137
6.85 0.0571544
6.86 0.0565347
6.87 0.0558985
6.88 0.0551865
6.89 0.0543466
6.9 0.0533472
6.91 0.0521622
6.92 0.0507761
6.93 0.0491846
6.94 0.0473948
6.95 0.0454066
6.96 0.0432714
6.97 0.0410266
6.98 0.0387146
6.99 0.0363809
7 0.0340722
7.01 0.0318393
7.02 0.0297307
7.03 0.0277744
7.04 0.025995
7.05 0.0244074
7.06 0.0230156
7.07 0.0218122
7.08 0.0207927
7.09 0.0199073
7.1 0.0191119
7.11 0.0183571
7.12 0.0175878
7.13 0.016746
7.14 0.0157653
7.15 0.0145742
7.16 0.0131338
7.17 0.0114025
7.18 0.00934879
7.19 0.00695388
7.2 0.00421272
7.21 0.00110651
7.22 -0.00231117
7.23 -0.00598768
7.24 -0.00986476
7.25 -0.0138718
7.26 -0.0179278
7.27 -0.0219399
7.28 -0.0257936
7.29 -0.0293983
7.3 -0.0326615
7.31 -0.0354964
7.32 -0.0378256
7.33 -0.0395834
7.34 -0.0406659
7.35 -0.0410663
7.36 -0.0407971
7.37 -0.0398681
7.38 -0.0383089
7.39 -0.0361682
7.4 -0.0335055
7.41 -0.0303803
7.42 -0.0269429
7.43 -0.0233031
7.44 -0.0195777
7.45 -0.0158859
7.46 -0.0123464
7.47 -0.00909981
7.48 -0.00625921
7.49 -0.00390194
7.5 -0.00210336
7.51 -0.000921295
7.52 -0.000394324
7.53 -0.000544621
7.54 -0.00143741
7.55 -0.00296891
7.56 -0.00509135
7.57 -0.0077396
7.58 -0.0108336
7.59 -0.014281
7.6 -0.0179886
7.61 -0.0218321
7.62 -0.025689
7.63 -0.0294533
7.64 -0.033025
7.65 -0.0363134
7.66 -0.0392401
7.67 -0.0416879
7.68 -0.0436536
7.69 -0.0451145
7.7 -0.0460638
7.71 -0.046513
7.72 -0.046491
7.73 -0.0460251
7.74 -0.0451768
7.75 -0.0440482
7.76 -0.0427206
7.77 -0.0412805
7.78 -0.0398161
7.79 -0.0384144
7.8 -0.0371806
7.81 -0.0361843
7.82 -0.0354856
7.83 -0.0351345
7.84 -0.0351667
7.85 -0.0356028
7.86 -0.0364621
7.87 -0.037747
7.88 -0.0393939
7.89 -0.0413584
7.9 -0.0435835
7.91 -0.046002
7.92 -0.0485387
7.93 -0.0511085
7.94 -0.0536155
7.95 -0.0559757
7.96 -0.0581097
7.97 -0.0599438
7.98 -0.0614126
7.99 -0.0624489
8 -0.0629746
8.01 -0.0630028
8.02 -0.0625211
8.03 -0.0615315
8.04 -0.06005
8.05 -0.0581061
8.06 -0.0557135
8.07 -0.052951
8.08 -0.0498998
8.09 -0.046632
8.1 -0.0432249
8.11 -0.0397583
8.12 -0.0363144
8.13 -0.0329904
8.14 -0.0298567
8.15 -0.0269812
8.16 -0.0244241
8.17 -0.0222367
8.18 -0.0204603
8.19 -0.0191563
8.2 -0.0183365
8.21 -0.0179831
8.22 -0.0180892
8.23 -0.0186368
8.24 -0.019598
8.25 -0.0209371
8.26 -0.0226394
8.27 -0.0246098
8.28 -0.02679
8.29 -0.0291185
8.3 -0.0315316
8.31 -0.0339654
8.32 -0.0363505
8.33 -0.0386165
8.34 -0.0407101
8.35 -0.0425798
8.36 -0.0441796
8.37 -0.0454699
8.38 -0.0464183
8.39 -0.0469573
8.4 -0.0471068
8.41 -0.0468619
8.42 -0.0462226
8.43 -0.0451962
8.44 -0.043797
8.45 -0.042031
8.46 -0.0399208
8.47 -0.0375243
8.48 -0.0348784
8.49 -0.0320234
8.5 -0.0290015
8.51 -0.0258569
8.52 -0.0226306
8.53 -0.0193775
8.54 -0.0161413
8.55 -0.0129616
8.56 -0.0098754
8.57 -0.00691565
8.58 -0.00411731
8.59 -0.00151574
8.6 0.000884908
8.61 0.00307252
8.62 0.00504039
8.63 0.00678711
8.64 0.00831635
8.65 0.00961949
8.66 0.0107235
8.67 0.0116521
8.68 0.0124256
8.69 0.0130664
8.7 0.0135985
8.71 0.0140451
8.72 0.0144294
8.73 0.0147819
8.74 0.0151236
8.75 0.0154733
8.76 0.0158466
8.77 0.0162558
8.78 0.0167134
8.79 0.0172225
8.8 0.0177812
8.81 0.0183859
8.82 0.0190295
8.83 0.0197024
8.84 0.0203922
8.85 0.0210837
8.86 0.0217603
8.87 0.0224066
8.88 0.0230082
8.89 0.0235518
8.9 0.0240259
8.91 0.0244161
8.92 0.024717
8.93 0.0249308
8.94 0.025059
8.95 0.0251067
8.96 0.0250818
8.97 0.0249957
8.98 0.0248583
8.99 0.0246927
9 0.0245162
9.01 0.0243465
9.02 0.024201
9.03 0.0240962
9.04 0.0240502
9.05 0.024077
9.06 0.024181
9.07 0.0243664
9.08 0.0246334
9.09 0.0249784
9.1 0.0253932
9.11 0.0258704
9.12 0.0263866
9.13 0.0269219
9.14 0.0274546
9.15 0.0279616
9.16 0.028419
9.17 0.0287993
9.18 0.0290743
9.19 0.02923
9.2 0.0292503
9.21 0.0291227
9.22 0.0288391
9.23 0.0283966
9.24 0.0277827
9.25 0.0270184
9.26 0.0261206
9.27 0.025108
9.28 0.0240031
9.29 0.022832
9.3 0.0216233
9.31 0.0204114
9.32 0.01923
9.33 0.0181096
9.34 0.017079
9.35 0.016164
9.36 0.0153872
9.37 0.0147808
9.38 0.0143503
9.39 0.0140965
9.4 0.0140193
9.41 0.0141129
9.42 0.0143659
9.43 0.0147641
9.44 0.015292
9.45 0.0159097
9.46 0.0165882
9.47 0.0172964
9.48 0.0180027
9.49 0.0186754
9.5 0.0192777
9.51 0.0197801
9.52 0.0201622
9.53 0.0204045
9.54 0.0204924
9.55 0.0204166
9.56 0.0201713
9.57 0.0197426
9.58 0.0191566
9.59 0.0184262
9.6 0.0175683
9.61 0.0166036
9.62 0.0155554
9.63 0.0144468
9.64 0.0133086
9.65 0.0121694
9.66 0.0110543
9.67 0.00998617
9.68 0.00898522
9.69 0.00806864
9.7 0.00726233
9.71 0.00656487
9.72 0.00598061
9.73 0.00551015
9.74 0.0051505
9.75 0.00489538
9.76 0.00474009
9.77 0.00467278
9.78 0.00467439
9.79 0.00473152
9.8 0.00483091
9.81 0.00496013
9.82 0.00510815
9.83 0.00526619
9.84 0.00542642
9.85 0.0055854
9.86 0.00574256
9.87 0.00590007
9.88 0.00606264
9.89 0.00623814
9.9 0.00643759
9.91 0.00667035
9.92 0.00694734
9.93 0.00727938
9.94 0.00767653
9.95 0.0081475
9.96 0.00870696
9.97 0.00935359
9.98 0.010086
9.99 0.0109014
10 0.0117939
10.01 0.012754
10.02 0.0137702
10.03 0.0148269
10.04 0.0159006
10.05 0.0169709
10.06 0.018016
10.07 0.0190135
10.08 0.0199413
10.09 0.0207689
10.1 0.0214787
10.11 0.0220571
10.12 0.0224902
10.13 0.0227674
10.14 0.0228819
10.15 0.0228278
10.16 0.0225931
10.17 0.0222004
10.18 0.0216591
10.19 0.0209819
10.2 0.0201844
10.21 0.0192845
10.22 0.0182972
10.23 0.0172483
10.24 0.0161625
10.25 0.0150603
10.26 0.0139614
10.27 0.012884
10.28 0.0118447
10.29 0.0108642
10.3 0.00994873
10.31 0.00910629
10.32 0.00834224
10.33 0.0076593
10.34 0.00705776
10.35 0.00654022
10.36 0.00610177
10.37 0.00573213
10.38 0.00542447
10.39 0.00517121
10.4 0.00496434
10.41 0.00479578
10.42 0.00466013
10.43 0.00454579
10.44 0.00444561
10.45 0.00435306
10.46 0.00426207
10.47 0.00416699
10.48 0.00406169
10.49 0.00393983
10.5 0.00379672
10.51 0.00362669
10.52 0.00342368
10.53 0.00318106
10.54 0.00289167
10.55 0.00254143
10.56 0.00212596
10.57 0.00163768
10.58 0.00106827
10.59 0.000409858
10.6 -0.000344554
10.61 -0.00120463
10.62 -0.00217876
10.63 -0.00325958
10.64 -0.00444489
10.65 -0.00572913
10.66 -0.00710307
10.67 -0.00855357
10.68 -0.0100669
10.69 -0.011615
10.7 -0.0131703
10.71 -0.0147039
10.72 -0.0161841
10.73 -0.017577
10.74 -0.0188439
10.75 -0.0199355
10.76 -0.0208303
10.77 -0.0214976
10.78 -0.0219106
10.79 -0.0220474
10.8 -0.0218919
10.81 -0.0214107
10.82 -0.0206162
10.83 -0.0195288
10.84 -0.0181659
10.85 -0.0165538
10.86 -0.014727
10.87 -0.0127258
10.88 -0.0105959
10.89 -0.00841019
10.9 -0.00622917
10.91 -0.00411561
10.92 -0.00213297
10.93 -0.000343527
10.94 0.00117235
10.95 0.00235883
10.96 0.00318345
10.97 0.00361005
10.98 0.00361281
10.99 0.00317738
11 0.0022997
11.01 0.000946875
11.02 -0.000804531
11.03 -0.00291509
11.04 -0.00533384
11.05 -0.00799943
11.06 -0.0108417
11.07 -0.0137841
11.08 -0.0167313
11.09 -0.0195929
11.1 -0.0222843
11.11 -0.0247241
11.12 -0.026836
11.13 -0.0285513
11.14 -0.0297557
11.15 -0.0304472
11.16 -0.0305987
11.17 -0.0301944
11.18 -0.0292339
11.19 -0.0277318
11.2 -0.0256961
11.21 -0.0231676
11.22 -0.0202423
11.23 -0.0169909
11.24 -0.0134931
11.25 -0.00983519
11.26 -0.00610724
11.27 -0.00241221
11.28 0.00115192
11.29 0.00450082
11.3 0.00755659
11.31 0.0102506
11.32 0.0125252
11.33 0.0143181
11.34 0.0155729
11.35 0.0163159
11.36 0.0165495
11.37 0.0162906
11.38 0.0155699
11.39 0.0144304
11.4 0.0128998
11.41 0.011072
11.42 0.00902891
11.43 0.00684596
11.44 0.0046001
11.45 0.00236734
11.46 0.000224256
11.47 -0.00174352
11.48 -0.00348785
11.49 -0.00496104
11.5 -0.00612619
11.51 -0.00695813
11.52 -0.00744381
11.53 -0.00755646
11.54 -0.00732353
11.55 -0.00678382
11.56 -0.00597188
11.57 -0.00493037
11.58 -0.00370828
11.59 -0.00235827
11.6 -0.000936982
11.61 0.000487292
11.62 0.00186045
11.63 0.00313234
11.64 0.00425834
11.65 0.00520076
11.66 0.00591443
11.67 0.00638026
11.68 0.00660041
11.69 0.00657533
11.7 0.00631439
11.71 0.00583529
11.72 0.00516276
11.73 0.00431406
11.74 0.00334781
11.75 0.00230388
11.76 0.00122331
11.77 0.000146724
11.78 -0.00088719
11.79 -0.00183699
11.8 -0.00266727
11.81 -0.00335977
11.82 -0.00389758
11.83 -0.00427071
11.84 -0.0044762
