# xPDFsuite Configuration #
[PDF]
wavelength = 0.1
dataformat = QA
inputfile = BiMsol6_insitu_700 C-00662.xy
backgroundfile = Quartz2mm-dist500-00000.xy
mode = xray
bgscale = 0.0042
composition = Bi2Fe4O9
outputtype = gr
qmaxinst = 24.998449118
qmin = 0.1
qmax = 21.4986662415
rmax = 80.0
rmin = 0.0
rstep = 0.01
rpoly = 0.9

[Misc]
inputdir = C:/Data/Seafile/CPH/Beamtime/Desy Oct 20/In situ data/Processed/BiMsol6/PDF
savedir = C:/Data/Seafile/CPH/Beamtime/Desy Oct 20/In situ data/PDF/BiMsol6
backgroundfilefull = C:/Data/Seafile/CPH/Beamtime/Desy Oct 20/In situ data/Processed/Standard_Empty_Cap/Quartz2mm-dist500-00000.xy

#### start data
#S 1
#L r($\AA$)  G($\AA^{-2}$)
0 0
0.01 0.00539888
0.02 0.0104813
0.03 0.0149766
0.04 0.0186427
0.05 0.0212772
0.06 0.0227273
0.07 0.0228272
0.08 0.0215329
0.09 0.0189747
0.1 0.0152619
0.11 0.0105608
0.12 0.00508741
0.13 -0.00090228
0.14 -0.00711672
0.15 -0.0132034
0.16 -0.0188635
0.17 -0.0238186
0.18 -0.0278219
0.19 -0.0306711
0.2 -0.0321602
0.21 -0.032157
0.22 -0.0307657
0.23 -0.0280628
0.24 -0.0241945
0.25 -0.0193719
0.26 -0.0138629
0.27 -0.0079797
0.28 -0.00213926
0.29 0.00328661
0.3 0.00793859
0.31 0.0114798
0.32 0.0136129
0.33 0.0140394
0.34 0.0124742
0.35 0.00899779
0.36 0.00363784
0.37 -0.00348111
0.38 -0.0121372
0.39 -0.0220146
0.4 -0.032739
0.41 -0.0437201
0.42 -0.0543831
0.43 -0.0641433
0.44 -0.0724015
0.45 -0.078567
0.46 -0.0820171
0.47 -0.0819465
0.48 -0.0782208
0.49 -0.07054
0.5 -0.0587227
0.51 -0.0427189
0.52 -0.0226183
0.53 0.00159813
0.54 0.0293686
0.55 0.0599747
0.56 0.092747
0.57 0.126912
0.58 0.161615
0.59 0.195926
0.6 0.228652
0.61 0.258909
0.62 0.285787
0.63 0.308441
0.64 0.326118
0.65 0.338179
0.66 0.343726
0.67 0.342424
0.68 0.334488
0.69 0.319963
0.7 0.299071
0.71 0.272203
0.72 0.23991
0.73 0.202439
0.74 0.161234
0.75 0.117246
0.76 0.0714732
0.77 0.0249477
0.78 -0.0212968
0.79 -0.0661398
0.8 -0.108468
0.81 -0.147546
0.82 -0.182656
0.83 -0.213218
0.84 -0.238796
0.85 -0.259118
0.86 -0.273519
0.87 -0.282565
0.88 -0.286574
0.89 -0.285928
0.9 -0.28113
0.91 -0.272783
0.92 -0.26149
0.93 -0.248011
0.94 -0.233323
0.95 -0.218181
0.96 -0.203307
0.97 -0.189369
0.98 -0.176958
0.99 -0.166797
1 -0.159168
1.01 -0.154267
1.02 -0.15222
1.03 -0.15304
1.04 -0.156624
1.05 -0.162835
1.06 -0.171468
1.07 -0.181918
1.08 -0.193752
1.09 -0.206509
1.1 -0.219716
1.11 -0.232909
1.12 -0.24558
1.13 -0.257315
1.14 -0.26781
1.15 -0.276818
1.16 -0.284166
1.17 -0.289762
1.18 -0.293563
1.19 -0.295511
1.2 -0.295933
1.21 -0.295036
1.22 -0.293073
1.23 -0.290325
1.24 -0.287093
1.25 -0.283683
1.26 -0.280423
1.27 -0.277571
1.28 -0.275336
1.29 -0.273875
1.3 -0.27329
1.31 -0.273627
1.32 -0.274952
1.33 -0.277065
1.34 -0.27982
1.35 -0.283025
1.36 -0.286456
1.37 -0.289864
1.38 -0.292959
1.39 -0.295449
1.4 -0.297122
1.41 -0.297777
1.42 -0.297258
1.43 -0.295458
1.44 -0.292327
1.45 -0.287737
1.46 -0.281922
1.47 -0.275037
1.48 -0.267285
1.49 -0.258915
1.5 -0.250214
1.51 -0.241507
1.52 -0.23317
1.53 -0.225518
1.54 -0.218851
1.55 -0.213432
1.56 -0.209482
1.57 -0.207167
1.58 -0.206769
1.59 -0.208163
1.6 -0.211263
1.61 -0.215938
1.62 -0.221987
1.63 -0.229151
1.64 -0.237128
1.65 -0.245526
1.66 -0.253891
1.67 -0.26182
1.68 -0.26891
1.69 -0.27478
1.7 -0.27908
1.71 -0.281314
1.72 -0.281335
1.73 -0.279035
1.74 -0.274332
1.75 -0.267219
1.76 -0.257771
1.77 -0.246089
1.78 -0.232303
1.79 -0.216913
1.8 -0.200268
1.81 -0.182755
1.82 -0.164785
1.83 -0.146774
1.84 -0.129194
1.85 -0.112464
1.86 -0.0969079
1.87 -0.082815
1.88 -0.0704139
1.89 -0.0598655
1.9 -0.0512874
1.91 -0.0448586
1.92 -0.0403017
1.93 -0.0374728
1.94 -0.0361688
1.95 -0.0361373
1.96 -0.037088
1.97 -0.0387273
1.98 -0.0406692
1.99 -0.0425639
2 -0.0441132
2.01 -0.0450535
2.02 -0.0451662
2.03 -0.0442842
2.04 -0.0421824
2.05 -0.0389621
2.06 -0.0346781
2.07 -0.0294527
2.08 -0.0234714
2.09 -0.0169762
2.1 -0.0102633
2.11 -0.00371361
2.12 0.00230871
2.13 0.00744431
2.14 0.011342
2.15 0.0136723
2.16 0.0141407
2.17 0.0122473
2.18 0.00801048
2.19 0.0013404
2.2 -0.00779677
2.21 -0.0193604
2.22 -0.033236
2.23 -0.0493223
2.24 -0.0673709
2.25 -0.0869089
2.26 -0.107569
2.27 -0.128951
2.28 -0.150635
2.29 -0.172198
2.3 -0.193129
2.31 -0.213038
2.32 -0.231585
2.33 -0.24847
2.34 -0.263446
2.35 -0.276333
2.36 -0.286938
2.37 -0.295114
2.38 -0.30109
2.39 -0.304973
2.4 -0.306935
2.41 -0.307195
2.42 -0.306018
2.43 -0.303627
2.44 -0.300447
2.45 -0.296835
2.46 -0.293111
2.47 -0.289577
2.48 -0.286509
2.49 -0.284168
2.5 -0.282835
2.51 -0.282574
2.52 -0.283469
2.53 -0.285552
2.54 -0.288802
2.55 -0.293152
2.56 -0.298555
2.57 -0.304802
2.58 -0.311669
2.59 -0.318955
2.6 -0.326447
2.61 -0.33393
2.62 -0.341192
2.63 -0.347982
2.64 -0.354162
2.65 -0.359595
2.66 -0.364179
2.67 -0.367842
2.68 -0.370551
2.69 -0.372245
2.7 -0.372979
2.71 -0.37287
2.72 -0.37201
2.73 -0.370507
2.74 -0.368484
2.75 -0.366066
2.76 -0.363365
2.77 -0.360543
2.78 -0.357705
2.79 -0.354942
2.8 -0.352327
2.81 -0.349909
2.82 -0.347729
2.83 -0.345794
2.84 -0.344069
2.85 -0.342517
2.86 -0.341088
2.87 -0.339719
2.88 -0.338343
2.89 -0.336872
2.9 -0.335239
2.91 -0.333384
2.92 -0.331256
2.93 -0.328815
2.94 -0.326034
2.95 -0.322887
2.96 -0.319367
2.97 -0.315516
2.98 -0.311358
2.99 -0.306927
3 -0.302256
3.01 -0.297375
3.02 -0.292295
3.03 -0.287043
3.04 -0.281618
3.05 -0.275998
3.06 -0.270137
3.07 -0.26397
3.08 -0.257388
3.09 -0.250233
3.1 -0.242403
3.11 -0.23374
3.12 -0.224078
3.13 -0.213241
3.14 -0.201054
3.15 -0.187203
3.16 -0.171594
3.17 -0.154144
3.18 -0.13475
3.19 -0.113343
3.2 -0.08989
3.21 -0.0643641
3.22 -0.0366889
3.23 -0.00717949
3.24 0.0239963
3.25 0.0566251
3.26 0.0904508
3.27 0.12518
3.28 0.160501
3.29 0.195996
3.3 0.23127
3.31 0.265948
3.32 0.299655
3.33 0.332031
3.34 0.362716
3.35 0.391168
3.36 0.417308
3.37 0.440912
3.38 0.461803
3.39 0.479855
3.4 0.494991
3.41 0.507003
3.42 0.515952
3.43 0.522079
3.44 0.525508
3.45 0.526394
3.46 0.524923
3.47 0.521303
3.48 0.515557
3.49 0.508155
3.5 0.499325
3.51 0.489285
3.52 0.47824
3.53 0.466375
3.54 0.453828
3.55 0.44075
3.56 0.427289
3.57 0.413528
3.58 0.399528
3.59 0.385327
3.6 0.370949
3.61 0.356384
3.62 0.341648
3.63 0.32674
3.64 0.311658
3.65 0.29641
3.66 0.281012
3.67 0.265493
3.68 0.24991
3.69 0.234345
3.7 0.218891
3.71 0.203661
3.72 0.188786
3.73 0.174414
3.74 0.160782
3.75 0.148032
3.76 0.136324
3.77 0.125829
3.78 0.116713
3.79 0.109131
3.8 0.103277
3.81 0.0993872
3.82 0.0974039
3.83 0.0973905
3.84 0.0993824
3.85 0.103386
3.86 0.109379
3.87 0.117462
3.88 0.127452
3.89 0.139172
3.9 0.152495
3.91 0.167276
3.92 0.183355
3.93 0.200583
3.94 0.218843
3.95 0.237852
3.96 0.257442
3.97 0.277448
3.98 0.297716
3.99 0.3181
4 0.338458
4.01 0.358654
4.02 0.378584
4.03 0.398152
4.04 0.417274
4.05 0.435873
4.06 0.453875
4.07 0.471138
4.08 0.487667
4.09 0.503398
4.1 0.518267
4.11 0.532208
4.12 0.54515
4.13 0.556951
4.14 0.567524
4.15 0.576851
4.16 0.584849
4.17 0.591437
4.18 0.596536
4.19 0.600071
4.2 0.601782
4.21 0.601786
4.22 0.600045
4.23 0.596528
4.24 0.591223
4.25 0.58413
4.26 0.575184
4.27 0.564399
4.28 0.551954
4.29 0.537922
4.3 0.522394
4.31 0.505472
4.32 0.487265
4.33 0.467787
4.34 0.447274
4.35 0.425869
4.36 0.403692
4.37 0.38086
4.38 0.35748
4.39 0.333639
4.4 0.309421
4.41 0.284933
4.42 0.260235
4.43 0.235378
4.44 0.210398
4.45 0.185325
4.46 0.160172
4.47 0.134962
4.48 0.109707
4.49 0.0844184
4.5 0.0591104
4.51 0.033802
4.52 0.00852077
4.53 -0.0166885
4.54 -0.0417807
4.55 -0.0666966
4.56 -0.0913661
4.57 -0.115708
4.58 -0.139633
4.59 -0.162993
4.6 -0.185691
4.61 -0.20764
4.62 -0.228734
4.63 -0.24887
4.64 -0.267952
4.65 -0.285874
4.66 -0.302453
4.67 -0.317752
4.68 -0.331736
4.69 -0.34439
4.7 -0.355718
4.71 -0.365745
4.72 -0.374434
4.73 -0.381887
4.74 -0.388251
4.75 -0.393624
4.76 -0.398118
4.77 -0.401851
4.78 -0.404945
4.79 -0.407484
4.8 -0.409657
4.81 -0.411579
4.82 -0.413354
4.83 -0.415073
4.84 -0.416814
4.85 -0.418645
4.86 -0.420613
4.87 -0.422733
4.88 -0.42501
4.89 -0.427429
4.9 -0.429962
4.91 -0.432569
4.92 -0.435193
4.93 -0.437764
4.94 -0.440215
4.95 -0.442476
4.96 -0.44448
4.97 -0.446161
4.98 -0.447438
4.99 -0.448242
5 -0.448559
5.01 -0.448356
5.02 -0.447611
5.03 -0.446313
5.04 -0.444461
5.05 -0.442007
5.06 -0.439014
5.07 -0.435514
5.08 -0.431534
5.09 -0.427101
5.1 -0.422247
5.11 -0.416987
5.12 -0.411335
5.13 -0.405347
5.14 -0.399041
5.15 -0.392434
5.16 -0.385535
5.17 -0.378353
5.18 -0.370867
5.19 -0.363095
5.2 -0.355047
5.21 -0.346724
5.22 -0.338131
5.23 -0.329277
5.24 -0.320168
5.25 -0.310813
5.26 -0.301263
5.27 -0.291557
5.28 -0.281741
5.29 -0.271867
5.3 -0.261999
5.31 -0.252217
5.32 -0.242603
5.33 -0.233232
5.34 -0.224185
5.35 -0.215542
5.36 -0.207378
5.37 -0.199775
5.38 -0.19286
5.39 -0.186627
5.4 -0.181117
5.41 -0.17636
5.42 -0.17237
5.43 -0.16915
5.44 -0.166734
5.45 -0.165077
5.46 -0.164099
5.47 -0.163745
5.48 -0.163948
5.49 -0.164635
5.5 -0.165728
5.51 -0.167168
5.52 -0.168825
5.53 -0.170613
5.54 -0.172448
5.55 -0.174253
5.56 -0.175953
5.57 -0.177469
5.58 -0.178733
5.59 -0.179706
5.6 -0.180347
5.61 -0.180622
5.62 -0.180505
5.63 -0.179972
5.64 -0.17896
5.65 -0.177497
5.66 -0.175576
5.67 -0.173186
5.68 -0.170316
5.69 -0.166955
5.7 -0.163066
5.71 -0.158615
5.72 -0.153619
5.73 -0.148057
5.74 -0.141908
5.75 -0.135149
5.76 -0.127759
5.77 -0.119655
5.78 -0.11087
5.79 -0.10141
5.8 -0.0912747
5.81 -0.0804726
5.82 -0.0690219
5.83 -0.0569327
5.84 -0.0442228
5.85 -0.0309987
5.86 -0.0173263
5.87 -0.00328166
5.88 0.0110503
5.89 0.0255773
5.9 0.040201
5.91 0.054802
5.92 0.0692763
5.93 0.0835248
5.94 0.0974534
5.95 0.110975
5.96 0.124001
5.97 0.136419
5.98 0.148226
5.99 0.159389
6 0.169888
6.01 0.179719
6.02 0.188891
6.03 0.197382
6.04 0.205255
6.05 0.212583
6.06 0.219418
6.07 0.225817
6.08 0.231838
6.09 0.237534
6.1 0.242938
6.11 0.248122
6.12 0.253119
6.13 0.257948
6.14 0.262616
6.15 0.267114
6.16 0.271405
6.17 0.275446
6.18 0.279194
6.19 0.282584
6.2 0.285542
6.21 0.287987
6.22 0.289832
6.23 0.290901
6.24 0.291183
6.25 0.290599
6.26 0.28908
6.27 0.286568
6.28 0.283019
6.29 0.278345
6.3 0.272522
6.31 0.265629
6.32 0.257692
6.33 0.248754
6.34 0.238874
6.35 0.228124
6.36 0.216517
6.37 0.204232
6.38 0.191378
6.39 0.178062
6.4 0.164386
6.41 0.150453
6.42 0.136354
6.43 0.122187
6.44 0.108037
6.45 0.093964
6.46 0.0800185
6.47 0.0662353
6.48 0.0526359
6.49 0.039247
6.5 0.0260491
6.51 0.0130219
6.52 0.000141459
6.53 -0.0126219
6.54 -0.025301
6.55 -0.0379292
6.56 -0.0505418
6.57 -0.0631695
6.58 -0.075833
6.59 -0.0885446
6.6 -0.101307
6.61 -0.114114
6.62 -0.126945
6.63 -0.139766
6.64 -0.152532
6.65 -0.165192
6.66 -0.177686
6.67 -0.189948
6.68 -0.201898
6.69 -0.213422
6.7 -0.224477
6.71 -0.234989
6.72 -0.244887
6.73 -0.254106
6.74 -0.262586
6.75 -0.270214
6.76 -0.276964
6.77 -0.282838
6.78 -0.28781
6.79 -0.291862
6.8 -0.294984
6.81 -0.297164
6.82 -0.298308
6.83 -0.298522
6.84 -0.297812
6.85 -0.296184
6.86 -0.293642
6.87 -0.290189
6.88 -0.285767
6.89 -0.280375
6.9 -0.274052
6.91 -0.266783
6.92 -0.258548
6.93 -0.249323
6.94 -0.239081
6.95 -0.227674
6.96 -0.215185
6.97 -0.201593
6.98 -0.186875
6.99 -0.171014
7 -0.153999
7.01 -0.13577
7.02 -0.11632
7.03 -0.0957449
7.04 -0.0740796
7.05 -0.0513687
7.06 -0.0276696
7.07 -0.00305166
7.08 0.0224814
7.09 0.0487515
7.1 0.0756441
7.11 0.103048
7.12 0.130847
7.13 0.158919
7.14 0.187139
7.15 0.215365
7.16 0.243463
7.17 0.27131
7.18 0.298787
7.19 0.325779
7.2 0.352178
7.21 0.377806
7.22 0.402605
7.23 0.426504
7.24 0.44942
7.25 0.471279
7.26 0.492009
7.27 0.51151
7.28 0.529638
7.29 0.546443
7.3 0.561874
7.31 0.57588
7.32 0.588413
7.33 0.599429
7.34 0.608752
7.35 0.616408
7.36 0.622415
7.37 0.626739
7.38 0.629347
7.39 0.630214
7.4 0.629287
7.41 0.626403
7.42 0.621733
7.43 0.615279
7.44 0.607052
7.45 0.597071
7.46 0.585368
7.47 0.571869
7.48 0.556671
7.49 0.53992
7.5 0.521687
7.51 0.502058
7.52 0.481124
7.53 0.458981
7.54 0.435635
7.55 0.411332
7.56 0.386196
7.57 0.36035
7.58 0.333924
7.59 0.307046
7.6 0.279839
7.61 0.252453
7.62 0.225038
7.63 0.197721
7.64 0.17063
7.65 0.143889
7.66 0.117619
7.67 0.0920153
7.68 0.0671386
7.69 0.0430925
7.7 0.0199788
7.71 -0.00210677
7.72 -0.023075
7.73 -0.0427827
7.74 -0.0611185
7.75 -0.0781034
7.76 -0.0936841
7.77 -0.107818
7.78 -0.120474
7.79 -0.131632
7.8 -0.141135
7.81 -0.149121
7.82 -0.155638
7.83 -0.160723
7.84 -0.164429
7.85 -0.166818
7.86 -0.167927
7.87 -0.167805
7.88 -0.166651
7.89 -0.164573
7.9 -0.161682
7.91 -0.158096
7.92 -0.153931
7.93 -0.149272
7.94 -0.144272
7.95 -0.139048
7.96 -0.133696
7.97 -0.128299
7.98 -0.122929
7.99 -0.117648
8 -0.112512
8.01 -0.107539
8.02 -0.102738
8.03 -0.0981057
8.04 -0.0936268
8.05 -0.0892743
8.06 -0.0850157
8.07 -0.0807984
8.08 -0.0765717
8.09 -0.0722877
8.1 -0.0679005
8.11 -0.0633688
8.12 -0.058656
8.13 -0.053718
8.14 -0.048564
8.15 -0.0431974
8.16 -0.0376352
8.17 -0.0319084
8.18 -0.0260618
8.19 -0.020153
8.2 -0.0142634
8.21 -0.00847542
8.22 -0.00287473
8.23 0.00244968
8.24 0.00740873
8.25 0.0119145
8.26 0.0158199
8.27 0.0191106
8.28 0.0217315
8.29 0.0236427
8.3 0.024821
8.31 0.025261
8.32 0.0249375
8.33 0.0238876
8.34 0.0222101
8.35 0.0199764
8.36 0.017272
8.37 0.0141938
8.38 0.0108473
8.39 0.0073383
8.4 0.00380573
8.41 0.000359118
8.42 -0.00290018
8.43 -0.00588129
8.44 -0.0085069
8.45 -0.0106951
8.46 -0.0123878
8.47 -0.0135988
8.48 -0.0143325
8.49 -0.0146138
8.5 -0.0144883
8.51 -0.01402
8.52 -0.0132736
8.53 -0.0123778
8.54 -0.0114457
8.55 -0.0105923
8.56 -0.00993535
8.57 -0.0095915
8.58 -0.00969119
8.59 -0.0103768
8.6 -0.0117
8.61 -0.0137345
8.62 -0.0165365
8.63 -0.020144
8.64 -0.0245754
8.65 -0.0298991
8.66 -0.0360415
8.67 -0.0429345
8.68 -0.0505187
8.69 -0.058721
8.7 -0.0674571
8.71 -0.0766428
8.72 -0.0861919
8.73 -0.0959654
8.74 -0.105866
8.75 -0.115802
8.76 -0.125686
8.77 -0.135444
8.78 -0.144991
8.79 -0.154273
8.8 -0.163262
8.81 -0.171931
8.82 -0.180265
8.83 -0.18826
8.84 -0.195916
8.85 -0.203217
8.86 -0.210215
8.87 -0.216928
8.88 -0.223377
8.89 -0.22958
8.9 -0.23555
8.91 -0.241281
8.92 -0.24678
8.93 -0.252052
8.94 -0.257084
8.95 -0.261856
8.96 -0.266342
8.97 -0.270511
8.98 -0.274287
8.99 -0.277669
9 -0.280624
9.01 -0.28312
9.02 -0.285131
9.03 -0.286635
9.04 -0.287593
9.05 -0.288
9.06 -0.287898
9.07 -0.287309
9.08 -0.286267
9.09 -0.284813
9.1 -0.283
9.11 -0.280861
9.12 -0.278498
9.13 -0.275983
9.14 -0.273383
9.15 -0.270766
9.16 -0.268194
9.17 -0.265728
9.18 -0.263423
9.19 -0.261302
9.2 -0.259384
9.21 -0.257674
9.22 -0.256162
9.23 -0.254827
9.24 -0.253643
9.25 -0.252547
9.26 -0.251478
9.27 -0.250373
9.28 -0.249166
9.29 -0.24779
9.3 -0.246171
9.31 -0.244228
9.32 -0.241933
9.33 -0.23925
9.34 -0.236157
9.35 -0.232644
9.36 -0.228719
9.37 -0.224378
9.38 -0.219685
9.39 -0.214713
9.4 -0.209528
9.41 -0.204212
9.42 -0.19885
9.43 -0.193535
9.44 -0.188379
9.45 -0.183459
9.46 -0.178853
9.47 -0.174627
9.48 -0.170829
9.49 -0.167495
9.5 -0.164672
9.51 -0.162335
9.52 -0.16043
9.53 -0.158902
9.54 -0.157675
9.55 -0.156656
9.56 -0.155735
9.57 -0.15477
9.58 -0.153619
9.59 -0.152143
9.6 -0.150202
9.61 -0.14766
9.62 -0.14439
9.63 -0.140214
9.64 -0.135026
9.65 -0.128796
9.66 -0.121465
9.67 -0.112999
9.68 -0.103387
9.69 -0.0926423
9.7 -0.0806776
9.71 -0.0676836
9.72 -0.0537416
9.73 -0.0389468
9.74 -0.0234065
9.75 -0.00723699
9.76 0.00945983
9.77 0.0265483
9.78 0.0438769
9.79 0.0613329
9.8 0.0788125
9.81 0.0962234
9.82 0.113487
9.83 0.130511
9.84 0.147263
9.85 0.163716
9.86 0.179851
9.87 0.195664
9.88 0.211159
9.89 0.226337
9.9 0.241208
9.91 0.255813
9.92 0.270171
9.93 0.284295
9.94 0.298193
9.95 0.311862
9.96 0.325267
9.97 0.338396
9.98 0.351219
9.99 0.363686
10 0.37574
10.01 0.387313
10.02 0.398313
10.03 0.408616
10.04 0.418191
10.05 0.426965
10.06 0.434867
10.07 0.441836
10.08 0.447823
10.09 0.452708
10.1 0.45652
10.11 0.459301
10.12 0.461072
10.13 0.461876
10.14 0.461774
10.15 0.46083
10.16 0.459092
10.17 0.456749
10.18 0.453921
10.19 0.450731
10.2 0.447306
10.21 0.443772
10.22 0.440258
10.23 0.436889
10.24 0.43376
10.25 0.430952
10.26 0.428527
10.27 0.42653
10.28 0.424986
10.29 0.423944
10.3 0.423331
10.31 0.423106
10.32 0.42321
10.33 0.423571
10.34 0.424103
10.35 0.42471
10.36 0.425275
10.37 0.425692
10.38 0.425859
10.39 0.425679
10.4 0.425061
10.41 0.423924
10.42 0.422124
10.43 0.419665
10.44 0.416509
10.45 0.412627
10.46 0.408006
10.47 0.402642
10.48 0.39651
10.49 0.389615
10.5 0.382035
10.51 0.373799
10.52 0.36494
10.53 0.355492
10.54 0.345487
10.55 0.334903
10.56 0.323811
10.57 0.31224
10.58 0.3002
10.59 0.287702
10.6 0.274746
10.61 0.261315
10.62 0.247386
10.63 0.23299
10.64 0.218124
10.65 0.202787
10.66 0.186985
10.67 0.170728
10.68 0.153998
10.69 0.136856
10.7 0.119355
10.71 0.101544
10.72 0.083485
10.73 0.0652469
10.74 0.0469074
10.75 0.0285611
10.76 0.0103048
10.77 -0.00777159
10.78 -0.0255795
10.79 -0.0430346
10.8 -0.0600597
10.81 -0.0765425
10.82 -0.0924432
10.83 -0.107743
10.84 -0.12242
10.85 -0.136469
10.86 -0.149903
10.87 -0.16274
10.88 -0.174989
10.89 -0.186769
10.9 -0.198157
10.91 -0.209236
10.92 -0.220095
10.93 -0.230827
10.94 -0.241526
10.95 -0.252291
10.96 -0.263199
10.97 -0.274313
10.98 -0.285681
10.99 -0.297333
11 -0.309282
11.01 -0.321547
11.02 -0.334059
11.03 -0.346761
11.04 -0.359579
11.05 -0.372422
11.06 -0.385182
11.07 -0.397723
11.08 -0.409896
11.09 -0.421584
11.1 -0.432657
11.11 -0.442989
11.12 -0.452462
11.13 -0.460971
11.14 -0.468301
11.15 -0.474487
11.16 -0.479486
11.17 -0.483275
11.18 -0.485846
11.19 -0.487218
11.2 -0.487375
11.21 -0.486355
11.22 -0.484314
11.23 -0.481339
11.24 -0.477525
11.25 -0.47297
11.26 -0.467777
11.27 -0.462001
11.28 -0.455785
11.29 -0.449221
11.3 -0.442375
11.31 -0.435301
11.32 -0.428035
11.33 -0.42059
11.34 -0.412959
11.35 -0.405137
11.36 -0.39709
11.37 -0.388771
11.38 -0.380125
11.39 -0.371087
11.4 -0.361543
11.41 -0.351446
11.42 -0.340744
11.43 -0.329383
11.44 -0.317319
11.45 -0.30452
11.46 -0.290953
11.47 -0.276572
11.48 -0.261475
11.49 -0.245706
11.5 -0.22933
11.51 -0.21243
11.52 -0.195104
11.53 -0.177449
11.54 -0.159618
11.55 -0.141756
11.56 -0.123997
11.57 -0.106476
11.58 -0.0893266
11.59 -0.0726794
11.6 -0.0567166
11.61 -0.041481
11.62 -0.0270531
11.63 -0.0134957
11.64 -0.000852718
11.65 0.010851
11.66 0.0215482
11.67 0.0312707
11.68 0.0401006
11.69 0.0480866
11.7 0.0552895
11.71 0.0617796
11.72 0.067633
11.73 0.0728778
11.74 0.0776669
11.75 0.0820791
11.76 0.0861884
11.77 0.0900611
11.78 0.0937546
11.79 0.0973106
11.8 0.100768
11.81 0.104154
11.82 0.107479
11.83 0.11074
11.84 0.113925
11.85 0.117014
11.86 0.119963
11.87 0.122746
11.88 0.125327
11.89 0.12767
11.9 0.129736
11.91 0.131491
11.92 0.132886
11.93 0.133882
11.94 0.134481
11.95 0.134671
11.96 0.134442
11.97 0.133789
11.98 0.132712
11.99 0.131175
12 0.129215
12.01 0.126847
12.02 0.124075
12.03 0.120902
12.04 0.117327
12.05 0.11333
12.06 0.108874
12.07 0.103977
12.08 0.0986121
12.09 0.0927491
12.1 0.0863521
12.11 0.0793812
12.12 0.0717373
12.13 0.0634056
12.14 0.0543638
12.15 0.0445743
12.16 0.0340053
12.17 0.0226332
12.18 0.0104269
12.19 -0.00267334
