# xPDFsuite Configuration #
[PDF]
wavelength = 0.1
dataformat = QA
inputfile = BiMsol6_insitu_700 C-00014.xy
backgroundfile = Quartz2mm-dist500-00000.xy
mode = xray
bgscale = 0.0042
composition = Bi2Fe4O9
outputtype = gr
qmaxinst = 24.998449118
qmin = 0.1
qmax = 21.4986662415
rmax = 80.0
rmin = 0.0
rstep = 0.01
rpoly = 0.9

[Misc]
inputdir = C:/Data/Seafile/CPH/Beamtime/Desy Oct 20/In situ data/Processed/BiMsol6/PDF
savedir = C:/Data/Seafile/CPH/Beamtime/Desy Oct 20/In situ data/PDF/BiMsol6
backgroundfilefull = C:/Data/Seafile/CPH/Beamtime/Desy Oct 20/In situ data/Processed/Standard_Empty_Cap/Quartz2mm-dist500-00000.xy

#### start data
#S 1
#L r($\AA$)  G($\AA^{-2}$)
0 0
0.01 0.00699003
0.02 0.0135921
0.03 0.019474
0.04 0.0243376
0.05 0.0279321
0.06 0.0300659
0.07 0.0305288
0.08 0.0292581
0.09 0.0264052
0.1 0.0220943
0.11 0.0165188
0.12 0.00993319
0.13 0.00264184
0.14 -0.00501474
0.15 -0.0126022
0.16 -0.0197546
0.17 -0.0261282
0.18 -0.0314135
0.19 -0.035351
0.2 -0.037673
0.21 -0.0381938
0.22 -0.0370114
0.23 -0.0341901
0.24 -0.0298769
0.25 -0.0242973
0.26 -0.0177466
0.27 -0.0105572
0.28 -0.00322089
0.29 0.00382559
0.3 0.0101578
0.31 0.0153711
0.32 0.0190999
0.33 0.020974
0.34 0.0206295
0.35 0.0181101
0.36 0.0134039
0.37 0.00660763
0.38 -0.00207114
0.39 -0.0123173
0.4 -0.0237685
0.41 -0.0357849
0.42 -0.0477377
0.43 -0.0589886
0.44 -0.0688764
0.45 -0.0767418
0.46 -0.0818885
0.47 -0.0834235
0.48 -0.0811441
0.49 -0.0746865
0.5 -0.0638135
0.51 -0.0484298
0.52 -0.0285921
0.53 -0.0042344
0.54 0.0240732
0.55 0.0555811
0.56 0.0895907
0.57 0.125286
0.58 0.161755
0.59 0.198008
0.6 0.232776
0.61 0.265079
0.62 0.293927
0.63 0.318398
0.64 0.337663
0.65 0.351017
0.66 0.35748
0.67 0.356671
0.68 0.348797
0.69 0.33389
0.7 0.312179
0.71 0.284072
0.72 0.250157
0.73 0.210696
0.74 0.167242
0.75 0.120817
0.76 0.0724988
0.77 0.0234036
0.78 -0.0253518
0.79 -0.0725542
0.8 -0.117001
0.81 -0.1579
0.82 -0.194481
0.83 -0.22612
0.84 -0.252357
0.85 -0.272905
0.86 -0.287061
0.87 -0.295452
0.88 -0.298439
0.89 -0.29645
0.9 -0.290049
0.91 -0.279906
0.92 -0.266692
0.93 -0.251252
0.94 -0.234645
0.95 -0.217693
0.96 -0.201182
0.97 -0.185832
0.98 -0.172275
0.99 -0.161294
1 -0.153164
1.01 -0.14807
1.02 -0.146123
1.03 -0.147304
1.04 -0.15147
1.05 -0.158434
1.06 -0.16793
1.07 -0.179271
1.08 -0.191959
1.09 -0.205465
1.1 -0.219255
1.11 -0.232808
1.12 -0.245544
1.13 -0.257024
1.14 -0.266935
1.15 -0.275025
1.16 -0.28113
1.17 -0.285182
1.18 -0.287175
1.19 -0.28709
1.2 -0.285343
1.21 -0.282213
1.22 -0.278031
1.23 -0.273156
1.24 -0.267968
1.25 -0.26287
1.26 -0.258264
1.27 -0.254449
1.28 -0.251678
1.29 -0.25014
1.3 -0.249951
1.31 -0.25116
1.32 -0.253855
1.33 -0.257751
1.34 -0.262647
1.35 -0.268286
1.36 -0.27437
1.37 -0.280565
1.38 -0.286492
1.39 -0.291752
1.4 -0.296045
1.41 -0.299087
1.42 -0.300646
1.43 -0.300553
1.44 -0.298707
1.45 -0.294891
1.46 -0.289371
1.47 -0.282307
1.48 -0.273923
1.49 -0.264505
1.5 -0.25439
1.51 -0.243957
1.52 -0.233668
1.53 -0.223943
1.54 -0.215171
1.55 -0.207708
1.56 -0.201863
1.57 -0.197888
1.58 -0.196176
1.59 -0.196646
1.6 -0.199253
1.61 -0.203896
1.62 -0.210392
1.63 -0.218475
1.64 -0.227841
1.65 -0.238068
1.66 -0.248611
1.67 -0.258997
1.68 -0.268744
1.69 -0.277383
1.7 -0.284469
1.71 -0.289399
1.72 -0.291927
1.73 -0.291863
1.74 -0.289045
1.75 -0.283404
1.76 -0.274961
1.77 -0.263767
1.78 -0.249898
1.79 -0.2339
1.8 -0.216142
1.81 -0.197046
1.82 -0.17707
1.83 -0.156694
1.84 -0.136446
1.85 -0.11685
1.86 -0.0983273
1.87 -0.0812538
1.88 -0.0659442
1.89 -0.0526399
1.9 -0.0415354
1.91 -0.0329029
1.92 -0.0264863
1.93 -0.0221721
1.94 -0.0197723
1.95 -0.019033
1.96 -0.0196464
1.97 -0.0213057
1.98 -0.0235624
1.99 -0.0259876
2 -0.028211
2.01 -0.0298897
2.02 -0.0307221
2.03 -0.0304557
2.04 -0.0287534
2.05 -0.0256545
2.06 -0.0211464
2.07 -0.0152949
2.08 -0.00824213
2.09 -0.00020079
2.1 0.00857402
2.11 0.0176977
2.12 0.0267535
2.13 0.0353437
2.14 0.0430647
2.15 0.0495221
2.16 0.0543464
2.17 0.0569607
2.18 0.057271
2.19 0.0550954
2.2 0.0503111
2.21 0.0428733
2.22 0.0328185
2.23 0.020159
2.24 0.00506781
2.25 -0.0119953
2.26 -0.0306887
2.27 -0.0506237
2.28 -0.0713767
2.29 -0.0925034
2.3 -0.113502
2.31 -0.133891
2.32 -0.153264
2.33 -0.17125
2.34 -0.187532
2.35 -0.201851
2.36 -0.213935
2.37 -0.223549
2.38 -0.230847
2.39 -0.235876
2.4 -0.23875
2.41 -0.239645
2.42 -0.238791
2.43 -0.236363
2.44 -0.232795
2.45 -0.228462
2.46 -0.223703
2.47 -0.218847
2.48 -0.214207
2.49 -0.210086
2.5 -0.20681
2.51 -0.204514
2.52 -0.203337
2.53 -0.203361
2.54 -0.204615
2.55 -0.207075
2.56 -0.210743
2.57 -0.215436
2.58 -0.220944
2.59 -0.227071
2.6 -0.233604
2.61 -0.24032
2.62 -0.246991
2.63 -0.253349
2.64 -0.259207
2.65 -0.264395
2.66 -0.268771
2.67 -0.272227
2.68 -0.274692
2.69 -0.276067
2.7 -0.276374
2.71 -0.275714
2.72 -0.274164
2.73 -0.271825
2.74 -0.268821
2.75 -0.265287
2.76 -0.261337
2.77 -0.257173
2.78 -0.25293
2.79 -0.248732
2.8 -0.244683
2.81 -0.240869
2.82 -0.23737
2.83 -0.234228
2.84 -0.231429
2.85 -0.228954
2.86 -0.226763
2.87 -0.224798
2.88 -0.222986
2.89 -0.221241
2.9 -0.219458
2.91 -0.217548
2.92 -0.215425
2.93 -0.213013
2.94 -0.21025
2.95 -0.207067
2.96 -0.203418
2.97 -0.199326
2.98 -0.1948
2.99 -0.189867
3 -0.18457
3.01 -0.178965
3.02 -0.173099
3.03 -0.167072
3.04 -0.16096
3.05 -0.154834
3.06 -0.148758
3.07 -0.142786
3.08 -0.136964
3.09 -0.131328
3.1 -0.125869
3.11 -0.120574
3.12 -0.115409
3.13 -0.110328
3.14 -0.105268
3.15 -0.100141
3.16 -0.0948519
3.17 -0.089312
3.18 -0.083427
3.19 -0.0771055
3.2 -0.0702621
3.21 -0.0628065
3.22 -0.054618
3.23 -0.0457104
3.24 -0.0360553
3.25 -0.0256421
3.26 -0.0144779
3.27 -0.0025871
3.28 0.0100365
3.29 0.0233077
3.3 0.0371285
3.31 0.0514222
3.32 0.0661077
3.33 0.0811024
3.34 0.096327
3.35 0.111712
3.36 0.12717
3.37 0.142646
3.38 0.158096
3.39 0.173491
3.4 0.188814
3.41 0.204056
3.42 0.219227
3.43 0.234352
3.44 0.249456
3.45 0.264568
3.46 0.27972
3.47 0.294939
3.48 0.310258
3.49 0.325681
3.5 0.341205
3.51 0.356813
3.52 0.372474
3.53 0.388137
3.54 0.403727
3.55 0.419143
3.56 0.434283
3.57 0.449031
3.58 0.463256
3.59 0.47682
3.6 0.489581
3.61 0.501281
3.62 0.511853
3.63 0.521177
3.64 0.529132
3.65 0.535615
3.66 0.540535
3.67 0.543758
3.68 0.545174
3.69 0.544892
3.7 0.54292
3.71 0.539287
3.72 0.534046
3.73 0.527271
3.74 0.518928
3.75 0.509243
3.76 0.498374
3.77 0.486454
3.78 0.473622
3.79 0.460022
3.8 0.445783
3.81 0.431033
3.82 0.415959
3.83 0.400685
3.84 0.385325
3.85 0.369983
3.86 0.354752
3.87 0.339733
3.88 0.324992
3.89 0.310575
3.9 0.296526
3.91 0.282876
3.92 0.269648
3.93 0.256868
3.94 0.244578
3.95 0.232738
3.96 0.221342
3.97 0.210383
3.98 0.199849
3.99 0.189725
4 0.18002
4.01 0.170699
4.02 0.16172
4.03 0.153055
4.04 0.144675
4.05 0.136546
4.06 0.128636
4.07 0.120918
4.08 0.113332
4.09 0.105835
4.1 0.0983881
4.11 0.0909503
4.12 0.083484
4.13 0.0759496
4.14 0.0683139
4.15 0.0605596
4.16 0.052673
4.17 0.0446494
4.18 0.0364939
4.19 0.028222
4.2 0.0198535
4.21 0.0114406
4.22 0.00303309
4.23 -0.00531102
4.24 -0.0135263
4.25 -0.0215417
4.26 -0.0292657
4.27 -0.0366052
4.28 -0.0435071
4.29 -0.049904
4.3 -0.0557363
4.31 -0.0609547
4.32 -0.0655226
4.33 -0.0693486
4.34 -0.0724877
4.35 -0.074966
4.36 -0.0768166
4.37 -0.0780896
4.38 -0.0788512
4.39 -0.0791693
4.4 -0.0791369
4.41 -0.0788911
4.42 -0.0785409
4.43 -0.0781971
4.44 -0.0779685
4.45 -0.0779583
4.46 -0.0782962
4.47 -0.0790499
4.48 -0.0802717
4.49 -0.0820033
4.5 -0.0842661
4.51 -0.0870602
4.52 -0.0903765
4.53 -0.0941935
4.54 -0.0983981
4.55 -0.102906
4.56 -0.107618
4.57 -0.112425
4.58 -0.117211
4.59 -0.121837
4.6 -0.126174
4.61 -0.130121
4.62 -0.133578
4.63 -0.13646
4.64 -0.1387
4.65 -0.14024
4.66 -0.140992
4.67 -0.14103
4.68 -0.140379
4.69 -0.139086
4.7 -0.137217
4.71 -0.134856
4.72 -0.132082
4.73 -0.129029
4.74 -0.125832
4.75 -0.12261
4.76 -0.119479
4.77 -0.116547
4.78 -0.113915
4.79 -0.111718
4.8 -0.109985
4.81 -0.108761
4.82 -0.10807
4.83 -0.107919
4.84 -0.108293
4.85 -0.109185
4.86 -0.110536
4.87 -0.112251
4.88 -0.114254
4.89 -0.116462
4.9 -0.118788
4.91 -0.121148
4.92 -0.123449
4.93 -0.125616
4.94 -0.127591
4.95 -0.129328
4.96 -0.130797
4.97 -0.131982
4.98 -0.132871
4.99 -0.13348
5 -0.133861
5.01 -0.13406
5.02 -0.134132
5.03 -0.134136
5.04 -0.134136
5.05 -0.134207
5.06 -0.134409
5.07 -0.13479
5.08 -0.135391
5.09 -0.13624
5.1 -0.137351
5.11 -0.138731
5.12 -0.140372
5.13 -0.142217
5.14 -0.144219
5.15 -0.146319
5.16 -0.148448
5.17 -0.150533
5.18 -0.152479
5.19 -0.154208
5.2 -0.155652
5.21 -0.156749
5.22 -0.157446
5.23 -0.157703
5.24 -0.157484
5.25 -0.156751
5.26 -0.155559
5.27 -0.153939
5.28 -0.151936
5.29 -0.149607
5.3 -0.147024
5.31 -0.144257
5.32 -0.14141
5.33 -0.138573
5.34 -0.135829
5.35 -0.133255
5.36 -0.130915
5.37 -0.128869
5.38 -0.127188
5.39 -0.125858
5.4 -0.124879
5.41 -0.124233
5.42 -0.123882
5.43 -0.123777
5.44 -0.123858
5.45 -0.124032
5.46 -0.124206
5.47 -0.124291
5.48 -0.124197
5.49 -0.123842
5.5 -0.123148
5.51 -0.122001
5.52 -0.120395
5.53 -0.118304
5.54 -0.115718
5.55 -0.112649
5.56 -0.109127
5.57 -0.105183
5.58 -0.100892
5.59 -0.0963614
5.6 -0.0916854
5.61 -0.0869632
5.62 -0.0822964
5.63 -0.077785
5.64 -0.0735584
5.65 -0.0696811
5.66 -0.0662156
5.67 -0.0632089
5.68 -0.060688
5.69 -0.0586583
5.7 -0.0571222
5.71 -0.0560448
5.72 -0.0553271
5.73 -0.0548868
5.74 -0.0546268
5.75 -0.0544389
5.76 -0.0542085
5.77 -0.0537914
5.78 -0.0530741
5.79 -0.0519556
5.8 -0.0503451
5.81 -0.0481684
5.82 -0.0453719
5.83 -0.041903
5.84 -0.0377249
5.85 -0.0329189
5.86 -0.0275365
5.87 -0.0216521
5.88 -0.0153613
5.89 -0.0087774
5.9 -0.00202471
5.91 0.00473402
5.92 0.0113546
5.93 0.0177005
5.94 0.0236436
5.95 0.0290686
5.96 0.033863
5.97 0.0378942
5.98 0.0411792
5.99 0.0437023
6 0.0454764
6.01 0.0465428
6.02 0.0469699
6.03 0.0468187
6.04 0.0462412
6.05 0.0453959
6.06 0.0444302
6.07 0.0434973
6.08 0.0427503
6.09 0.042342
6.1 0.0424682
6.11 0.0432048
6.12 0.0446436
6.13 0.0468502
6.14 0.049862
6.15 0.0536855
6.16 0.0583433
6.17 0.0637594
6.18 0.0698012
6.19 0.0763529
6.2 0.0832779
6.21 0.0904231
6.22 0.0976242
6.23 0.104679
6.24 0.111417
6.25 0.117678
6.26 0.123318
6.27 0.128209
6.28 0.132247
6.29 0.135303
6.3 0.137315
6.31 0.138333
6.32 0.138381
6.33 0.137509
6.34 0.135796
6.35 0.133346
6.36 0.130235
6.37 0.126678
6.38 0.122834
6.39 0.118863
6.4 0.114918
6.41 0.111149
6.42 0.107711
6.43 0.104751
6.44 0.102338
6.45 0.100538
6.46 0.0993917
6.47 0.098914
6.48 0.0990911
6.49 0.099935
6.5 0.101326
6.51 0.10316
6.52 0.10533
6.53 0.107716
6.54 0.110194
6.55 0.112626
6.56 0.114862
6.57 0.116788
6.58 0.1183
6.59 0.119307
6.6 0.11974
6.61 0.11955
6.62 0.118653
6.63 0.117082
6.64 0.114884
6.65 0.112102
6.66 0.1088
6.67 0.105058
6.68 0.100961
6.69 0.0966043
6.7 0.0921259
6.71 0.0876307
6.72 0.0832198
6.73 0.0789863
6.74 0.0750129
6.75 0.0713964
6.76 0.068186
6.77 0.0653982
6.78 0.0630475
6.79 0.0611309
6.8 0.0596292
6.81 0.0585109
6.82 0.0577554
6.83 0.0572625
6.84 0.0569659
6.85 0.0567954
6.86 0.0566804
6.87 0.0565526
6.88 0.0563403
6.89 0.0559807
6.9 0.0554351
6.91 0.0546711
6.92 0.0536683
6.93 0.0524187
6.94 0.0509264
6.95 0.0491834
6.96 0.0472445
6.97 0.0451457
6.98 0.042928
6.99 0.0406356
7 0.038314
7.01 0.0360103
7.02 0.0337712
7.03 0.0316287
7.04 0.0296084
7.05 0.0277273
7.06 0.0259926
7.07 0.0244022
7.08 0.0229553
7.09 0.0216152
7.1 0.0203493
7.11 0.0191206
7.12 0.0178879
7.13 0.016608
7.14 0.0152321
7.15 0.0137085
7.16 0.0120092
7.17 0.0101053
7.18 0.00797608
7.19 0.00561039
7.2 0.00300742
7.21 0.000158299
7.22 -0.0028962
7.23 -0.00611611
7.24 -0.00945775
7.25 -0.0128693
7.26 -0.0162927
7.27 -0.0196618
7.28 -0.0228955
7.29 -0.0259343
7.3 -0.0287157
7.31 -0.031182
7.32 -0.0332822
7.33 -0.0349736
7.34 -0.0361856
7.35 -0.0369152
7.36 -0.0371715
7.37 -0.0369594
7.38 -0.0362954
7.39 -0.0352074
7.4 -0.0337278
7.41 -0.0318828
7.42 -0.0297667
7.43 -0.0274415
7.44 -0.0249728
7.45 -0.022428
7.46 -0.0198741
7.47 -0.0173849
7.48 -0.0150288
7.49 -0.0128577
7.5 -0.0109203
7.51 -0.00925751
7.52 -0.00790246
7.53 -0.00688188
7.54 -0.00624958
7.55 -0.00597377
7.56 -0.00605235
7.57 -0.00647613
7.58 -0.00722961
7.59 -0.00829184
7.6 -0.00965228
7.61 -0.0112768
7.62 -0.013117
7.63 -0.0151396
7.64 -0.0173104
7.65 -0.0195955
7.66 -0.0219615
7.67 -0.0243786
7.68 -0.0268084
7.69 -0.0292226
7.7 -0.0315952
7.71 -0.0339024
7.72 -0.0361227
7.73 -0.0382308
7.74 -0.0402046
7.75 -0.0420376
7.76 -0.0437178
7.77 -0.0452354
7.78 -0.0465831
7.79 -0.0477561
7.8 -0.0487341
7.81 -0.049533
7.82 -0.0501596
7.83 -0.0506205
7.84 -0.0509251
7.85 -0.0510856
7.86 -0.0511128
7.87 -0.0510216
7.88 -0.0508419
7.89 -0.0505946
7.9 -0.0503015
7.91 -0.0499846
7.92 -0.0496652
7.93 -0.0493668
7.94 -0.0491076
7.95 -0.0489014
7.96 -0.0487582
7.97 -0.048684
7.98 -0.04868
7.99 -0.0487434
8 -0.0488669
8.01 -0.0490289
8.02 -0.0492091
8.03 -0.0493833
8.04 -0.0495241
8.05 -0.0496021
8.06 -0.0495771
8.07 -0.049419
8.08 -0.049104
8.09 -0.0486082
8.1 -0.0479124
8.11 -0.0470033
8.12 -0.045872
8.13 -0.0445024
8.14 -0.0429299
8.15 -0.0411759
8.16 -0.0392704
8.17 -0.0372514
8.18 -0.0351638
8.19 -0.0330613
8.2 -0.0310079
8.21 -0.0290623
8.22 -0.0272827
8.23 -0.025725
8.24 -0.0244411
8.25 -0.0234779
8.26 -0.0229153
8.27 -0.0227401
8.28 -0.0229649
8.29 -0.0235893
8.3 -0.0245999
8.31 -0.0259695
8.32 -0.0276731
8.33 -0.0296495
8.34 -0.031814
8.35 -0.0340922
8.36 -0.0364032
8.37 -0.0386625
8.38 -0.040784
8.39 -0.0426505
8.4 -0.0441977
8.41 -0.0453572
8.42 -0.0460687
8.43 -0.0462846
8.44 -0.0459711
8.45 -0.0450849
8.46 -0.0436112
8.47 -0.041608
8.48 -0.0391092
8.49 -0.0361633
8.5 -0.032832
8.51 -0.0291874
8.52 -0.0252963
8.53 -0.021274
8.54 -0.0172141
8.55 -0.0132049
8.56 -0.00933065
8.57 -0.00566858
8.58 -0.00229827
8.59 0.000701631
8.6 0.0033163
8.61 0.0055215
8.62 0.00730826
8.63 0.00868275
8.64 0.00966568
8.65 0.010264
8.66 0.0105514
8.67 0.0105958
8.68 0.0104609
8.69 0.0102138
8.7 0.00992262
8.71 0.00965532
8.72 0.00948609
8.73 0.00946331
8.74 0.00962867
8.75 0.0100124
8.76 0.0106325
8.77 0.0114935
8.78 0.0126037
8.79 0.0139293
8.8 0.0154262
8.81 0.0170508
8.82 0.018752
8.83 0.0204746
8.84 0.0221596
8.85 0.0237346
8.86 0.025152
8.87 0.0263658
8.88 0.0273381
8.89 0.0280416
8.9 0.0284601
8.91 0.0285718
8.92 0.0283927
8.93 0.0279622
8.94 0.0273158
8.95 0.0264984
8.96 0.0255626
8.97 0.0245662
8.98 0.0235773
8.99 0.0226617
9 0.021876
9.01 0.021271
9.02 0.0208887
9.03 0.020761
9.04 0.0209224
9.05 0.0213807
9.06 0.0221069
9.07 0.0230762
9.08 0.0242506
9.09 0.0255811
9.1 0.0270087
9.11 0.0284631
9.12 0.0298631
9.13 0.0311367
9.14 0.0322143
9.15 0.0330321
9.16 0.0335346
9.17 0.0336603
9.18 0.0333633
9.19 0.0326589
9.2 0.0315513
9.21 0.0300614
9.22 0.0282264
9.23 0.0260984
9.24 0.023729
9.25 0.0212227
9.26 0.0186715
9.27 0.016167
9.28 0.0138016
9.29 0.0116652
9.3 0.00985359
9.31 0.00846979
9.32 0.00754282
9.33 0.00711354
9.34 0.00720483
9.35 0.0078204
9.36 0.00894418
9.37 0.0105759
9.38 0.0126267
9.39 0.0150061
9.4 0.0176254
9.41 0.0203848
9.42 0.0231781
9.43 0.0258915
9.44 0.0283885
9.45 0.0305766
9.46 0.0323639
9.47 0.0336718
9.48 0.034438
9.49 0.0346191
9.5 0.0341474
9.51 0.0330435
9.52 0.0313602
9.53 0.0291448
9.54 0.0264635
9.55 0.0233996
9.56 0.0200482
9.57 0.0165133
9.58 0.0129381
9.59 0.00943826
9.6 0.00612626
9.61 0.00310726
9.62 0.000475294
9.63 -0.00165684
9.64 -0.00322442
9.65 -0.00421678
9.66 -0.00461847
9.67 -0.00443572
9.68 -0.00369601
9.69 -0.00244692
9.7 -0.000712283
9.71 0.00136599
9.72 0.00369123
9.73 0.00616014
9.74 0.00866608
9.75 0.0111033
9.76 0.013357
9.77 0.0153194
9.78 0.0169269
9.79 0.0181199
9.8 0.018857
9.81 0.0191168
9.82 0.018898
9.83 0.018176
9.84 0.0170392
9.85 0.0155543
9.86 0.0137967
9.87 0.0118531
9.88 0.00981828
9.89 0.00779547
9.9 0.00590099
9.91 0.00422593
9.92 0.00285436
9.93 0.00185816
9.94 0.00129414
9.95 0.00120178
9.96 0.00164762
9.97 0.00259456
9.98 0.00400636
9.99 0.00583985
10 0.00803484
10.01 0.0105165
10.02 0.0132011
10.03 0.0159863
10.04 0.0187558
10.05 0.0214097
10.06 0.0238527
10.07 0.0259971
10.08 0.0277667
10.09 0.0290594
10.1 0.0298478
10.11 0.0301252
10.12 0.029889
10.13 0.0291555
10.14 0.0279599
10.15 0.026348
10.16 0.0243692
10.17 0.0221448
10.18 0.0197646
10.19 0.0173225
10.2 0.0149132
10.21 0.0126282
10.22 0.0105727
10.23 0.00882463
10.24 0.00743156
10.25 0.00643533
10.26 0.00586042
10.27 0.00571313
10.28 0.00598412
10.29 0.0066778
10.3 0.00769852
10.31 0.0089823
10.32 0.0104542
10.33 0.0120314
10.34 0.0136266
10.35 0.0151419
10.36 0.0164795
10.37 0.0175671
10.38 0.0183378
10.39 0.0187376
10.4 0.0187275
10.41 0.0182849
10.42 0.0173568
10.43 0.0160078
10.44 0.0142738
10.45 0.0122041
10.46 0.00986105
10.47 0.007318
10.48 0.00465453
10.49 0.00196855
10.5 -0.000646641
10.51 -0.00310836
10.52 -0.00534067
10.53 -0.00727736
10.54 -0.00886456
10.55 -0.0100208
10.56 -0.010757
10.57 -0.0110775
10.58 -0.0109974
10.59 -0.0105481
10.6 -0.00977614
10.61 -0.00873365
10.62 -0.00749371
10.63 -0.00615545
10.64 -0.00480147
10.65 -0.00351449
10.66 -0.00237393
10.67 -0.00145271
10.68 -0.000844767
10.69 -0.000586715
10.7 -0.000703672
10.71 -0.00121225
10.72 -0.00211224
10.73 -0.00338653
10.74 -0.00500942
10.75 -0.00694276
10.76 -0.00909152
10.77 -0.0113809
10.78 -0.0137292
10.79 -0.0160506
10.8 -0.0182592
10.81 -0.0202498
10.82 -0.021945
10.83 -0.0232882
10.84 -0.0242276
10.85 -0.0247262
10.86 -0.0247634
10.87 -0.0243288
10.88 -0.0234016
10.89 -0.0220647
10.9 -0.0203694
10.91 -0.0183803
10.92 -0.0161737
10.93 -0.0138341
10.94 -0.0114552
10.95 -0.00914305
10.96 -0.00698855
10.97 -0.00507552
10.98 -0.00347892
10.99 -0.00226216
11 -0.00147689
11.01 -0.00120888
11.02 -0.0014207
11.03 -0.00210659
11.04 -0.00324345
11.05 -0.00479159
11.06 -0.00669628
11.07 -0.0089015
11.08 -0.0113155
11.09 -0.0138339
11.1 -0.0163648
11.11 -0.0188161
11.12 -0.0210979
11.13 -0.0231265
11.14 -0.0247828
11.15 -0.0260328
11.16 -0.0268317
11.17 -0.0271474
11.18 -0.0269637
11.19 -0.0262805
11.2 -0.0250931
11.21 -0.0234279
11.22 -0.0213671
11.23 -0.0189699
11.24 -0.0163044
11.25 -0.0134452
11.26 -0.0104703
11.27 -0.00746292
11.28 -0.00451101
11.29 -0.00168605
11.3 0.00094832
11.31 0.00333765
11.32 0.00543819
11.33 0.0072058
11.34 0.0086039
11.35 0.00965506
11.36 0.0103669
11.37 0.0107578
11.38 0.0108554
11.39 0.0106954
11.4 0.0103039
11.41 0.00974518
11.42 0.00907222
11.43 0.00833114
11.44 0.0075652
11.45 0.00681319
11.46 0.00610973
11.47 0.00548793
11.48 0.0049586
11.49 0.00452921
11.5 0.0041992
11.51 0.00396046
11.52 0.00379813
11.53 0.0036941
11.54 0.00361773
11.55 0.00353907
11.56 0.00342974
11.57 0.00326242
11.58 0.0030124
11.59 0.00265747
11.6 0.00217037
11.61 0.00155505
11.62 0.000811406
11.63 -5.33539e-05
11.64 -0.00102479
11.65 -0.00208168
11.66 -0.00319832
11.67 -0.00433604
11.68 -0.00545525
11.69 -0.00651725
11.7 -0.00748309
11.71 -0.00831522
11.72 -0.00897865
11.73 -0.00941796
11.74 -0.0096309
11.75 -0.00960228
11.76 -0.0093249
11.77 -0.00880004
11.78 -0.00803751
11.79 -0.00704492
11.8 -0.00585209
11.81 -0.00450714
11.82 -0.00305025
11.83 -0.00152558
