# xPDFsuite Configuration #
[PDF]
wavelength = 0.1
dataformat = QA
inputfile = BiMsol6_insitu_700 C-00513.xy
backgroundfile = Quartz2mm-dist500-00000.xy
mode = xray
bgscale = 0.0042
composition = Bi2Fe4O9
outputtype = gr
qmaxinst = 24.998449118
qmin = 0.1
qmax = 21.4986662415
rmax = 80.0
rmin = 0.0
rstep = 0.01
rpoly = 0.9

[Misc]
inputdir = C:/Data/Seafile/CPH/Beamtime/Desy Oct 20/In situ data/Processed/BiMsol6/PDF
savedir = C:/Data/Seafile/CPH/Beamtime/Desy Oct 20/In situ data/PDF/BiMsol6
backgroundfilefull = C:/Data/Seafile/CPH/Beamtime/Desy Oct 20/In situ data/Processed/Standard_Empty_Cap/Quartz2mm-dist500-00000.xy

#### start data
#S 1
#L r($\AA$)  G($\AA^{-2}$)
0 0
0.01 0.00610797
0.02 0.0118697
0.03 0.0169887
0.04 0.0211992
0.05 0.0242779
0.06 0.0260546
0.07 0.0263432
0.08 0.0250894
0.09 0.0224302
0.1 0.0184783
0.11 0.0134087
0.12 0.00745072
0.13 0.000878113
0.14 -0.00600147
0.15 -0.0128006
0.16 -0.0191923
0.17 -0.02487
0.18 -0.0295588
0.19 -0.0330289
0.2 -0.0350446
0.21 -0.0354449
0.22 -0.0343238
0.23 -0.0317451
0.24 -0.0278474
0.25 -0.0228399
0.26 -0.0169941
0.27 -0.0106194
0.28 -0.00416052
0.29 0.00198664
0.3 0.00743756
0.31 0.0118268
0.32 0.0148258
0.33 0.016102
0.34 0.0153301
0.35 0.0125607
0.36 0.00779163
0.37 0.00112082
0.38 -0.00725226
0.39 -0.0170294
0.4 -0.0278648
0.41 -0.0391637
0.42 -0.0503421
0.43 -0.0608061
0.44 -0.0699412
0.45 -0.0771347
0.46 -0.0817389
0.47 -0.082919
0.48 -0.0804926
0.49 -0.0741205
0.5 -0.0635811
0.51 -0.0487838
0.52 -0.0297788
0.53 -0.00649649
0.54 0.0205348
0.55 0.050618
0.56 0.0831061
0.57 0.117242
0.58 0.152179
0.59 0.186995
0.6 0.220514
0.61 0.251811
0.62 0.279956
0.63 0.304078
0.64 0.323392
0.65 0.337225
0.66 0.344642
0.67 0.345261
0.68 0.33925
0.69 0.326611
0.7 0.307527
0.71 0.28235
0.72 0.251599
0.73 0.215464
0.74 0.175387
0.75 0.132297
0.76 0.0871821
0.77 0.0410672
0.78 -0.00501498
0.79 -0.049951
0.8 -0.09262
0.81 -0.132254
0.82 -0.168118
0.83 -0.199607
0.84 -0.226264
0.85 -0.247789
0.86 -0.263498
0.87 -0.273921
0.88 -0.279348
0.89 -0.280136
0.9 -0.276767
0.91 -0.269824
0.92 -0.259888
0.93 -0.247702
0.94 -0.234233
0.95 -0.220227
0.96 -0.206398
0.97 -0.193406
0.98 -0.18184
0.99 -0.172409
1 -0.165399
1.01 -0.161007
1.02 -0.15936
1.03 -0.160468
1.04 -0.164229
1.05 -0.170501
1.06 -0.179072
1.07 -0.189348
1.08 -0.200898
1.09 -0.213262
1.1 -0.225971
1.11 -0.238566
1.12 -0.250538
1.13 -0.261486
1.14 -0.271125
1.15 -0.279218
1.16 -0.28561
1.17 -0.290227
1.18 -0.293048
1.19 -0.294039
1.2 -0.293552
1.21 -0.291816
1.22 -0.289108
1.23 -0.285731
1.24 -0.282004
1.25 -0.278265
1.26 -0.274854
1.27 -0.272028
1.28 -0.270001
1.29 -0.268929
1.3 -0.268908
1.31 -0.269972
1.32 -0.272182
1.33 -0.275299
1.34 -0.279147
1.35 -0.283503
1.36 -0.288107
1.37 -0.292678
1.38 -0.296882
1.39 -0.300388
1.4 -0.302954
1.41 -0.304351
1.42 -0.304397
1.43 -0.302969
1.44 -0.300003
1.45 -0.295344
1.46 -0.289252
1.47 -0.281896
1.48 -0.273499
1.49 -0.264337
1.5 -0.254727
1.51 -0.245031
1.52 -0.235672
1.53 -0.227015
1.54 -0.219402
1.55 -0.21314
1.56 -0.20849
1.57 -0.205654
1.58 -0.204967
1.59 -0.206311
1.6 -0.209608
1.61 -0.21473
1.62 -0.221472
1.63 -0.229557
1.64 -0.238667
1.65 -0.24838
1.66 -0.258183
1.67 -0.267626
1.68 -0.276257
1.69 -0.28364
1.7 -0.289372
1.71 -0.29289
1.72 -0.294001
1.73 -0.292563
1.74 -0.288458
1.75 -0.281657
1.76 -0.27222
1.77 -0.260238
1.78 -0.245834
1.79 -0.229556
1.8 -0.211786
1.81 -0.192955
1.82 -0.173521
1.83 -0.15396
1.84 -0.134806
1.85 -0.116552
1.86 -0.0995854
1.87 -0.0842551
1.88 -0.0708449
1.89 -0.0595632
1.9 -0.0505713
1.91 -0.0441079
1.92 -0.0398751
1.93 -0.0377282
1.94 -0.0374505
1.95 -0.0387629
1.96 -0.0413361
1.97 -0.044838
1.98 -0.0488088
1.99 -0.0528188
2 -0.0564966
2.01 -0.0595025
2.02 -0.0615428
2.03 -0.0623765
2.04 -0.0616741
2.05 -0.0595057
2.06 -0.05588
2.07 -0.0508853
2.08 -0.0446865
2.09 -0.0375193
2.1 -0.029664
2.11 -0.0215282
2.12 -0.0135427
2.13 -0.0061187
2.14 0.000330391
2.15 0.00540477
2.16 0.00873357
2.17 0.00973219
2.18 0.00832729
2.19 0.00435158
2.2 -0.00230054
2.21 -0.0116525
2.22 -0.0236438
2.23 -0.0382342
2.24 -0.0552176
2.25 -0.0741062
2.26 -0.0945303
2.27 -0.116074
2.28 -0.13829
2.29 -0.160712
2.3 -0.1828
2.31 -0.204076
2.32 -0.22413
2.33 -0.242591
2.34 -0.259146
2.35 -0.273546
2.36 -0.285533
2.37 -0.294888
2.38 -0.301809
2.39 -0.306372
2.4 -0.308728
2.41 -0.309088
2.42 -0.307721
2.43 -0.304846
2.44 -0.300934
2.45 -0.29639
2.46 -0.291581
2.47 -0.286862
2.48 -0.282562
2.49 -0.279001
2.5 -0.276527
2.51 -0.275251
2.52 -0.275302
2.53 -0.276745
2.54 -0.279588
2.55 -0.28378
2.56 -0.289296
2.57 -0.29591
2.58 -0.303371
2.59 -0.311445
2.6 -0.319882
2.61 -0.328425
2.62 -0.336812
2.63 -0.344734
2.64 -0.351994
2.65 -0.358406
2.66 -0.363822
2.67 -0.36813
2.68 -0.371266
2.69 -0.373128
2.7 -0.373762
2.71 -0.3733
2.72 -0.371845
2.73 -0.369528
2.74 -0.366503
2.75 -0.362935
2.76 -0.358975
2.77 -0.354853
2.78 -0.350729
2.79 -0.346745
2.8 -0.343022
2.81 -0.339657
2.82 -0.33674
2.83 -0.334312
2.84 -0.332342
2.85 -0.330799
2.86 -0.329625
2.87 -0.328739
2.88 -0.328043
2.89 -0.327424
2.9 -0.326743
2.91 -0.325882
2.92 -0.324727
2.93 -0.323175
2.94 -0.321137
2.95 -0.318514
2.96 -0.315228
2.97 -0.311294
2.98 -0.306702
2.99 -0.301461
3 -0.295596
3.01 -0.289142
3.02 -0.282096
3.03 -0.27455
3.04 -0.266561
3.05 -0.258166
3.06 -0.249391
3.07 -0.240247
3.08 -0.230713
3.09 -0.220734
3.1 -0.210289
3.11 -0.199303
3.12 -0.187684
3.13 -0.175324
3.14 -0.162103
3.15 -0.147798
3.16 -0.132319
3.17 -0.115576
3.18 -0.0974616
3.19 -0.0778855
3.2 -0.0567837
3.21 -0.0340896
3.22 -0.00969123
3.23 0.0162107
3.24 0.0435251
3.25 0.0721191
3.26 0.101819
3.27 0.132413
3.28 0.163679
3.29 0.195278
3.3 0.226874
3.31 0.258146
3.32 0.288761
3.33 0.318391
3.34 0.346696
3.35 0.37318
3.36 0.397716
3.37 0.420064
3.38 0.440022
3.39 0.45743
3.4 0.472175
3.41 0.484018
3.42 0.492971
3.43 0.499223
3.44 0.50286
3.45 0.504006
3.46 0.502821
3.47 0.499493
3.48 0.494033
3.49 0.486911
3.5 0.478365
3.51 0.468627
3.52 0.457926
3.53 0.446477
3.54 0.434458
3.55 0.422066
3.56 0.40948
3.57 0.396822
3.58 0.384187
3.59 0.371646
3.6 0.359247
3.61 0.347037
3.62 0.33501
3.63 0.323161
3.64 0.311478
3.65 0.29995
3.66 0.288564
3.67 0.277322
3.68 0.266235
3.69 0.255314
3.7 0.244595
3.71 0.234129
3.72 0.223985
3.73 0.214245
3.74 0.205065
3.75 0.196533
3.76 0.188756
3.77 0.181857
3.78 0.17596
3.79 0.171186
3.8 0.167684
3.81 0.165644
3.82 0.165037
3.83 0.165922
3.84 0.168339
3.85 0.172304
3.86 0.17781
3.87 0.184944
3.88 0.19357
3.89 0.203552
3.9 0.21479
3.91 0.227167
3.92 0.240551
3.93 0.254816
3.94 0.269852
3.95 0.285427
3.96 0.301393
3.97 0.317604
3.98 0.333922
3.99 0.350217
4 0.366353
4.01 0.382211
4.02 0.397704
4.03 0.412749
4.04 0.427273
4.05 0.441213
4.06 0.454506
4.07 0.467025
4.08 0.478796
4.09 0.489773
4.1 0.499913
4.11 0.509169
4.12 0.517493
4.13 0.524771
4.14 0.530943
4.15 0.536008
4.16 0.539906
4.17 0.542578
4.18 0.543963
4.19 0.544006
4.2 0.542492
4.21 0.539527
4.22 0.535084
4.23 0.52914
4.24 0.521688
4.25 0.512733
4.26 0.502226
4.27 0.490183
4.28 0.476759
4.29 0.462022
4.3 0.446056
4.31 0.428952
4.32 0.410811
4.33 0.391655
4.34 0.371689
4.35 0.351036
4.36 0.329803
4.37 0.308091
4.38 0.285993
4.39 0.263583
4.4 0.240933
4.41 0.21812
4.42 0.195189
4.43 0.172171
4.44 0.149085
4.45 0.125943
4.46 0.102742
4.47 0.0794841
4.48 0.056165
4.49 0.032782
4.5 0.00933612
4.51 -0.0141648
4.52 -0.0377039
4.53 -0.0612478
4.54 -0.0847482
4.55 -0.108146
4.56 -0.131368
4.57 -0.154327
4.58 -0.176925
4.59 -0.199004
4.6 -0.22045
4.61 -0.241158
4.62 -0.261005
4.63 -0.279869
4.64 -0.297639
4.65 -0.314191
4.66 -0.329318
4.67 -0.34308
4.68 -0.355433
4.69 -0.366358
4.7 -0.37586
4.71 -0.383968
4.72 -0.390651
4.73 -0.396031
4.74 -0.400276
4.75 -0.403513
4.76 -0.405878
4.77 -0.407522
4.78 -0.408598
4.79 -0.40924
4.8 -0.409661
4.81 -0.410006
4.82 -0.410406
4.83 -0.410977
4.84 -0.411817
4.85 -0.413021
4.86 -0.414647
4.87 -0.416692
4.88 -0.419152
4.89 -0.422
4.9 -0.425187
4.91 -0.428644
4.92 -0.432299
4.93 -0.436024
4.94 -0.439713
4.95 -0.443257
4.96 -0.446547
4.97 -0.44948
4.98 -0.451934
4.99 -0.453803
5 -0.455052
5.01 -0.455629
5.02 -0.455502
5.03 -0.454651
5.04 -0.453077
5.05 -0.450727
5.06 -0.447692
5.07 -0.444027
5.08 -0.439784
5.09 -0.435018
5.1 -0.429788
5.11 -0.42414
5.12 -0.418117
5.13 -0.411799
5.14 -0.405224
5.15 -0.39842
5.16 -0.391406
5.17 -0.384186
5.18 -0.376739
5.19 -0.369061
5.2 -0.361134
5.21 -0.352932
5.22 -0.344422
5.23 -0.335574
5.24 -0.326351
5.25 -0.3167
5.26 -0.306644
5.27 -0.296182
5.28 -0.285325
5.29 -0.274099
5.3 -0.262543
5.31 -0.250698
5.32 -0.238653
5.33 -0.226505
5.34 -0.21435
5.35 -0.202291
5.36 -0.190438
5.37 -0.178908
5.38 -0.167861
5.39 -0.157365
5.4 -0.147513
5.41 -0.138386
5.42 -0.130049
5.43 -0.122551
5.44 -0.11598
5.45 -0.11033
5.46 -0.10554
5.47 -0.101573
5.48 -0.0983767
5.49 -0.095879
5.5 -0.0939968
5.51 -0.0926803
5.52 -0.0917561
5.53 -0.0911161
5.54 -0.0906527
5.55 -0.0902621
5.56 -0.0898477
5.57 -0.0893127
5.58 -0.0885729
5.59 -0.0875807
5.6 -0.0862969
5.61 -0.0846986
5.62 -0.082779
5.63 -0.080546
5.64 -0.0779932
5.65 -0.0751875
5.66 -0.0721749
5.67 -0.0690033
5.68 -0.0657226
5.69 -0.062381
5.7 -0.059023
5.71 -0.0556892
5.72 -0.0524035
5.73 -0.0491764
5.74 -0.0460049
5.75 -0.0428721
5.76 -0.0397467
5.77 -0.0365751
5.78 -0.0332956
5.79 -0.029841
5.8 -0.026137
5.81 -0.0221062
5.82 -0.0176715
5.83 -0.0127416
5.84 -0.00721538
5.85 -0.0010825
5.86 0.00569385
5.87 0.0131334
5.88 0.021237
5.89 0.0299854
5.9 0.0393855
5.91 0.0493329
5.92 0.0597246
5.93 0.07046
5.94 0.0814242
5.95 0.0924922
5.96 0.103528
5.97 0.114368
5.98 0.124884
5.99 0.134953
6 0.144461
6.01 0.15331
6.02 0.161419
6.03 0.168666
6.04 0.17504
6.05 0.180569
6.06 0.18527
6.07 0.189183
6.08 0.192372
6.09 0.19491
6.1 0.196854
6.11 0.198382
6.12 0.199609
6.13 0.200653
6.14 0.201627
6.15 0.202637
6.16 0.203789
6.17 0.205167
6.18 0.206814
6.19 0.208758
6.2 0.211
6.21 0.213518
6.22 0.216263
6.23 0.21917
6.24 0.222113
6.25 0.224973
6.26 0.227616
6.27 0.229899
6.28 0.231673
6.29 0.232745
6.3 0.232941
6.31 0.232175
6.32 0.23033
6.33 0.227313
6.34 0.223052
6.35 0.217501
6.36 0.210508
6.37 0.202216
6.38 0.192688
6.39 0.182005
6.4 0.170268
6.41 0.157605
6.42 0.144137
6.43 0.130028
6.44 0.11551
6.45 0.100759
6.46 0.0859512
6.47 0.0712564
6.48 0.0568329
6.49 0.0428753
6.5 0.0294878
6.51 0.0167558
6.52 0.00474939
6.53 -0.00648747
6.54 -0.0169373
6.55 -0.0265855
6.56 -0.0354309
6.57 -0.0436007
6.58 -0.0511734
6.59 -0.0582417
6.6 -0.0649086
6.61 -0.0712829
6.62 -0.0774687
6.63 -0.0835946
6.64 -0.0897628
6.65 -0.0960575
6.66 -0.102547
6.67 -0.109281
6.68 -0.116294
6.69 -0.123615
6.7 -0.131193
6.71 -0.138988
6.72 -0.146935
6.73 -0.154951
6.74 -0.162939
6.75 -0.170768
6.76 -0.178302
6.77 -0.18542
6.78 -0.191991
6.79 -0.197889
6.8 -0.202993
6.81 -0.207183
6.82 -0.210249
6.83 -0.212212
6.84 -0.213009
6.85 -0.212596
6.86 -0.210947
6.87 -0.208055
6.88 -0.203858
6.89 -0.198396
6.9 -0.191784
6.91 -0.18408
6.92 -0.17535
6.93 -0.165669
6.94 -0.155115
6.95 -0.143683
6.96 -0.131547
6.97 -0.118781
6.98 -0.105449
6.99 -0.0916097
7 -0.0773103
7.01 -0.0625696
7.02 -0.0474125
7.03 -0.031883
7.04 -0.0159895
7.05 0.000266761
7.06 0.0168898
7.07 0.0338868
7.08 0.0513063
7.09 0.0691214
7.1 0.0873292
7.11 0.105926
7.12 0.124899
7.13 0.144227
7.14 0.163888
7.15 0.18384
7.16 0.203996
7.17 0.224284
7.18 0.244617
7.19 0.264899
7.2 0.285023
7.21 0.304838
7.22 0.324227
7.23 0.343071
7.24 0.361244
7.25 0.378622
7.26 0.395083
7.27 0.410481
7.28 0.424629
7.29 0.437525
7.3 0.449091
7.31 0.459257
7.32 0.467972
7.33 0.475195
7.34 0.480778
7.35 0.484778
7.36 0.487254
7.37 0.488223
7.38 0.48771
7.39 0.485749
7.4 0.482359
7.41 0.477477
7.42 0.471293
7.43 0.463856
7.44 0.455216
7.45 0.44542
7.46 0.434514
7.47 0.422467
7.48 0.409349
7.49 0.395243
7.5 0.380182
7.51 0.364195
7.52 0.347314
7.53 0.329562
7.54 0.31089
7.55 0.29143
7.56 0.271224
7.57 0.250323
7.58 0.228787
7.59 0.206682
7.6 0.184066
7.61 0.161043
7.62 0.137748
7.63 0.114293
7.64 0.0908052
7.65 0.0674181
7.66 0.0442731
7.67 0.021577
7.68 -0.000547269
7.69 -0.0219522
7.7 -0.0424914
7.71 -0.0620247
7.72 -0.0804207
7.73 -0.0974942
7.74 -0.113098
7.75 -0.127236
7.76 -0.139845
7.77 -0.150882
7.78 -0.160326
7.79 -0.168176
7.8 -0.174304
7.81 -0.178895
7.82 -0.182046
7.83 -0.183846
7.84 -0.1844
7.85 -0.183827
7.86 -0.182226
7.87 -0.179712
7.88 -0.176506
7.89 -0.172746
7.9 -0.168566
7.91 -0.164096
7.92 -0.159451
7.93 -0.154739
7.94 -0.150063
7.95 -0.145492
7.96 -0.141078
7.97 -0.136854
7.98 -0.132837
7.99 -0.129031
8 -0.125429
8.01 -0.121981
8.02 -0.118643
8.03 -0.115366
8.04 -0.112097
8.05 -0.108779
8.06 -0.105348
8.07 -0.101751
8.08 -0.0979524
8.09 -0.0939235
8.1 -0.089646
8.11 -0.0851154
8.12 -0.0803381
8.13 -0.0753236
8.14 -0.0701382
8.15 -0.0648363
8.16 -0.0594832
8.17 -0.0541534
8.18 -0.0489275
8.19 -0.0439088
8.2 -0.0391911
8.21 -0.0348456
8.22 -0.0309469
8.23 -0.0275603
8.24 -0.0247386
8.25 -0.0225224
8.26 -0.0210035
8.27 -0.0201116
8.28 -0.0198278
8.29 -0.0201143
8.3 -0.0209159
8.31 -0.0221608
8.32 -0.0237774
8.33 -0.0256517
8.34 -0.027654
8.35 -0.0296704
8.36 -0.0315859
8.37 -0.0332882
8.38 -0.034671
8.39 -0.0355829
8.4 -0.0359773
8.41 -0.0357946
8.42 -0.0349906
8.43 -0.0335417
8.44 -0.0314456
8.45 -0.0286952
8.46 -0.0253247
8.47 -0.021445
8.48 -0.0171403
8.49 -0.0125098
8.5 -0.00766497
8.51 -0.00272624
8.52 0.00216497
8.53 0.00687046
8.54 0.0112683
8.55 0.0152433
8.56 0.0186909
8.57 0.0215209
8.58 0.0236336
8.59 0.0249329
8.6 0.0254475
8.61 0.025169
8.62 0.0241095
8.63 0.0223007
8.64 0.0197925
8.65 0.0166032
8.66 0.0128605
8.67 0.00867511
8.68 0.00414539
8.69 -0.000628021
8.7 -0.00554557
8.71 -0.0105112
8.72 -0.015425
8.73 -0.020211
8.74 -0.02481
8.75 -0.0291783
8.76 -0.0332888
8.77 -0.0371315
8.78 -0.0406952
8.79 -0.0440179
8.8 -0.0471518
8.81 -0.0501502
8.82 -0.0530763
8.83 -0.0559996
8.84 -0.0589951
8.85 -0.0621586
8.86 -0.0655504
8.87 -0.069233
8.88 -0.0732593
8.89 -0.0776705
8.9 -0.0824939
8.91 -0.0877696
8.92 -0.0934856
8.93 -0.0995964
8.94 -0.106064
8.95 -0.112835
8.96 -0.119845
8.97 -0.127021
8.98 -0.134281
8.99 -0.141519
9 -0.148651
9.01 -0.15559
9.02 -0.162257
9.03 -0.168583
9.04 -0.174482
9.05 -0.179897
9.06 -0.184825
9.07 -0.18925
9.08 -0.193174
9.09 -0.196613
9.1 -0.199595
9.11 -0.202124
9.12 -0.204301
9.13 -0.206192
9.14 -0.207863
9.15 -0.209384
9.16 -0.210823
9.17 -0.212247
9.18 -0.21372
9.19 -0.21529
9.2 -0.21699
9.21 -0.218842
9.22 -0.220854
9.23 -0.223019
9.24 -0.225326
9.25 -0.227726
9.26 -0.230167
9.27 -0.232592
9.28 -0.234934
9.29 -0.237123
9.3 -0.239079
9.31 -0.240703
9.32 -0.241951
9.33 -0.242761
9.34 -0.243083
9.35 -0.242878
9.36 -0.242118
9.37 -0.240742
9.38 -0.23878
9.39 -0.236269
9.4 -0.23324
9.41 -0.229733
9.42 -0.2258
9.43 -0.221493
9.44 -0.216861
9.45 -0.212005
9.46 -0.206988
9.47 -0.201871
9.48 -0.196707
9.49 -0.191541
9.5 -0.186408
9.51 -0.18133
9.52 -0.176306
9.53 -0.171324
9.54 -0.166357
9.55 -0.161365
9.56 -0.156293
9.57 -0.151055
9.58 -0.145585
9.59 -0.139804
9.6 -0.133629
9.61 -0.12698
9.62 -0.119777
9.63 -0.111906
9.64 -0.103301
9.65 -0.0939495
9.66 -0.0838174
9.67 -0.0728867
9.68 -0.0611555
9.69 -0.0486388
9.7 -0.0352864
9.71 -0.0212392
9.72 -0.00656392
9.73 0.00866133
9.74 0.0243485
9.75 0.0404017
9.76 0.0567285
9.77 0.0732127
9.78 0.0897364
9.79 0.106202
9.8 0.122519
9.81 0.138604
9.82 0.154386
9.83 0.16976
9.84 0.184708
9.85 0.199203
9.86 0.213224
9.87 0.226762
9.88 0.239819
9.89 0.252385
9.9 0.264464
9.91 0.276113
9.92 0.287358
9.93 0.298221
9.94 0.308723
9.95 0.318881
9.96 0.328676
9.97 0.338134
9.98 0.347254
9.99 0.356021
10 0.364412
10.01 0.372393
10.02 0.37991
10.03 0.386882
10.04 0.393298
10.05 0.399106
10.06 0.404253
10.07 0.408692
10.08 0.412377
10.09 0.415204
10.1 0.41718
10.11 0.418318
10.12 0.418617
10.13 0.418088
10.14 0.416755
10.15 0.414646
10.16 0.411762
10.17 0.408246
10.18 0.404176
10.19 0.399639
10.2 0.394729
10.21 0.389544
10.22 0.384178
10.23 0.37875
10.24 0.373362
10.25 0.368102
10.26 0.36305
10.27 0.358278
10.28 0.353845
10.29 0.349839
10.3 0.346248
10.31 0.343085
10.32 0.340347
10.33 0.338016
10.34 0.336063
10.35 0.334461
10.36 0.333147
10.37 0.332035
10.38 0.331055
10.39 0.33013
10.4 0.329178
10.41 0.328118
10.42 0.32684
10.43 0.325277
10.44 0.323357
10.45 0.321009
10.46 0.318171
10.47 0.314786
10.48 0.310773
10.49 0.306074
10.5 0.300697
10.51 0.294617
10.52 0.287817
10.53 0.280285
10.54 0.272017
10.55 0.262939
10.56 0.253124
10.57 0.242595
10.58 0.231371
10.59 0.219472
10.6 0.206926
10.61 0.19374
10.62 0.179929
10.63 0.165581
10.64 0.150738
10.65 0.135449
10.66 0.119764
10.67 0.103736
10.68 0.0874045
10.69 0.0708557
10.7 0.0541612
10.71 0.037387
10.72 0.0205999
10.73 0.00386684
10.74 -0.0127415
10.75 -0.0291418
10.76 -0.045287
10.77 -0.0611235
10.78 -0.0766035
10.79 -0.0916872
10.8 -0.106343
10.81 -0.120511
10.82 -0.134198
10.83 -0.147421
10.84 -0.160192
10.85 -0.172531
10.86 -0.184469
10.87 -0.196038
10.88 -0.207264
10.89 -0.218236
10.9 -0.22901
10.91 -0.239642
10.92 -0.250191
10.93 -0.260711
10.94 -0.271255
10.95 -0.281871
10.96 -0.292589
10.97 -0.30343
10.98 -0.314404
10.99 -0.325508
11 -0.336725
11.01 -0.348032
11.02 -0.35937
11.03 -0.370683
11.04 -0.381903
11.05 -0.392955
11.06 -0.403756
11.07 -0.414193
11.08 -0.424161
11.09 -0.433593
11.1 -0.442401
11.11 -0.450505
11.12 -0.45783
11.13 -0.464312
11.14 -0.469794
11.15 -0.474326
11.16 -0.477889
11.17 -0.48047
11.18 -0.482071
11.19 -0.482705
11.2 -0.482356
11.21 -0.481043
11.22 -0.478878
11.23 -0.475912
11.24 -0.472203
11.25 -0.467806
11.26 -0.462779
11.27 -0.457125
11.28 -0.450947
11.29 -0.444296
11.3 -0.437209
11.31 -0.429712
11.32 -0.421824
11.33 -0.413539
11.34 -0.404839
11.35 -0.395746
11.36 -0.386243
11.37 -0.376309
11.38 -0.365918
11.39 -0.355043
11.4 -0.343611
11.41 -0.331625
11.42 -0.319082
11.43 -0.305968
11.44 -0.29228
11.45 -0.278022
11.46 -0.263197
11.47 -0.247798
11.48 -0.231917
11.49 -0.215604
11.5 -0.198918
11.51 -0.181928
11.52 -0.164711
11.53 -0.147345
11.54 -0.129932
11.55 -0.112568
11.56 -0.0953391
11.57 -0.0783317
11.58 -0.0616264
11.59 -0.0453038
11.6 -0.0294784
11.61 -0.0141646
11.62 0.000592534
11.63 0.0147589
11.64 0.0283111
11.65 0.0412366
11.66 0.0534917
11.67 0.0650955
11.68 0.0760972
11.69 0.0865205
11.7 0.0963943
11.71 0.105751
11.72 0.114623
11.73 0.122998
11.74 0.130963
11.75 0.138548
11.76 0.145777
11.77 0.152672
11.78 0.159247
11.79 0.165495
11.8 0.171418
11.81 0.17703
11.82 0.182326
11.83 0.187291
11.84 0.191913
11.85 0.196172
11.86 0.200009
11.87 0.203441
11.88 0.206453
11.89 0.209032
11.9 0.211163
11.91 0.212839
11.92 0.214033
11.93 0.214728
11.94 0.214959
11.95 0.214729
11.96 0.214045
11.97 0.212911
11.98 0.211334
11.99 0.209277
12 0.206775
12.01 0.203836
12.02 0.200454
12.03 0.196617
12.04 0.192309
12.05 0.187492
12.06 0.182104
12.07 0.176155
12.08 0.169604
12.09 0.162409
12.1 0.154527
12.11 0.145914
12.12 0.136456
12.13 0.126152
12.14 0.114995
12.15 0.10296
12.16 0.0900347
