# xPDFsuite Configuration #
[PDF]
wavelength = 0.1
dataformat = QA
inputfile = BiMsol6_insitu_700 C-00681.xy
backgroundfile = Quartz2mm-dist500-00000.xy
mode = xray
bgscale = 0.0042
composition = Bi2Fe4O9
outputtype = gr
qmaxinst = 24.998449118
qmin = 0.1
qmax = 21.4986662415
rmax = 80.0
rmin = 0.0
rstep = 0.01
rpoly = 0.9

[Misc]
inputdir = C:/Data/Seafile/CPH/Beamtime/Desy Oct 20/In situ data/Processed/BiMsol6/PDF
savedir = C:/Data/Seafile/CPH/Beamtime/Desy Oct 20/In situ data/PDF/BiMsol6
backgroundfilefull = C:/Data/Seafile/CPH/Beamtime/Desy Oct 20/In situ data/Processed/Standard_Empty_Cap/Quartz2mm-dist500-00000.xy

#### start data
#S 1
#L r($\AA$)  G($\AA^{-2}$)
0 0
0.01 0.00560413
0.02 0.0108841
0.03 0.0155627
0.04 0.0193915
0.05 0.0221626
0.06 0.0237182
0.07 0.0238865
0.08 0.0226201
0.09 0.0200503
0.1 0.0162862
0.11 0.0114954
0.12 0.00589631
0.13 -0.000251286
0.14 -0.00665323
0.15 -0.0129477
0.16 -0.0188285
0.17 -0.0240097
0.18 -0.0282363
0.19 -0.0312978
0.2 -0.0329789
0.21 -0.0331377
0.22 -0.031873
0.23 -0.0292555
0.24 -0.0254266
0.25 -0.0205943
0.26 -0.0150249
0.27 -0.00902598
0.28 -0.00302086
0.29 0.00261316
0.3 0.00751062
0.31 0.0113268
0.32 0.0137551
0.33 0.0144864
0.34 0.0132223
0.35 0.0100306
0.36 0.00492678
0.37 -0.00197637
0.38 -0.0104679
0.39 -0.0202418
0.4 -0.030938
0.41 -0.041969
0.42 -0.0527606
0.43 -0.0627282
0.44 -0.07127
0.45 -0.0777897
0.46 -0.0816572
0.47 -0.082058
0.48 -0.0788377
0.49 -0.0716798
0.5 -0.060385
0.51 -0.0448845
0.52 -0.0252484
0.53 -0.00143321
0.54 0.0260182
0.55 0.056401
0.56 0.0890592
0.57 0.12323
0.58 0.158065
0.59 0.192641
0.6 0.225774
0.61 0.256559
0.62 0.284077
0.63 0.307466
0.64 0.325954
0.65 0.338881
0.66 0.345323
0.67 0.344913
0.68 0.337836
0.69 0.324108
0.7 0.303923
0.71 0.277647
0.72 0.245808
0.73 0.208611
0.74 0.167505
0.75 0.123431
0.76 0.0773856
0.77 0.0304031
0.78 -0.0164735
0.79 -0.0621157
0.8 -0.105388
0.81 -0.145517
0.82 -0.181755
0.83 -0.213486
0.84 -0.24024
0.85 -0.261704
0.86 -0.277167
0.87 -0.287162
0.88 -0.291975
0.89 -0.291958
0.9 -0.287593
0.91 -0.279465
0.92 -0.268156
0.93 -0.254417
0.94 -0.239246
0.95 -0.223413
0.96 -0.20766
0.97 -0.192681
0.98 -0.179099
0.99 -0.167671
1 -0.158731
1.01 -0.152519
1.02 -0.149207
1.03 -0.148848
1.04 -0.151383
1.05 -0.156715
1.06 -0.164687
1.07 -0.174701
1.08 -0.186342
1.09 -0.199157
1.1 -0.212672
1.11 -0.226417
1.12 -0.239882
1.13 -0.252615
1.14 -0.264272
1.15 -0.274566
1.16 -0.283283
1.17 -0.290283
1.18 -0.295478
1.19 -0.298749
1.2 -0.300381
1.21 -0.300539
1.22 -0.29944
1.23 -0.297335
1.24 -0.294501
1.25 -0.291211
1.26 -0.287794
1.27 -0.284524
1.28 -0.281621
1.29 -0.279267
1.3 -0.277591
1.31 -0.276676
1.32 -0.276618
1.33 -0.277282
1.34 -0.27857
1.35 -0.280338
1.36 -0.282407
1.37 -0.284574
1.38 -0.286599
1.39 -0.28823
1.4 -0.28927
1.41 -0.289537
1.42 -0.288884
1.43 -0.287203
1.44 -0.284439
1.45 -0.28047
1.46 -0.275476
1.47 -0.269582
1.48 -0.262953
1.49 -0.255795
1.5 -0.248351
1.51 -0.240898
1.52 -0.233762
1.53 -0.227217
1.54 -0.221521
1.55 -0.216908
1.56 -0.213572
1.57 -0.211659
1.58 -0.211416
1.59 -0.212735
1.6 -0.21554
1.61 -0.219714
1.62 -0.225079
1.63 -0.231402
1.64 -0.238413
1.65 -0.245757
1.66 -0.253033
1.67 -0.259878
1.68 -0.26593
1.69 -0.270848
1.7 -0.274317
1.71 -0.275888
1.72 -0.275435
1.73 -0.272862
1.74 -0.268097
1.75 -0.261138
1.76 -0.252054
1.77 -0.24094
1.78 -0.227919
1.79 -0.213445
1.8 -0.197837
1.81 -0.18145
1.82 -0.164657
1.83 -0.147836
1.84 -0.131417
1.85 -0.115778
1.86 -0.101211
1.87 -0.0879772
1.88 -0.0762789
1.89 -0.0662583
1.9 -0.0580167
1.91 -0.0517086
1.92 -0.0470771
1.93 -0.0439852
1.94 -0.0422426
1.95 -0.0416144
1.96 -0.0418325
1.97 -0.0426236
1.98 -0.0436363
1.99 -0.0445557
2 -0.0451142
2.01 -0.0450773
2.02 -0.0442542
2.03 -0.042503
2.04 -0.0396326
2.05 -0.0357529
2.06 -0.0309312
2.07 -0.0252979
2.08 -0.0190418
2.09 -0.012404
2.1 -0.00568213
2.11 0.000753293
2.12 0.00655855
2.13 0.0113896
2.14 0.0149121
2.15 0.0168146
2.16 0.0168209
2.17 0.014449
2.18 0.00973729
2.19 0.0026108
2.2 -0.00695149
2.21 -0.0188986
2.22 -0.0331082
2.23 -0.0494713
2.24 -0.0677353
2.25 -0.0874318
2.26 -0.108196
2.27 -0.129632
2.28 -0.151327
2.29 -0.172863
2.3 -0.193735
2.31 -0.213563
2.32 -0.232017
2.33 -0.2488
2.34 -0.263674
2.35 -0.27646
2.36 -0.286972
2.37 -0.295064
2.38 -0.300964
2.39 -0.304781
2.4 -0.306684
2.41 -0.30689
2.42 -0.305662
2.43 -0.303222
2.44 -0.299989
2.45 -0.296322
2.46 -0.292539
2.47 -0.288941
2.48 -0.285805
2.49 -0.283395
2.5 -0.281993
2.51 -0.281669
2.52 -0.28251
2.53 -0.284551
2.54 -0.287778
2.55 -0.292126
2.56 -0.297555
2.57 -0.303857
2.58 -0.31081
2.59 -0.31821
2.6 -0.325843
2.61 -0.333493
2.62 -0.340942
2.63 -0.347931
2.64 -0.354314
2.65 -0.359946
2.66 -0.364714
2.67 -0.368537
2.68 -0.371373
2.69 -0.373148
2.7 -0.373911
2.71 -0.373775
2.72 -0.372829
2.73 -0.371182
2.74 -0.368957
2.75 -0.366286
2.76 -0.363282
2.77 -0.360124
2.78 -0.356933
2.79 -0.353813
2.8 -0.350853
2.81 -0.348119
2.82 -0.345675
2.83 -0.343545
2.84 -0.341707
2.85 -0.340139
2.86 -0.338797
2.87 -0.337628
2.88 -0.336566
2.89 -0.335534
2.9 -0.334447
2.91 -0.333232
2.92 -0.331823
2.93 -0.330161
2.94 -0.328197
2.95 -0.32588
2.96 -0.323169
2.97 -0.320079
2.98 -0.316609
2.99 -0.312764
3 -0.308553
3.01 -0.303988
3.02 -0.299046
3.03 -0.293753
3.04 -0.288109
3.05 -0.282091
3.06 -0.275664
3.07 -0.268773
3.08 -0.261326
3.09 -0.253189
3.1 -0.244297
3.11 -0.234529
3.12 -0.223752
3.13 -0.211827
3.14 -0.198613
3.15 -0.183844
3.16 -0.167453
3.17 -0.149382
3.18 -0.129548
3.19 -0.107896
3.2 -0.0844022
3.21 -0.0590433
3.22 -0.0317495
3.23 -0.0028005
3.24 0.0276588
3.25 0.0594434
3.26 0.0923312
3.27 0.126066
3.28 0.16038
3.29 0.194902
3.3 0.229278
3.31 0.263173
3.32 0.296247
3.33 0.328169
3.34 0.358606
3.35 0.387056
3.36 0.413424
3.37 0.437484
3.38 0.459048
3.39 0.477973
3.4 0.494153
3.41 0.507356
3.42 0.517592
3.43 0.525052
3.44 0.529811
3.45 0.531976
3.46 0.531685
3.47 0.529098
3.48 0.524172
3.49 0.51736
3.5 0.508862
3.51 0.498878
3.52 0.487602
3.53 0.475219
3.54 0.461862
3.55 0.447701
3.56 0.432933
3.57 0.417679
3.58 0.402042
3.59 0.386112
3.6 0.369964
3.61 0.35365
3.62 0.337244
3.63 0.320797
3.64 0.304354
3.65 0.287963
3.66 0.271675
3.67 0.255556
3.68 0.23969
3.69 0.22414
3.7 0.208994
3.71 0.194348
3.72 0.180306
3.73 0.166982
3.74 0.154583
3.75 0.143188
3.76 0.132898
3.77 0.123833
3.78 0.116105
3.79 0.109819
3.8 0.105115
3.81 0.102174
3.82 0.10092
3.83 0.101391
3.84 0.103609
3.85 0.107576
3.86 0.113275
3.87 0.120804
3.88 0.130018
3.89 0.140786
3.9 0.153018
3.91 0.166616
3.92 0.181468
3.93 0.197476
3.94 0.214584
3.95 0.232552
3.96 0.251254
3.97 0.270561
3.98 0.290346
3.99 0.310483
4 0.330859
4.01 0.35133
4.02 0.371769
4.03 0.392062
4.04 0.412097
4.05 0.43176
4.06 0.450938
4.07 0.469445
4.08 0.487226
4.09 0.504172
4.1 0.520173
4.11 0.53512
4.12 0.548908
4.13 0.561351
4.14 0.57234
4.15 0.581857
4.16 0.58982
4.17 0.596157
4.18 0.600807
4.19 0.603723
4.2 0.604669
4.21 0.603822
4.22 0.601193
4.23 0.596801
4.24 0.590682
4.25 0.582886
4.26 0.573402
4.27 0.562294
4.28 0.549758
4.29 0.535892
4.3 0.520796
4.31 0.504575
4.32 0.487329
4.33 0.469072
4.34 0.449984
4.35 0.430161
4.36 0.409674
4.37 0.388581
4.38 0.366932
4.39 0.344742
4.4 0.32202
4.41 0.298819
4.42 0.275147
4.43 0.251004
4.44 0.22639
4.45 0.201306
4.46 0.175715
4.47 0.149662
4.48 0.123185
4.49 0.0963195
4.5 0.0691189
4.51 0.0416514
4.52 0.0140002
4.53 -0.0137219
4.54 -0.041378
4.55 -0.0688321
4.56 -0.095937
4.57 -0.122537
4.58 -0.148472
4.59 -0.173501
4.6 -0.197483
4.61 -0.220303
4.62 -0.241827
4.63 -0.261939
4.64 -0.280546
4.65 -0.297552
4.66 -0.312773
4.67 -0.326364
4.68 -0.338345
4.69 -0.34877
4.7 -0.357716
4.71 -0.365287
4.72 -0.371534
4.73 -0.37665
4.74 -0.380858
4.75 -0.384326
4.76 -0.387227
4.77 -0.389732
4.78 -0.392002
4.79 -0.394196
4.8 -0.396465
4.81 -0.398916
4.82 -0.401633
4.83 -0.404673
4.84 -0.408068
4.85 -0.41184
4.86 -0.415963
4.87 -0.420362
4.88 -0.424966
4.89 -0.429686
4.9 -0.434418
4.91 -0.439053
4.92 -0.443438
4.93 -0.447471
4.94 -0.451046
4.95 -0.454065
4.96 -0.456443
4.97 -0.458115
4.98 -0.458992
4.99 -0.459025
5 -0.458264
5.01 -0.456724
5.02 -0.454438
5.03 -0.451456
5.04 -0.447838
5.05 -0.44361
5.06 -0.438905
5.07 -0.433816
5.08 -0.42842
5.09 -0.422793
5.1 -0.416999
5.11 -0.411091
5.12 -0.40511
5.13 -0.399087
5.14 -0.393029
5.15 -0.386927
5.16 -0.38076
5.17 -0.374494
5.18 -0.368069
5.19 -0.361436
5.2 -0.354545
5.21 -0.347344
5.22 -0.339784
5.23 -0.331827
5.24 -0.323434
5.25 -0.314561
5.26 -0.305256
5.27 -0.295546
5.28 -0.285477
5.29 -0.275113
5.3 -0.264537
5.31 -0.253849
5.32 -0.243183
5.33 -0.232669
5.34 -0.22244
5.35 -0.21263
5.36 -0.203369
5.37 -0.194794
5.38 -0.187102
5.39 -0.180315
5.4 -0.174507
5.41 -0.169731
5.42 -0.166017
5.43 -0.163367
5.44 -0.161827
5.45 -0.161321
5.46 -0.161721
5.47 -0.162929
5.48 -0.16483
5.49 -0.167294
5.5 -0.170183
5.51 -0.173365
5.52 -0.176648
5.53 -0.17989
5.54 -0.182957
5.55 -0.185727
5.56 -0.188091
5.57 -0.189928
5.58 -0.191154
5.59 -0.191756
5.6 -0.191708
5.61 -0.191002
5.62 -0.189649
5.63 -0.187674
5.64 -0.185059
5.65 -0.181915
5.66 -0.178299
5.67 -0.174269
5.68 -0.169876
5.69 -0.165168
5.7 -0.160174
5.71 -0.154915
5.72 -0.149425
5.73 -0.143701
5.74 -0.137728
5.75 -0.131476
5.76 -0.124905
5.77 -0.117922
5.78 -0.110491
5.79 -0.102555
5.8 -0.0940517
5.81 -0.0849221
5.82 -0.075114
5.83 -0.0645611
5.84 -0.0531965
5.85 -0.0410752
5.86 -0.0282102
5.87 -0.014635
5.88 -0.000403777
5.89 0.0144089
5.9 0.029741
5.91 0.0454378
5.92 0.0613546
5.93 0.0773514
5.94 0.0932811
5.95 0.108994
5.96 0.124333
5.97 0.1391
5.98 0.153207
5.99 0.166541
6 0.17901
6.01 0.190543
6.02 0.20109
6.03 0.210551
6.04 0.218966
6.05 0.226407
6.06 0.232926
6.07 0.238596
6.08 0.243504
6.09 0.247743
6.1 0.251383
6.11 0.254602
6.12 0.25751
6.13 0.260206
6.14 0.262781
6.15 0.265308
6.16 0.267846
6.17 0.270429
6.18 0.273063
6.19 0.275726
6.2 0.278376
6.21 0.280947
6.22 0.283352
6.23 0.285442
6.24 0.287118
6.25 0.288248
6.26 0.288699
6.27 0.288337
6.28 0.287033
6.29 0.284608
6.3 0.280931
6.31 0.275994
6.32 0.269739
6.33 0.262136
6.34 0.253181
6.35 0.242896
6.36 0.231207
6.37 0.218323
6.38 0.204367
6.39 0.189468
6.4 0.17377
6.41 0.157432
6.42 0.14061
6.43 0.123488
6.44 0.106269
6.45 0.0891131
6.46 0.0721713
6.47 0.0555779
6.48 0.0394489
6.49 0.0239385
6.5 0.0090813
6.51 -0.00509562
6.52 -0.018577
6.53 -0.0313714
6.54 -0.0435097
6.55 -0.0550264
6.56 -0.065971
6.57 -0.0764797
6.58 -0.0866462
6.59 -0.0965687
6.6 -0.106346
6.61 -0.116073
6.62 -0.125846
6.63 -0.135749
6.64 -0.145836
6.65 -0.156148
6.66 -0.166705
6.67 -0.177508
6.68 -0.188539
6.69 -0.199764
6.7 -0.211096
6.71 -0.222449
6.72 -0.233726
6.73 -0.244813
6.74 -0.25559
6.75 -0.265886
6.76 -0.275564
6.77 -0.284512
6.78 -0.292604
6.79 -0.299722
6.8 -0.305755
6.81 -0.310595
6.82 -0.314024
6.83 -0.316108
6.84 -0.316798
6.85 -0.316063
6.86 -0.313887
6.87 -0.310268
6.88 -0.305134
6.89 -0.298524
6.9 -0.290555
6.91 -0.281274
6.92 -0.270733
6.93 -0.258989
6.94 -0.2461
6.95 -0.232007
6.96 -0.216893
6.97 -0.200814
6.98 -0.183819
6.99 -0.165953
7 -0.147256
7.01 -0.127724
7.02 -0.107379
7.03 -0.0862992
7.04 -0.0645096
7.05 -0.0420323
7.06 -0.0188903
7.07 0.00489164
7.08 0.0293455
7.09 0.0543796
7.1 0.0799454
7.11 0.105995
7.12 0.132473
7.13 0.159315
7.14 0.186455
7.15 0.213804
7.16 0.241247
7.17 0.268681
7.18 0.295995
7.19 0.323074
7.2 0.349795
7.21 0.375977
7.22 0.401511
7.23 0.426283
7.24 0.450166
7.25 0.473041
7.26 0.494792
7.27 0.51527
7.28 0.534282
7.29 0.551849
7.3 0.567891
7.31 0.58234
7.32 0.595137
7.33 0.606235
7.34 0.615456
7.35 0.622849
7.36 0.628465
7.37 0.632298
7.38 0.634352
7.39 0.634638
7.4 0.633144
7.41 0.62975
7.42 0.62466
7.43 0.617903
7.44 0.609515
7.45 0.59953
7.46 0.587987
7.47 0.574821
7.48 0.560117
7.49 0.54399
7.5 0.526488
7.51 0.507662
7.52 0.487568
7.53 0.46626
7.54 0.443695
7.55 0.420079
7.56 0.395498
7.57 0.370044
7.58 0.343817
7.59 0.316929
7.6 0.289476
7.61 0.26161
7.62 0.2335
7.63 0.205296
7.64 0.17715
7.65 0.149223
7.66 0.121676
7.67 0.0947502
7.68 0.0685655
7.69 0.0432754
7.7 0.0190292
7.71 -0.00403287
7.72 -0.0257825
7.73 -0.0460326
7.74 -0.0646409
7.75 -0.0816334
7.76 -0.0969561
7.77 -0.110576
7.78 -0.122483
7.79 -0.132686
7.8 -0.141055
7.81 -0.147794
7.82 -0.153005
7.83 -0.156783
7.84 -0.159236
7.85 -0.160481
7.86 -0.160614
7.87 -0.159744
7.88 -0.158094
7.89 -0.155796
7.9 -0.152978
7.91 -0.149762
7.92 -0.146257
7.93 -0.142549
7.94 -0.13874
7.95 -0.134897
7.96 -0.131062
7.97 -0.127264
7.98 -0.123514
7.99 -0.119809
8 -0.116127
8.01 -0.112433
8.02 -0.108687
8.03 -0.104842
8.04 -0.100849
8.05 -0.0966611
8.06 -0.0922108
8.07 -0.0874659
8.08 -0.0824095
8.09 -0.0770269
8.1 -0.0713167
8.11 -0.065292
8.12 -0.0589775
8.13 -0.052402
8.14 -0.0456552
8.15 -0.0388109
8.16 -0.0319529
8.17 -0.0251733
8.18 -0.0185694
8.19 -0.0122662
8.2 -0.00637067
8.21 -0.0009601
8.22 0.00388264
8.23 0.00808657
8.24 0.0115952
8.25 0.0143664
8.26 0.0162954
8.27 0.0174706
8.28 0.0179163
8.29 0.0176763
8.3 0.016813
8.31 0.0154052
8.32 0.0135272
8.33 0.0112998
8.34 0.0088635
8.35 0.0063355
8.36 0.00383203
8.37 0.00146445
8.38 -0.000664596
8.39 -0.00242067
8.4 -0.00375878
8.41 -0.00463108
8.42 -0.00500825
8.43 -0.00488338
8.44 -0.00427245
8.45 -0.00319682
8.46 -0.00171861
8.47 4.51437e-05
8.48 0.00199236
8.49 0.00400759
8.5 0.00596564
8.51 0.00773561
8.52 0.00914067
8.53 0.0100635
8.54 0.0103908
8.55 0.0100152
8.56 0.00884498
8.57 0.00680719
8.58 0.00381722
8.59 -0.000201214
8.6 -0.00517045
8.61 -0.0110662
8.62 -0.0178416
8.63 -0.025429
8.64 -0.033742
8.65 -0.0427227
8.66 -0.0522052
8.67 -0.0620469
8.68 -0.0721202
8.69 -0.0822981
8.7 -0.0924583
8.71 -0.102481
8.72 -0.112236
8.73 -0.121654
8.74 -0.130667
8.75 -0.13923
8.76 -0.147312
8.77 -0.154903
8.78 -0.161978
8.79 -0.168583
8.8 -0.174783
8.81 -0.180632
8.82 -0.186192
8.83 -0.191531
8.84 -0.196718
8.85 -0.201818
8.86 -0.206907
8.87 -0.212036
8.88 -0.217245
8.89 -0.222561
8.9 -0.227997
8.91 -0.233556
8.92 -0.239215
8.93 -0.244932
8.94 -0.250659
8.95 -0.256338
8.96 -0.2619
8.97 -0.267274
8.98 -0.272344
8.99 -0.27706
9 -0.281352
9.01 -0.285157
9.02 -0.288421
9.03 -0.291103
9.04 -0.293141
9.05 -0.294515
9.06 -0.295269
9.07 -0.295423
9.08 -0.29501
9.09 -0.294075
9.1 -0.292675
9.11 -0.290837
9.12 -0.288678
9.13 -0.286273
9.14 -0.283694
9.15 -0.281007
9.16 -0.278271
9.17 -0.275541
9.18 -0.272863
9.19 -0.270262
9.2 -0.267748
9.21 -0.265323
9.22 -0.262972
9.23 -0.260672
9.24 -0.258385
9.25 -0.256064
9.26 -0.25366
9.27 -0.251125
9.28 -0.248411
9.29 -0.245475
9.3 -0.242271
9.31 -0.238755
9.32 -0.234937
9.33 -0.23082
9.34 -0.226419
9.35 -0.221763
9.36 -0.216898
9.37 -0.211873
9.38 -0.206774
9.39 -0.201685
9.4 -0.19669
9.41 -0.191874
9.42 -0.18732
9.43 -0.183118
9.44 -0.179373
9.45 -0.176107
9.46 -0.173356
9.47 -0.171138
9.48 -0.169452
9.49 -0.168274
9.5 -0.167589
9.51 -0.167301
9.52 -0.167299
9.53 -0.167472
9.54 -0.167692
9.55 -0.167823
9.56 -0.167715
9.57 -0.167162
9.58 -0.166045
9.59 -0.164223
9.6 -0.161565
9.61 -0.157957
9.62 -0.153301
9.63 -0.147447
9.64 -0.14035
9.65 -0.132051
9.66 -0.122556
9.67 -0.111899
9.68 -0.100134
9.69 -0.0873418
9.7 -0.0735255
9.71 -0.0589194
9.72 -0.0436546
9.73 -0.0278677
9.74 -0.0116978
9.75 0.00471795
9.76 0.0212475
9.77 0.0377534
9.78 0.0541261
9.79 0.0702794
9.8 0.0861461
9.81 0.101679
9.82 0.116852
9.83 0.131621
9.84 0.146038
9.85 0.16014
9.86 0.173974
9.87 0.187598
9.88 0.201073
9.89 0.214466
9.9 0.227848
9.91 0.241281
9.92 0.25481
9.93 0.268468
9.94 0.282272
9.95 0.296218
9.96 0.310295
9.97 0.324445
9.98 0.338598
9.99 0.352674
10 0.366572
10.01 0.380181
10.02 0.393364
10.03 0.405945
10.04 0.417833
10.05 0.428903
10.06 0.43904
10.07 0.448136
10.08 0.456105
10.09 0.462771
10.1 0.468141
10.11 0.472238
10.12 0.475068
10.13 0.476661
10.14 0.477073
10.15 0.476364
10.16 0.474565
10.17 0.471907
10.18 0.468524
10.19 0.464559
10.2 0.460165
10.21 0.455491
10.22 0.450688
10.23 0.445918
10.24 0.441315
10.25 0.43699
10.26 0.433037
10.27 0.429531
10.28 0.426529
10.29 0.424116
10.3 0.422241
10.31 0.420883
10.32 0.420005
10.33 0.419549
10.34 0.419445
10.35 0.419616
10.36 0.419952
10.37 0.420334
10.38 0.420658
10.39 0.420817
10.4 0.42071
10.41 0.42024
10.42 0.419255
10.43 0.417721
10.44 0.415572
10.45 0.412754
10.46 0.409222
10.47 0.404944
10.48 0.399862
10.49 0.393949
10.5 0.387256
10.51 0.379791
10.52 0.371567
10.53 0.3626
10.54 0.35291
10.55 0.34245
10.56 0.331307
10.57 0.319514
10.58 0.307094
10.59 0.294069
10.6 0.280461
10.61 0.266273
10.62 0.251506
10.63 0.236232
10.64 0.220475
10.65 0.204267
10.66 0.187641
10.67 0.170636
10.68 0.153271
10.69 0.135623
10.7 0.117757
10.71 0.0997346
10.72 0.0816217
10.73 0.0634875
10.74 0.0454067
10.75 0.0274691
10.76 0.00973967
10.77 -0.00771374
10.78 -0.0248284
10.79 -0.0415484
10.8 -0.0578261
10.81 -0.0735834
10.82 -0.0888129
10.83 -0.103522
10.84 -0.117712
10.85 -0.131398
10.86 -0.144606
10.87 -0.15737
10.88 -0.169712
10.89 -0.181734
10.9 -0.193503
10.91 -0.205086
10.92 -0.216555
10.93 -0.227977
10.94 -0.239422
10.95 -0.250956
10.96 -0.262621
10.97 -0.274452
10.98 -0.28647
10.99 -0.298682
11 -0.311078
11.01 -0.323646
11.02 -0.336322
11.03 -0.349047
11.04 -0.36175
11.05 -0.374349
11.06 -0.386752
11.07 -0.398839
11.08 -0.41049
11.09 -0.421622
11.1 -0.432135
11.11 -0.441934
11.12 -0.450933
11.13 -0.459055
11.14 -0.466125
11.15 -0.472187
11.16 -0.477213
11.17 -0.481184
11.18 -0.484097
11.19 -0.485962
11.2 -0.486756
11.21 -0.486497
11.22 -0.485303
11.23 -0.483228
11.24 -0.480333
11.25 -0.476679
11.26 -0.472327
11.27 -0.467282
11.28 -0.461656
11.29 -0.455511
11.3 -0.448887
11.31 -0.441819
11.32 -0.434332
11.33 -0.426426
11.34 -0.418091
11.35 -0.409356
11.36 -0.400213
11.37 -0.390646
11.38 -0.380637
11.39 -0.370166
11.4 -0.35917
11.41 -0.347659
11.42 -0.335632
11.43 -0.323085
11.44 -0.310019
11.45 -0.296442
11.46 -0.282363
11.47 -0.267784
11.48 -0.252791
11.49 -0.237434
11.5 -0.221773
11.51 -0.205875
11.52 -0.189812
11.53 -0.173662
11.54 -0.15752
11.55 -0.14147
11.56 -0.125594
11.57 -0.109968
11.58 -0.0946656
11.59 -0.0797595
11.6 -0.0653562
11.61 -0.0514625
11.62 -0.0381179
11.63 -0.0253522
11.64 -0.0131858
11.65 -0.00163007
11.66 0.00927213
11.67 0.0195371
11.68 0.0292097
11.69 0.0383085
11.7 0.0468562
11.71 0.054878
11.72 0.0623996
11.73 0.0693974
11.74 0.0759535
11.75 0.0820911
11.76 0.0878306
11.77 0.0931891
11.78 0.0981803
11.79 0.102795
11.8 0.107038
11.81 0.110935
11.82 0.114487
11.83 0.117692
11.84 0.12055
11.85 0.123058
11.86 0.125177
11.87 0.126943
11.88 0.128361
11.89 0.129436
11.9 0.130174
11.91 0.130586
11.92 0.130669
11.93 0.13043
11.94 0.129907
11.95 0.129114
11.96 0.128065
11.97 0.126772
11.98 0.125245
11.99 0.123467
12 0.121455
12.01 0.119209
12.02 0.116714
12.03 0.113952
12.04 0.110897
12.05 0.107502
12.06 0.103703
12.07 0.0994821
12.08 0.0947872
12.09 0.089564
12.1 0.0837566
12.11 0.0773088
12.12 0.0701025
12.13 0.0621195
12.14 0.0533388
12.15 0.0437259
12.16 0.0332556
12.17 0.0219145
12.18 0.00968329
