# xPDFsuite Configuration #
[PDF]
wavelength = 0.1
dataformat = QA
inputfile = BiMsol6_insitu_700 C-00472.xy
backgroundfile = Quartz2mm-dist500-00000.xy
mode = xray
bgscale = 0.0042
composition = Bi2Fe4O9
outputtype = gr
qmaxinst = 24.998449118
qmin = 0.1
qmax = 21.4986662415
rmax = 80.0
rmin = 0.0
rstep = 0.01
rpoly = 0.9

[Misc]
inputdir = C:/Data/Seafile/CPH/Beamtime/Desy Oct 20/In situ data/Processed/BiMsol6/PDF
savedir = C:/Data/Seafile/CPH/Beamtime/Desy Oct 20/In situ data/PDF/BiMsol6
backgroundfilefull = C:/Data/Seafile/CPH/Beamtime/Desy Oct 20/In situ data/Processed/Standard_Empty_Cap/Quartz2mm-dist500-00000.xy

#### start data
#S 1
#L r($\AA$)  G($\AA^{-2}$)
0 0
0.01 0.00578316
0.02 0.0112344
0.03 0.0160696
0.04 0.0200343
0.05 0.0229153
0.06 0.0245503
0.07 0.0247629
0.08 0.0235033
0.09 0.020905
0.1 0.0170786
0.11 0.0121946
0.12 0.00647538
0.13 0.000185876
0.14 -0.00637472
0.15 -0.0128357
0.16 -0.0188836
0.17 -0.0242254
0.18 -0.0285995
0.19 -0.031789
0.2 -0.033572
0.21 -0.0338007
0.22 -0.0325732
0.23 -0.0299584
0.24 -0.0260979
0.25 -0.0212009
0.26 -0.0155364
0.27 -0.00941425
0.28 -0.00326546
0.29 0.0025258
0.3 0.00758716
0.31 0.0115667
0.32 0.0141504
0.33 0.0150216
0.34 0.0138732
0.35 0.0107691
0.36 0.00572029
0.37 -0.00116358
0.38 -0.00967326
0.39 -0.019503
0.4 -0.0302941
0.41 -0.041454
0.42 -0.0524027
0.43 -0.0625497
0.44 -0.0712865
0.45 -0.0780091
0.46 -0.0820788
0.47 -0.0826712
0.48 -0.0796233
0.49 -0.0726107
0.5 -0.0614267
0.51 -0.0459957
0.52 -0.0263823
0.53 -0.00253434
0.54 0.025007
0.55 0.0555361
0.56 0.0883973
0.57 0.122827
0.58 0.157973
0.59 0.192911
0.6 0.226456
0.61 0.257694
0.62 0.285698
0.63 0.309603
0.64 0.328631
0.65 0.342117
0.66 0.34913
0.67 0.349301
0.68 0.342808
0.69 0.329664
0.7 0.31006
0.71 0.284358
0.72 0.253083
0.73 0.216437
0.74 0.175866
0.75 0.132307
0.76 0.0867528
0.77 0.0402327
0.78 -0.00621638
0.79 -0.0514751
0.8 -0.0944184
0.81 -0.134279
0.82 -0.170319
0.83 -0.201934
0.84 -0.228663
0.85 -0.250208
0.86 -0.265878
0.87 -0.27621
0.88 -0.281494
0.89 -0.282092
0.9 -0.278488
0.91 -0.27127
0.92 -0.261025
0.93 -0.2485
0.94 -0.234677
0.95 -0.220308
0.96 -0.206118
0.97 -0.192782
0.98 -0.180896
0.99 -0.17119
1 -0.16396
1.01 -0.159413
1.02 -0.157687
1.03 -0.158802
1.04 -0.162664
1.05 -0.16914
1.06 -0.178027
1.07 -0.188721
1.08 -0.200788
1.09 -0.213762
1.1 -0.227163
1.11 -0.240518
1.12 -0.253307
1.13 -0.265104
1.14 -0.2756
1.15 -0.284537
1.16 -0.291735
1.17 -0.297096
1.18 -0.300575
1.19 -0.302107
1.2 -0.302032
1.21 -0.300568
1.22 -0.297977
1.23 -0.294559
1.24 -0.290631
1.25 -0.286524
1.26 -0.282595
1.27 -0.279125
1.28 -0.276349
1.29 -0.274449
1.3 -0.273551
1.31 -0.273723
1.32 -0.275066
1.33 -0.277377
1.34 -0.280518
1.35 -0.284297
1.36 -0.288487
1.37 -0.29283
1.38 -0.297028
1.39 -0.300764
1.4 -0.30379
1.41 -0.305874
1.42 -0.306826
1.43 -0.306501
1.44 -0.304812
1.45 -0.301583
1.46 -0.297013
1.47 -0.291228
1.48 -0.284401
1.49 -0.276758
1.5 -0.268565
1.51 -0.260126
1.52 -0.251808
1.53 -0.243946
1.54 -0.236848
1.55 -0.2308
1.56 -0.226044
1.57 -0.222776
1.58 -0.221306
1.59 -0.22156
1.6 -0.223494
1.61 -0.227018
1.62 -0.231972
1.63 -0.238135
1.64 -0.245248
1.65 -0.252958
1.66 -0.260827
1.67 -0.268468
1.68 -0.275491
1.69 -0.281519
1.7 -0.286199
1.71 -0.289044
1.72 -0.289876
1.73 -0.288558
1.74 -0.28498
1.75 -0.279106
1.76 -0.270976
1.77 -0.260656
1.78 -0.24824
1.79 -0.23419
1.8 -0.218825
1.81 -0.202507
1.82 -0.185621
1.83 -0.168568
1.84 -0.151796
1.85 -0.135722
1.86 -0.120678
1.87 -0.106959
1.88 -0.0948024
1.89 -0.0843852
1.9 -0.0758418
1.91 -0.0693673
1.92 -0.0647157
1.93 -0.0617643
1.94 -0.0603305
1.95 -0.0601799
1.96 -0.0610371
1.97 -0.0626229
1.98 -0.0645572
1.99 -0.0664886
2 -0.0681145
2.01 -0.0691613
2.02 -0.0693963
2.03 -0.0686334
2.04 -0.0666197
2.05 -0.0634319
2.06 -0.0590981
2.07 -0.0537133
2.08 -0.0474368
2.09 -0.0404862
2.1 -0.033125
2.11 -0.0257139
2.12 -0.0186172
2.13 -0.0121887
2.14 -0.00678038
2.15 -0.00272872
2.16 -0.000341657
2.17 -0.00012207
2.18 -0.0020985
2.19 -0.00639381
2.2 -0.0130774
2.21 -0.0221472
2.22 -0.0335292
2.23 -0.0471669
2.24 -0.0628605
2.25 -0.0801714
2.26 -0.0987672
2.27 -0.118278
2.28 -0.138311
2.29 -0.158461
2.3 -0.178257
2.31 -0.197294
2.32 -0.215227
2.33 -0.231747
2.34 -0.246595
2.35 -0.25957
2.36 -0.270462
2.37 -0.2791
2.38 -0.285667
2.39 -0.290239
2.4 -0.292955
2.41 -0.294004
2.42 -0.29362
2.43 -0.291999
2.44 -0.289539
2.45 -0.286582
2.46 -0.283433
2.47 -0.280388
2.48 -0.277717
2.49 -0.27568
2.5 -0.274558
2.51 -0.274433
2.52 -0.275401
2.53 -0.277506
2.54 -0.280743
2.55 -0.28506
2.56 -0.290424
2.57 -0.296642
2.58 -0.303502
2.59 -0.310808
2.6 -0.318353
2.61 -0.325925
2.62 -0.333311
2.63 -0.340255
2.64 -0.346607
2.65 -0.352222
2.66 -0.356982
2.67 -0.360804
2.68 -0.363637
2.69 -0.365403
2.7 -0.366142
2.71 -0.365962
2.72 -0.364944
2.73 -0.363191
2.74 -0.360819
2.75 -0.357954
2.76 -0.354699
2.77 -0.351231
2.78 -0.347666
2.79 -0.344105
2.8 -0.34063
2.81 -0.337306
2.82 -0.334183
2.83 -0.331282
2.84 -0.328581
2.85 -0.32605
2.86 -0.323642
2.87 -0.321296
2.88 -0.318941
2.89 -0.316482
2.9 -0.313838
2.91 -0.310936
2.92 -0.307704
2.93 -0.304083
2.94 -0.300023
2.95 -0.295468
2.96 -0.290381
2.97 -0.284795
2.98 -0.278717
2.99 -0.272169
3 -0.265178
3.01 -0.257777
3.02 -0.249966
3.03 -0.241808
3.04 -0.233336
3.05 -0.224562
3.06 -0.215489
3.07 -0.206102
3.08 -0.196361
3.09 -0.186191
3.1 -0.175554
3.11 -0.164372
3.12 -0.152552
3.13 -0.139996
3.14 -0.126599
3.15 -0.11217
3.16 -0.0966494
3.17 -0.0799853
3.18 -0.0621106
3.19 -0.0429803
3.2 -0.0225748
3.21 -0.000878154
3.22 0.0221511
3.23 0.0463079
3.24 0.071475
3.25 0.0975029
3.26 0.124212
3.27 0.151394
3.28 0.178819
3.29 0.206194
3.3 0.233249
3.31 0.259715
3.32 0.285331
3.33 0.309842
3.34 0.332993
3.35 0.354389
3.36 0.373998
3.37 0.391669
3.38 0.407285
3.39 0.420769
3.4 0.43208
3.41 0.441081
3.42 0.447837
3.43 0.45254
3.44 0.4553
3.45 0.456245
3.46 0.45553
3.47 0.453319
3.48 0.449657
3.49 0.444892
3.5 0.4392
3.51 0.432753
3.52 0.425706
3.53 0.418203
3.54 0.410357
3.55 0.402285
3.56 0.394086
3.57 0.385823
3.58 0.377541
3.59 0.369266
3.6 0.361016
3.61 0.352796
3.62 0.344604
3.63 0.336435
3.64 0.328285
3.65 0.320158
3.66 0.312063
3.67 0.304024
3.68 0.296082
3.69 0.28828
3.7 0.280679
3.71 0.273352
3.72 0.266381
3.73 0.259861
3.74 0.253949
3.75 0.248722
3.76 0.244268
3.77 0.240684
3.78 0.238058
3.79 0.236469
3.8 0.236016
3.81 0.236817
3.82 0.238801
3.83 0.241972
3.84 0.246316
3.85 0.251797
3.86 0.258363
3.87 0.266018
3.88 0.274612
3.89 0.284009
3.9 0.294096
3.91 0.304753
3.92 0.315857
3.93 0.32729
3.94 0.338931
3.95 0.350638
3.96 0.362302
3.97 0.373827
3.98 0.385124
3.99 0.396115
4 0.406702
4.01 0.416831
4.02 0.42647
4.03 0.435581
4.04 0.444127
4.05 0.452077
4.06 0.459396
4.07 0.465981
4.08 0.471868
4.09 0.477022
4.1 0.481401
4.11 0.48496
4.12 0.487648
4.13 0.489354
4.14 0.490015
4.15 0.489626
4.16 0.48813
4.17 0.485474
4.18 0.481609
4.19 0.476496
4.2 0.469956
4.21 0.462111
4.22 0.452967
4.23 0.442536
4.24 0.430848
4.25 0.417951
4.26 0.403853
4.27 0.388624
4.28 0.372433
4.29 0.355383
4.3 0.337583
4.31 0.31915
4.32 0.300198
4.33 0.280811
4.34 0.261144
4.35 0.2413
4.36 0.221365
4.37 0.201413
4.38 0.181499
4.39 0.161669
4.4 0.141952
4.41 0.122344
4.42 0.102833
4.43 0.0833959
4.44 0.0639977
4.45 0.0445962
4.46 0.0251366
4.47 0.00557034
4.48 -0.0141431
4.49 -0.0340378
4.5 -0.054137
4.51 -0.07445
4.52 -0.0949751
4.53 -0.115693
4.54 -0.136537
4.55 -0.157438
4.56 -0.178312
4.57 -0.199054
4.58 -0.219548
4.59 -0.239625
4.6 -0.259145
4.61 -0.277983
4.62 -0.296
4.63 -0.313063
4.64 -0.32905
4.65 -0.343833
4.66 -0.357204
4.67 -0.369224
4.68 -0.379855
4.69 -0.389084
4.7 -0.396927
4.71 -0.403424
4.72 -0.408561
4.73 -0.41247
4.74 -0.415329
4.75 -0.41727
4.76 -0.41844
4.77 -0.41899
4.78 -0.419078
4.79 -0.418844
4.8 -0.418486
4.81 -0.418141
4.82 -0.417932
4.83 -0.417965
4.84 -0.418325
4.85 -0.4191
4.86 -0.420333
4.87 -0.422012
4.88 -0.424124
4.89 -0.426638
4.9 -0.429502
4.91 -0.43265
4.92 -0.436013
4.93 -0.439471
4.94 -0.442925
4.95 -0.446279
4.96 -0.449436
4.97 -0.452304
4.98 -0.454779
4.99 -0.456767
5 -0.458236
5.01 -0.459139
5.02 -0.459443
5.03 -0.459128
5.04 -0.458184
5.05 -0.456552
5.06 -0.454299
5.07 -0.451453
5.08 -0.448041
5.09 -0.444088
5.1 -0.439621
5.11 -0.434649
5.12 -0.429175
5.13 -0.423254
5.14 -0.416895
5.15 -0.410103
5.16 -0.402875
5.17 -0.395203
5.18 -0.387034
5.19 -0.378376
5.2 -0.369225
5.21 -0.359564
5.22 -0.349379
5.23 -0.338659
5.24 -0.327389
5.25 -0.315537
5.26 -0.303169
5.27 -0.290311
5.28 -0.276998
5.29 -0.263278
5.3 -0.249206
5.31 -0.234834
5.32 -0.220255
5.33 -0.205561
5.34 -0.190837
5.35 -0.176166
5.36 -0.161635
5.37 -0.147326
5.38 -0.133351
5.39 -0.11975
5.4 -0.10658
5.41 -0.0938854
5.42 -0.0817008
5.43 -0.0700486
5.44 -0.0589759
5.45 -0.048473
5.46 -0.0385008
5.47 -0.02904
5.48 -0.0200657
5.49 -0.0115494
5.5 -0.00346173
5.51 0.00418535
5.52 0.0114661
5.53 0.0184015
5.54 0.0250062
5.55 0.0312873
5.56 0.0372439
5.57 0.0428478
5.58 0.0480762
5.59 0.0529244
5.6 0.0573619
5.61 0.0613549
5.62 0.0648683
5.63 0.0678682
5.64 0.0702624
5.65 0.0720795
5.66 0.0733106
5.67 0.0739529
5.68 0.0740159
5.69 0.0735225
5.7 0.0724895
5.71 0.0709642
5.72 0.0690525
5.73 0.0668351
5.74 0.0644027
5.75 0.0618536
5.76 0.0592913
5.77 0.0568403
5.78 0.0546081
5.79 0.0526894
5.8 0.0511718
5.81 0.0501307
5.82 0.0496263
5.83 0.0497218
5.84 0.0504729
5.85 0.0518289
5.86 0.0537687
5.87 0.0562514
5.88 0.0592184
5.89 0.062595
5.9 0.0663124
5.91 0.0702414
5.92 0.0742672
5.93 0.0782835
5.94 0.082187
5.95 0.0858812
5.96 0.089272
5.97 0.092254
5.98 0.0948073
5.99 0.0969024
6 0.0985313
6.01 0.0997076
6.02 0.100466
6.03 0.100841
6.04 0.100931
6.05 0.100844
6.06 0.100684
6.07 0.100564
6.08 0.100597
6.09 0.1009
6.1 0.101628
6.11 0.102843
6.12 0.10462
6.13 0.107016
6.14 0.110068
6.15 0.113784
6.16 0.11819
6.17 0.123228
6.18 0.128791
6.19 0.134784
6.2 0.141092
6.21 0.147581
6.22 0.154105
6.23 0.160477
6.24 0.166536
6.25 0.172124
6.26 0.177093
6.27 0.181302
6.28 0.18463
6.29 0.186915
6.3 0.188057
6.31 0.188071
6.32 0.186934
6.33 0.18465
6.34 0.181251
6.35 0.176789
6.36 0.171251
6.37 0.164837
6.38 0.157676
6.39 0.149896
6.4 0.14163
6.41 0.133014
6.42 0.12418
6.43 0.115269
6.44 0.106412
6.45 0.0977104
6.46 0.0892486
6.47 0.0810944
6.48 0.0732963
6.49 0.0659217
6.5 0.0589518
6.51 0.0523672
6.52 0.0461426
6.53 0.0402403
6.54 0.0346132
6.55 0.0292127
6.56 0.0239839
6.57 0.0188528
6.58 0.013768
6.59 0.00868484
6.6 0.00356803
6.61 -0.00160683
6.62 -0.00685762
6.63 -0.0121774
6.64 -0.0175462
6.65 -0.022934
6.66 -0.0283001
6.67 -0.0335939
6.68 -0.0387539
6.69 -0.0436939
6.7 -0.0483624
6.71 -0.0526953
6.72 -0.0566317
6.73 -0.060117
6.74 -0.0631041
6.75 -0.0655152
6.76 -0.0673371
6.77 -0.0685828
6.78 -0.0692529
6.79 -0.0693595
6.8 -0.0689255
6.81 -0.0679791
6.82 -0.0665185
6.83 -0.0646445
6.84 -0.062406
6.85 -0.0598523
6.86 -0.0570305
6.87 -0.0539834
6.88 -0.0507378
6.89 -0.0473266
6.9 -0.0437765
6.91 -0.0400938
6.92 -0.0362744
6.93 -0.0323039
6.94 -0.028158
6.95 -0.0237759
6.96 -0.0191363
6.97 -0.0141942
6.98 -0.00890153
6.99 -0.00321054
7 0.00292436
7.01 0.00957024
7.02 0.0167735
7.03 0.0245239
7.04 0.0328333
7.05 0.0417014
7.06 0.0511157
7.07 0.0610508
7.08 0.0715134
7.09 0.0824029
7.1 0.0936496
7.11 0.105181
7.12 0.116919
7.13 0.128779
7.14 0.140671
7.15 0.152495
7.16 0.164164
7.17 0.175597
7.18 0.18672
7.19 0.197464
7.2 0.207771
7.21 0.217542
7.22 0.226765
7.23 0.235424
7.24 0.243498
7.25 0.250973
7.26 0.257843
7.27 0.26409
7.28 0.269676
7.29 0.274661
7.3 0.279046
7.31 0.28283
7.32 0.286012
7.33 0.288583
7.34 0.290478
7.35 0.291701
7.36 0.292249
7.37 0.292088
7.38 0.291181
7.39 0.289485
7.4 0.286943
7.41 0.283428
7.42 0.278982
7.43 0.273562
7.44 0.267133
7.45 0.259666
7.46 0.251139
7.47 0.241466
7.48 0.230676
7.49 0.218835
7.5 0.205973
7.51 0.192133
7.52 0.177371
7.53 0.161752
7.54 0.145286
7.55 0.128161
7.56 0.110479
7.57 0.0923517
7.58 0.0738936
7.59 0.0552239
7.6 0.0364658
7.61 0.0177585
7.62 -0.000775911
7.63 -0.0190234
7.64 -0.0368753
7.65 -0.0542291
7.66 -0.07099
7.67 -0.086986
7.68 -0.102205
7.69 -0.116584
7.7 -0.130065
7.71 -0.142598
7.72 -0.154142
7.73 -0.164616
7.74 -0.17397
7.75 -0.182261
7.76 -0.189483
7.77 -0.195635
7.78 -0.200726
7.79 -0.20477
7.8 -0.207687
7.81 -0.209597
7.82 -0.210552
7.83 -0.210597
7.84 -0.209781
7.85 -0.20816
7.86 -0.205774
7.87 -0.20267
7.88 -0.198984
7.89 -0.194795
7.9 -0.190184
7.91 -0.185239
7.92 -0.180045
7.93 -0.17468
7.94 -0.169249
7.95 -0.163836
7.96 -0.158513
7.97 -0.153347
7.98 -0.148398
7.99 -0.143721
8 -0.139379
8.01 -0.13537
8.02 -0.131705
8.03 -0.128386
8.04 -0.1254
8.05 -0.122727
8.06 -0.120354
8.07 -0.118224
8.08 -0.116281
8.09 -0.114473
8.1 -0.112751
8.11 -0.111063
8.12 -0.109361
8.13 -0.107592
8.14 -0.105725
8.15 -0.103735
8.16 -0.101608
8.17 -0.0993388
8.18 -0.0969354
8.19 -0.0944088
8.2 -0.091794
8.21 -0.089135
8.22 -0.0864765
8.23 -0.0838676
8.24 -0.0813592
8.25 -0.0790028
8.26 -0.0768721
8.27 -0.0749882
8.28 -0.0733809
8.29 -0.0720688
8.3 -0.0710574
8.31 -0.0703377
8.32 -0.069898
8.33 -0.0696909
8.34 -0.0696412
8.35 -0.0696761
8.36 -0.0697112
8.37 -0.0696523
8.38 -0.0693987
8.39 -0.0688021
8.4 -0.067779
8.41 -0.0662336
8.42 -0.0640762
8.43 -0.0612293
8.44 -0.0576308
8.45 -0.0531996
8.46 -0.0478904
8.47 -0.041766
8.48 -0.0348545
8.49 -0.0272072
8.5 -0.0188975
8.51 -0.0100194
8.52 -0.000652759
8.53 0.00902247
8.54 0.0188571
8.55 0.0287044
8.56 0.038416
8.57 0.0478465
8.58 0.0568391
8.59 0.0652259
8.6 0.0729385
8.61 0.0798919
8.62 0.0860235
8.63 0.0912953
8.64 0.0956943
8.65 0.099161
8.66 0.10179
8.67 0.103673
8.68 0.104894
8.69 0.105551
8.7 0.105758
8.71 0.105626
8.72 0.105277
8.73 0.104856
8.74 0.104471
8.75 0.104216
8.76 0.104167
8.77 0.104382
8.78 0.104917
8.79 0.105769
8.8 0.106902
8.81 0.10827
8.82 0.1098
8.83 0.111402
8.84 0.112964
8.85 0.114331
8.86 0.115376
8.87 0.115959
8.88 0.115946
8.89 0.115206
8.9 0.113623
8.91 0.111029
8.92 0.107346
8.93 0.102571
8.94 0.0966814
8.95 0.0896778
8.96 0.0815901
8.97 0.0724735
8.98 0.0623127
8.99 0.0513349
9 0.0396675
9.01 0.0274518
9.02 0.0148381
9.03 0.00198103
9.04 -0.0109619
9.05 -0.0238206
9.06 -0.0364571
9.07 -0.0487531
9.08 -0.0606094
9.09 -0.0719486
9.1 -0.082717
9.11 -0.0928205
9.12 -0.102316
9.13 -0.111235
9.14 -0.119622
9.15 -0.127541
9.16 -0.135067
9.17 -0.14228
9.18 -0.149278
9.19 -0.156175
9.2 -0.163059
9.21 -0.170006
9.22 -0.177081
9.23 -0.184329
9.24 -0.191796
9.25 -0.199467
9.26 -0.207314
9.27 -0.215287
9.28 -0.223317
9.29 -0.231312
9.3 -0.239157
9.31 -0.246697
9.32 -0.253811
9.33 -0.260363
9.34 -0.266215
9.35 -0.271234
9.36 -0.275298
9.37 -0.278201
9.38 -0.2799
9.39 -0.280366
9.4 -0.279562
9.41 -0.277471
9.42 -0.274106
9.43 -0.269478
9.44 -0.26357
9.45 -0.256585
9.46 -0.24863
9.47 -0.239821
9.48 -0.230286
9.49 -0.220157
9.5 -0.209543
9.51 -0.198605
9.52 -0.187478
9.53 -0.176267
9.54 -0.165059
9.55 -0.153924
9.56 -0.14291
9.57 -0.13206
9.58 -0.121359
9.59 -0.110786
9.6 -0.1003
9.61 -0.0898465
9.62 -0.0793564
9.63 -0.0687391
9.64 -0.0578995
9.65 -0.0467607
9.66 -0.0352432
9.67 -0.0232757
9.68 -0.0107984
9.69 0.00223323
9.7 0.0159149
9.71 0.0301848
9.72 0.0450242
9.73 0.060394
9.74 0.0762357
9.75 0.0924719
9.76 0.109018
9.77 0.125753
9.78 0.142535
9.79 0.15924
9.8 0.175739
9.81 0.191904
9.82 0.207616
9.83 0.22269
9.84 0.237071
9.85 0.250685
9.86 0.263465
9.87 0.275367
9.88 0.286362
9.89 0.296402
9.9 0.305467
9.91 0.313654
9.92 0.321004
9.93 0.327569
9.94 0.333407
9.95 0.338581
9.96 0.343107
9.97 0.347097
9.98 0.350621
9.99 0.353729
10 0.356461
10.01 0.358844
10.02 0.360886
10.03 0.362572
10.04 0.36392
10.05 0.364909
10.06 0.365511
10.07 0.365687
10.08 0.365399
10.09 0.364559
10.1 0.363144
10.11 0.361139
10.12 0.358514
10.13 0.355252
10.14 0.351347
10.15 0.346795
10.16 0.341573
10.17 0.335785
10.18 0.329485
10.19 0.322743
10.2 0.315639
10.21 0.308266
10.22 0.300718
10.23 0.293118
10.24 0.285578
10.25 0.278203
10.26 0.271088
10.27 0.264324
10.28 0.257991
10.29 0.252209
10.3 0.246971
10.31 0.242303
10.32 0.23821
10.33 0.234679
10.34 0.231679
10.35 0.229186
10.36 0.227122
10.37 0.225378
10.38 0.223862
10.39 0.222472
10.4 0.221106
10.41 0.219656
10.42 0.217985
10.43 0.216005
10.44 0.213627
10.45 0.210769
10.46 0.207364
10.47 0.203357
10.48 0.198673
10.49 0.193273
10.5 0.187192
10.51 0.180436
10.52 0.173023
10.53 0.164981
10.54 0.156347
10.55 0.147114
10.56 0.137384
10.57 0.127217
10.58 0.116663
10.59 0.105772
10.6 0.0945877
10.61 0.0831428
10.62 0.0714661
10.63 0.0596027
10.64 0.0475714
10.65 0.0353848
10.66 0.0230494
10.67 0.0105672
10.68 -0.0020775
10.69 -0.0148798
10.7 -0.0278406
10.71 -0.0409635
10.72 -0.0542493
10.73 -0.0676951
10.74 -0.0812968
10.75 -0.0950465
10.76 -0.108909
10.77 -0.122855
10.78 -0.136851
10.79 -0.150855
10.8 -0.164823
10.81 -0.178694
10.82 -0.192414
10.83 -0.205934
10.84 -0.219205
10.85 -0.232179
10.86 -0.244813
10.87 -0.257066
10.88 -0.268871
10.89 -0.28025
10.9 -0.291194
10.91 -0.301705
10.92 -0.311794
10.93 -0.321479
10.94 -0.330764
10.95 -0.339697
10.96 -0.348335
10.97 -0.35672
10.98 -0.364895
10.99 -0.372901
11 -0.380775
11.01 -0.388542
11.02 -0.396237
11.03 -0.403873
11.04 -0.411452
11.05 -0.418964
11.06 -0.426389
11.07 -0.433681
11.08 -0.440789
11.09 -0.447662
11.1 -0.454232
11.11 -0.460427
11.12 -0.466167
11.13 -0.47137
11.14 -0.475878
11.15 -0.479667
11.16 -0.482668
11.17 -0.484814
11.18 -0.486046
11.19 -0.48632
11.2 -0.485554
11.21 -0.483702
11.22 -0.48083
11.23 -0.476951
11.24 -0.472088
11.25 -0.466278
11.26 -0.459569
11.27 -0.451943
11.28 -0.44354
11.29 -0.434449
11.3 -0.424743
11.31 -0.414498
11.32 -0.403786
11.33 -0.392664
11.34 -0.381188
11.35 -0.369441
11.36 -0.357467
11.37 -0.345299
11.38 -0.332961
11.39 -0.320464
11.4 -0.307795
11.41 -0.294955
11.42 -0.281931
11.43 -0.268697
11.44 -0.255226
11.45 -0.241486
11.46 -0.227437
11.47 -0.213022
11.48 -0.198243
11.49 -0.18308
11.5 -0.16752
11.51 -0.151558
11.52 -0.1352
11.53 -0.118434
11.54 -0.101306
11.55 -0.0838716
11.56 -0.0661797
11.57 -0.0482899
11.58 -0.0302695
11.59 -0.0121926
11.6 0.00584959
11.61 0.0237702
11.62 0.041486
11.63 0.058915
11.64 0.0759784
11.65 0.0926023
11.66 0.108682
11.67 0.124157
11.68 0.139007
11.69 0.153195
11.7 0.166693
11.71 0.179485
11.72 0.191563
11.73 0.202854
11.74 0.213456
11.75 0.223393
11.76 0.232695
11.77 0.241399
11.78 0.249544
11.79 0.257145
11.8 0.264247
11.81 0.270923
11.82 0.27721
11.83 0.283139
11.84 0.288738
11.85 0.294028
11.86 0.298988
11.87 0.303654
11.88 0.308021
11.89 0.312076
11.9 0.315797
11.91 0.319153
11.92 0.32209
11.93 0.324544
11.94 0.326497
11.95 0.327895
11.96 0.328684
11.97 0.328807
11.98 0.328207
11.99 0.326749
12 0.324434
12.01 0.321231
12.02 0.317095
12.03 0.31199
12.04 0.305885
12.05 0.298724
12.06 0.290437
12.07 0.281105
12.08 0.270735
12.09 0.259339
12.1 0.24694
12.11 0.23357
12.12 0.219191
12.13 0.203911
12.14 0.187816
12.15 0.170972
12.16 0.153449
12.17 0.135325
12.18 0.116673
12.19 0.0975595
