# xPDFsuite Configuration #
[PDF]
wavelength = 0.1
dataformat = QA
inputfile = BiMsol6_insitu_700 C-00135.xy
backgroundfile = Quartz2mm-dist500-00000.xy
mode = xray
bgscale = 0.0042
composition = Bi2Fe4O9
outputtype = gr
qmaxinst = 24.998449118
qmin = 0.1
qmax = 21.4986662415
rmax = 80.0
rmin = 0.0
rstep = 0.01
rpoly = 0.9

[Misc]
inputdir = C:/Data/Seafile/CPH/Beamtime/Desy Oct 20/In situ data/Processed/BiMsol6/PDF
savedir = C:/Data/Seafile/CPH/Beamtime/Desy Oct 20/In situ data/PDF/BiMsol6
backgroundfilefull = C:/Data/Seafile/CPH/Beamtime/Desy Oct 20/In situ data/Processed/Standard_Empty_Cap/Quartz2mm-dist500-00000.xy

#### start data
#S 1
#L r($\AA$)  G($\AA^{-2}$)
0 0
0.01 0.00616083
0.02 0.011974
0.03 0.0171419
0.04 0.0213977
0.05 0.0245177
0.06 0.0263314
0.07 0.0266527
0.08 0.0254282
0.09 0.0227963
0.1 0.0188713
0.11 0.0138299
0.12 0.00790369
0.13 0.0013683
0.14 -0.00546559
0.15 -0.0122094
0.16 -0.018535
0.17 -0.0241351
0.18 -0.0287346
0.19 -0.0321043
0.2 -0.0340093
0.21 -0.0342907
0.22 -0.0330461
0.23 -0.0303424
0.24 -0.0263219
0.25 -0.0211977
0.26 -0.015245
0.27 -0.00877862
0.28 -0.00224564
0.29 0.00395588
0.3 0.00943997
0.31 0.0138408
0.32 0.0168305
0.33 0.0180782
0.34 0.0172616
0.35 0.0144378
0.36 0.00961043
0.37 0.00288445
0.38 -0.00553317
0.39 -0.0153363
0.4 -0.0261684
0.41 -0.0374274
0.42 -0.0485236
0.43 -0.0588578
0.44 -0.0678112
0.45 -0.0747695
0.46 -0.0790837
0.47 -0.0799181
0.48 -0.0771011
0.49 -0.0703018
0.5 -0.0593088
0.51 -0.0440443
0.52 -0.0245733
0.53 -0.000845253
0.54 0.026592
0.55 0.057024
0.56 0.0897853
0.57 0.124101
0.58 0.159109
0.59 0.193869
0.6 0.227181
0.61 0.258122
0.62 0.285759
0.63 0.309219
0.64 0.32772
0.65 0.340594
0.66 0.346911
0.67 0.346306
0.68 0.338971
0.69 0.324933
0.7 0.304398
0.71 0.277744
0.72 0.245516
0.73 0.207941
0.74 0.166486
0.75 0.122109
0.76 0.0758206
0.77 0.0286693
0.78 -0.0182925
0.79 -0.0639255
0.8 -0.107092
0.81 -0.147027
0.82 -0.182993
0.83 -0.214384
0.84 -0.240749
0.85 -0.261793
0.86 -0.276829
0.87 -0.286418
0.88 -0.290867
0.89 -0.290554
0.9 -0.285979
0.91 -0.277748
0.92 -0.266457
0.93 -0.252873
0.94 -0.237985
0.95 -0.222557
0.96 -0.207319
0.97 -0.192945
0.98 -0.180036
0.99 -0.169316
1 -0.161079
1.01 -0.155525
1.02 -0.152785
1.03 -0.152871
1.04 -0.155685
1.05 -0.161085
1.06 -0.168865
1.07 -0.178422
1.08 -0.189324
1.09 -0.20111
1.1 -0.213307
1.11 -0.225455
1.12 -0.23705
1.13 -0.247685
1.14 -0.257069
1.15 -0.264965
1.16 -0.271214
1.17 -0.27574
1.18 -0.278519
1.19 -0.279518
1.2 -0.279077
1.21 -0.277422
1.22 -0.274823
1.23 -0.271578
1.24 -0.267998
1.25 -0.264414
1.26 -0.261158
1.27 -0.25848
1.28 -0.256586
1.29 -0.255629
1.3 -0.255697
1.31 -0.256822
1.32 -0.259056
1.33 -0.262164
1.34 -0.265971
1.35 -0.270255
1.36 -0.274761
1.37 -0.27921
1.38 -0.283277
1.39 -0.286638
1.4 -0.28906
1.41 -0.290322
1.42 -0.290251
1.43 -0.28873
1.44 -0.285704
1.45 -0.281026
1.46 -0.274959
1.47 -0.267673
1.48 -0.25939
1.49 -0.250385
1.5 -0.240972
1.51 -0.231508
1.52 -0.222408
1.53 -0.214025
1.54 -0.206691
1.55 -0.200703
1.56 -0.19631
1.57 -0.193705
1.58 -0.193206
1.59 -0.194691
1.6 -0.198074
1.61 -0.203224
1.62 -0.209934
1.63 -0.217926
1.64 -0.226885
1.65 -0.236389
1.66 -0.245941
1.67 -0.255099
1.68 -0.263422
1.69 -0.270485
1.7 -0.275899
1.71 -0.279114
1.72 -0.27995
1.73 -0.278272
1.74 -0.273971
1.75 -0.267022
1.76 -0.257487
1.77 -0.245457
1.78 -0.231052
1.79 -0.214807
1.8 -0.197093
1.81 -0.178326
1.82 -0.15895
1.83 -0.13942
1.84 -0.120249
1.85 -0.101909
1.86 -0.0847719
1.87 -0.0691714
1.88 -0.0553775
1.89 -0.0435885
1.9 -0.0339571
1.91 -0.0267085
1.92 -0.0215616
1.93 -0.01838
1.94 -0.0169596
1.95 -0.0170381
1.96 -0.0183068
1.97 -0.0204562
1.98 -0.0230571
1.99 -0.0257097
2 -0.02807
2.01 -0.029825
2.02 -0.0307054
2.03 -0.0304922
2.04 -0.0288887
2.05 -0.025963
2.06 -0.0217289
2.07 -0.0162739
2.08 -0.00975592
2.09 -0.00239731
2.1 0.00553608
2.11 0.0136656
2.12 0.0215972
2.13 0.0289536
2.14 0.0353572
2.15 0.0404455
2.16 0.043884
2.17 0.0451412
2.18 0.0441645
2.19 0.0408117
2.2 0.0349974
2.21 0.026712
2.22 0.0160219
2.23 0.00297627
2.24 -0.0122253
2.25 -0.0291311
2.26 -0.0473983
2.27 -0.0666444
2.28 -0.0864604
2.29 -0.106424
2.3 -0.126045
2.31 -0.144898
2.32 -0.162621
2.33 -0.178888
2.34 -0.193426
2.35 -0.206025
2.36 -0.216463
2.37 -0.22456
2.38 -0.230505
2.39 -0.234379
2.4 -0.236325
2.41 -0.236542
2.42 -0.235276
2.43 -0.232733
2.44 -0.229332
2.45 -0.22543
2.46 -0.221349
2.47 -0.217398
2.48 -0.213863
2.49 -0.211016
2.5 -0.209153
2.51 -0.208357
2.52 -0.208727
2.53 -0.210309
2.54 -0.213096
2.55 -0.217029
2.56 -0.222073
2.57 -0.228021
2.58 -0.234646
2.59 -0.241742
2.6 -0.249087
2.61 -0.256456
2.62 -0.263623
2.63 -0.270317
2.64 -0.276381
2.65 -0.281663
2.66 -0.28604
2.67 -0.289426
2.68 -0.291772
2.69 -0.293
2.7 -0.293157
2.71 -0.292362
2.72 -0.290708
2.73 -0.288308
2.74 -0.285293
2.75 -0.281801
2.76 -0.277952
2.77 -0.273936
2.78 -0.269877
2.79 -0.265887
2.8 -0.262056
2.81 -0.25845
2.82 -0.255129
2.83 -0.25211
2.84 -0.249364
2.85 -0.246853
2.86 -0.244522
2.87 -0.242299
2.88 -0.240101
2.89 -0.237822
2.9 -0.235367
2.91 -0.23265
2.92 -0.229591
2.93 -0.226126
2.94 -0.222203
2.95 -0.217767
2.96 -0.212791
2.97 -0.207322
2.98 -0.201391
2.99 -0.195044
3 -0.188341
3.01 -0.181357
3.02 -0.174158
3.03 -0.166852
3.04 -0.159523
3.05 -0.152245
3.06 -0.145082
3.07 -0.138085
3.08 -0.131294
3.09 -0.124735
3.1 -0.118381
3.11 -0.112205
3.12 -0.106158
3.13 -0.100177
3.14 -0.0941826
3.15 -0.0880684
3.16 -0.08173
3.17 -0.0750708
3.18 -0.0679927
3.19 -0.0604039
3.2 -0.0522228
3.21 -0.0433668
3.22 -0.0337266
3.23 -0.0233402
3.24 -0.0122012
3.25 -0.00032422
3.26 0.0122561
3.27 0.025486
3.28 0.0393313
3.29 0.0536764
3.3 0.0683996
3.31 0.0833983
3.32 0.0985687
3.33 0.113809
3.34 0.129023
3.35 0.144107
3.36 0.158996
3.37 0.173639
3.38 0.188002
3.39 0.202066
3.4 0.215835
3.41 0.229309
3.42 0.242532
3.43 0.255564
3.44 0.268463
3.45 0.281286
3.46 0.294093
3.47 0.306941
3.48 0.31989
3.49 0.332968
3.5 0.346188
3.51 0.35955
3.52 0.37303
3.53 0.386583
3.54 0.40014
3.55 0.413597
3.56 0.426844
3.57 0.439756
3.58 0.452194
3.59 0.464013
3.6 0.475061
3.61 0.485076
3.62 0.493986
3.63 0.501671
3.64 0.508014
3.65 0.512919
3.66 0.516309
3.67 0.51807
3.68 0.51812
3.69 0.516589
3.7 0.513511
3.71 0.508947
3.72 0.502981
3.73 0.495716
3.74 0.487174
3.75 0.477589
3.76 0.467133
3.77 0.455951
3.78 0.444192
3.79 0.431997
3.8 0.419495
3.81 0.406812
3.82 0.394079
3.83 0.381382
3.84 0.368794
3.85 0.35637
3.86 0.344145
3.87 0.332162
3.88 0.320415
3.89 0.30889
3.9 0.297571
3.91 0.286436
3.92 0.275458
3.93 0.264614
3.94 0.253885
3.95 0.243238
3.96 0.232661
3.97 0.222147
3.98 0.211696
3.99 0.201319
4 0.191039
4.01 0.180879
4.02 0.170865
4.03 0.161028
4.04 0.151399
4.05 0.142008
4.06 0.132886
4.07 0.124086
4.08 0.115591
4.09 0.107405
4.1 0.0995246
4.11 0.0919349
4.12 0.0846125
4.13 0.077537
4.14 0.0706611
4.15 0.0639251
4.16 0.0572797
4.17 0.0506745
4.18 0.0440611
4.19 0.0373954
4.2 0.0306266
4.21 0.0237353
4.22 0.0167077
4.23 0.00954248
4.24 0.00225161
4.25 -0.00513906
4.26 -0.0125905
4.27 -0.0200417
4.28 -0.0274237
4.29 -0.034663
4.3 -0.0416809
4.31 -0.0483963
4.32 -0.0547287
4.33 -0.0605482
4.34 -0.0658204
4.35 -0.0704979
4.36 -0.0745403
4.37 -0.0779235
4.38 -0.0806411
4.39 -0.0826824
4.4 -0.0840609
4.41 -0.0848835
4.42 -0.0852226
4.43 -0.0851654
4.44 -0.0848113
4.45 -0.0842683
4.46 -0.0836539
4.47 -0.0831009
4.48 -0.0827212
4.49 -0.0826171
4.5 -0.0828789
4.51 -0.0835822
4.52 -0.0847988
4.53 -0.0866018
4.54 -0.0889541
4.55 -0.0918423
4.56 -0.0952301
4.57 -0.0990605
4.58 -0.103257
4.59 -0.107738
4.6 -0.112371
4.61 -0.117025
4.62 -0.12158
4.63 -0.12591
4.64 -0.129899
4.65 -0.133426
4.66 -0.136337
4.67 -0.138602
4.68 -0.140166
4.69 -0.140993
4.7 -0.14107
4.71 -0.140408
4.72 -0.138999
4.73 -0.136923
4.74 -0.134295
4.75 -0.131214
4.76 -0.127791
4.77 -0.124144
4.78 -0.120401
4.79 -0.116706
4.8 -0.11319
4.81 -0.109968
4.82 -0.107143
4.83 -0.104802
4.84 -0.103019
4.85 -0.101883
4.86 -0.10143
4.87 -0.10163
4.88 -0.10247
4.89 -0.10392
4.9 -0.105929
4.91 -0.108435
4.92 -0.1114
4.93 -0.114687
4.94 -0.118201
4.95 -0.121853
4.96 -0.12555
4.97 -0.129208
4.98 -0.132739
4.99 -0.136062
5 -0.13913
5.01 -0.141904
5.02 -0.144354
5.03 -0.146464
5.04 -0.148233
5.05 -0.149638
5.06 -0.150729
5.07 -0.15154
5.08 -0.152108
5.09 -0.152472
5.1 -0.152671
5.11 -0.152743
5.12 -0.152727
5.13 -0.152666
5.14 -0.152585
5.15 -0.152506
5.16 -0.152443
5.17 -0.152402
5.18 -0.152385
5.19 -0.152382
5.2 -0.152381
5.21 -0.152364
5.22 -0.152312
5.23 -0.152206
5.24 -0.152023
5.25 -0.151737
5.26 -0.15134
5.27 -0.15082
5.28 -0.150171
5.29 -0.149392
5.3 -0.148484
5.31 -0.147448
5.32 -0.146301
5.33 -0.145063
5.34 -0.143751
5.35 -0.142383
5.36 -0.140977
5.37 -0.139549
5.38 -0.138111
5.39 -0.136676
5.4 -0.135247
5.41 -0.133823
5.42 -0.132397
5.43 -0.13096
5.44 -0.129493
5.45 -0.127972
5.46 -0.126377
5.47 -0.124684
5.48 -0.122869
5.49 -0.120909
5.5 -0.118784
5.51 -0.116459
5.52 -0.113943
5.53 -0.111235
5.54 -0.108342
5.55 -0.105276
5.56 -0.10206
5.57 -0.0987147
5.58 -0.0952816
5.59 -0.0918082
5.6 -0.088338
5.61 -0.0849163
5.62 -0.0815878
5.63 -0.0783945
5.64 -0.0753965
5.65 -0.0726097
5.66 -0.0700533
5.67 -0.0677385
5.68 -0.0656656
5.69 -0.0638239
5.7 -0.0621988
5.71 -0.0607557
5.72 -0.0594341
5.73 -0.05818
5.74 -0.0569329
5.75 -0.0556283
5.76 -0.0542002
5.77 -0.0525586
5.78 -0.0506506
5.79 -0.048427
5.8 -0.0458441
5.81 -0.0428698
5.82 -0.0394852
5.83 -0.0356724
5.84 -0.0314255
5.85 -0.0268098
5.86 -0.0218703
5.87 -0.0166655
5.88 -0.0112653
5.89 -0.00574901
5.9 -0.000207796
5.91 0.00525611
5.92 0.0105533
5.93 0.0155993
5.94 0.020317
5.95 0.0246401
5.96 0.0285046
5.97 0.0318354
5.98 0.0346611
5.99 0.0369859
6 0.0388333
6.01 0.0402451
6.02 0.0412808
6.03 0.0419999
6.04 0.0425145
6.05 0.0429375
6.06 0.0433751
6.07 0.0439351
6.08 0.044723
6.09 0.0458429
6.1 0.0474332
6.11 0.0495285
6.12 0.0521825
6.13 0.0554292
6.14 0.059281
6.15 0.063728
6.16 0.06877
6.17 0.074335
6.18 0.0803131
6.19 0.0866068
6.2 0.0931041
6.21 0.0996824
6.22 0.106212
6.23 0.112524
6.24 0.118499
6.25 0.124014
6.26 0.128959
6.27 0.133239
6.28 0.136776
6.29 0.13947
6.3 0.141275
6.31 0.14224
6.32 0.142384
6.33 0.141748
6.34 0.140397
6.35 0.138411
6.36 0.135844
6.37 0.13287
6.38 0.129614
6.39 0.1262
6.4 0.122749
6.41 0.119378
6.42 0.116207
6.43 0.113353
6.44 0.110875
6.45 0.108831
6.46 0.107256
6.47 0.106169
6.48 0.105566
6.49 0.105462
6.5 0.105776
6.51 0.106436
6.52 0.107366
6.53 0.108485
6.54 0.109702
6.55 0.110922
6.56 0.112038
6.57 0.112965
6.58 0.113626
6.59 0.113957
6.6 0.113905
6.61 0.113433
6.62 0.112482
6.63 0.11107
6.64 0.109227
6.65 0.106982
6.66 0.104377
6.67 0.101464
6.68 0.0983032
6.69 0.0949562
6.7 0.0915169
6.71 0.0880557
6.72 0.0846399
6.73 0.0813308
6.74 0.078182
6.75 0.0752549
6.76 0.0725796
6.77 0.0701646
6.78 0.068016
6.79 0.0661281
6.8 0.0644845
6.81 0.0630607
6.82 0.0618366
6.83 0.0607478
6.84 0.05975
6.85 0.0587978
6.86 0.057847
6.87 0.0568567
6.88 0.0557843
6.89 0.0545978
6.9 0.0532825
6.91 0.051828
6.92 0.0502331
6.93 0.0485053
6.94 0.0466601
6.95 0.044713
6.96 0.0427068
6.97 0.0406757
6.98 0.038655
6.99 0.0366803
7 0.0347849
7.01 0.033005
7.02 0.031369
7.03 0.0298839
7.04 0.0285557
7.05 0.0273812
7.06 0.0263483
7.07 0.0254353
7.08 0.0246179
7.09 0.0238453
7.1 0.0230717
7.11 0.0222487
7.12 0.0213261
7.13 0.0202543
7.14 0.0189765
7.15 0.0174362
7.16 0.015616
7.17 0.013492
7.18 0.0110505
7.19 0.00828968
7.2 0.00522007
7.21 0.00184152
7.22 -0.00178517
7.23 -0.00560324
7.24 -0.00955305
7.25 -0.0135667
7.26 -0.0175701
7.27 -0.0214801
7.28 -0.0251963
7.29 -0.0286498
7.3 -0.0317672
7.31 -0.0344816
7.32 -0.0367353
7.33 -0.0384812
7.34 -0.0396393
7.35 -0.0402133
7.36 -0.0402211
7.37 -0.0396757
7.38 -0.0386047
7.39 -0.0370496
7.4 -0.0350584
7.41 -0.0326759
7.42 -0.0300206
7.43 -0.0271758
7.44 -0.0242287
7.45 -0.0212681
7.46 -0.0183819
7.47 -0.0156715
7.48 -0.0132222
7.49 -0.0110947
7.5 -0.00934794
7.51 -0.00802939
7.52 -0.0071744
7.53 -0.00680837
7.54 -0.00699239
7.55 -0.00766499
7.56 -0.00880702
7.57 -0.0103882
7.58 -0.0123682
7.59 -0.0146985
7.6 -0.0173372
7.61 -0.0202136
7.62 -0.0232468
7.63 -0.026372
7.64 -0.029525
7.65 -0.0326444
7.66 -0.0356728
7.67 -0.0385367
7.68 -0.0412027
7.69 -0.043635
7.7 -0.0458052
7.71 -0.0476928
7.72 -0.0492854
7.73 -0.0505647
7.74 -0.0515292
7.75 -0.0522115
7.76 -0.0526299
7.77 -0.0528074
7.78 -0.0527717
7.79 -0.0525532
7.8 -0.0521736
7.81 -0.0516834
7.82 -0.0511194
7.83 -0.0505151
7.84 -0.0499024
7.85 -0.0493106
7.86 -0.0487687
7.87 -0.048305
7.88 -0.0479328
7.89 -0.047665
7.9 -0.0475097
7.91 -0.0474704
7.92 -0.0475456
7.93 -0.0477379
7.94 -0.0480279
7.95 -0.0483967
7.96 -0.0488246
7.97 -0.0492888
7.98 -0.049764
7.99 -0.0502213
8 -0.0506256
8.01 -0.0509496
8.02 -0.0511651
8.03 -0.0512453
8.04 -0.0511656
8.05 -0.0509049
8.06 -0.0504291
8.07 -0.0497331
8.08 -0.0488191
8.09 -0.0476876
8.1 -0.0463458
8.11 -0.0448071
8.12 -0.0430897
8.13 -0.041211
8.14 -0.0392229
8.15 -0.0371647
8.16 -0.0350799
8.17 -0.0330154
8.18 -0.0310199
8.19 -0.0291544
8.2 -0.0274719
8.21 -0.0260118
8.22 -0.024815
8.23 -0.0239167
8.24 -0.0233453
8.25 -0.0231217
8.26 -0.023296
8.27 -0.023826
8.28 -0.0246987
8.29 -0.0258904
8.3 -0.027367
8.31 -0.0290847
8.32 -0.0309976
8.33 -0.0330357
8.34 -0.0351203
8.35 -0.03718
8.36 -0.0391415
8.37 -0.0409323
8.38 -0.0424823
8.39 -0.0436862
8.4 -0.0445126
8.41 -0.0449167
8.42 -0.0448627
8.43 -0.0443263
8.44 -0.0432964
8.45 -0.0417538
8.46 -0.039706
8.47 -0.0372208
8.48 -0.0343425
8.49 -0.0311265
8.5 -0.0276369
8.51 -0.0239451
8.52 -0.0201228
8.53 -0.0162675
8.54 -0.0124595
8.55 -0.00877389
8.56 -0.00527999
8.57 -0.00203959
8.58 0.000883125
8.59 0.00342619
8.6 0.00559042
8.61 0.00736368
8.62 0.00874706
8.63 0.00975457
8.64 0.0104123
8.65 0.0107343
8.66 0.0107921
8.67 0.0106502
8.68 0.0103689
8.69 0.0100106
8.7 0.0096374
8.71 0.00931167
8.72 0.00910194
8.73 0.00904909
8.74 0.00919034
8.75 0.0095527
8.76 0.0101521
8.77 0.0109932
8.78 0.0120852
8.79 0.013398
8.8 0.0148913
8.81 0.0165263
8.82 0.0182578
8.83 0.0200357
8.84 0.0218069
8.85 0.0235071
8.86 0.0250883
8.87 0.0265055
8.88 0.0277205
8.89 0.0287032
8.9 0.0294327
8.91 0.0298815
8.92 0.0300549
8.93 0.0299804
8.94 0.0296817
8.95 0.0291913
8.96 0.0285495
8.97 0.027802
8.98 0.0269985
8.99 0.0262019
9 0.0254626
9.01 0.0248281
9.02 0.0243404
9.03 0.0240345
9.04 0.0239487
9.05 0.0241023
9.06 0.0244845
9.07 0.0250869
9.08 0.0258902
9.09 0.0268652
9.1 0.0279734
9.11 0.0291727
9.12 0.030397
9.13 0.0315896
9.14 0.0326943
9.15 0.0336561
9.16 0.0344243
9.17 0.0349422
9.18 0.0351607
9.19 0.0350739
9.2 0.0346691
9.21 0.0339455
9.22 0.0329146
9.23 0.0315996
9.24 0.0300158
9.25 0.0282331
9.26 0.026312
9.27 0.0243135
9.28 0.0223023
9.29 0.0203442
9.3 0.0185094
9.31 0.0168756
9.32 0.015484
9.33 0.0143776
9.34 0.0135888
9.35 0.0131381
9.36 0.0130327
9.37 0.0132936
9.38 0.013879
9.39 0.0147426
9.4 0.015838
9.41 0.0171094
9.42 0.0184937
9.43 0.0199221
9.44 0.021313
9.45 0.0225935
9.46 0.023698
9.47 0.0245667
9.48 0.0251489
9.49 0.0254042
9.5 0.0252775
9.51 0.0247653
9.52 0.0238869
9.53 0.02266
9.54 0.0211161
9.55 0.019299
9.56 0.0172625
9.57 0.0150641
9.58 0.0127981
9.59 0.0105398
9.6 0.00836526
9.61 0.0063479
9.62 0.0045563
9.63 0.00307267
9.64 0.00195163
9.65 0.00121259
9.66 0.000877367
9.67 0.000953223
9.68 0.00143252
9.69 0.00229295
9.7 0.00353239
9.71 0.00505567
9.72 0.00679971
9.73 0.00869387
9.74 0.0106619
9.75 0.0126248
9.76 0.014495
9.77 0.0161831
9.78 0.017627
9.79 0.0187668
9.8 0.0195539
9.81 0.0199522
9.82 0.0199397
9.83 0.0194664
9.84 0.0185824
9.85 0.0173199
9.86 0.0157194
9.87 0.0138339
9.88 0.0117267
9.89 0.00946687
9.9 0.00714113
9.91 0.00484114
9.92 0.00264769
9.93 0.000638415
9.94 -0.00111475
9.95 -0.00254794
9.96 -0.00356867
9.97 -0.00415879
9.98 -0.00430283
9.99 -0.00399059
10 -0.00322639
10.01 -0.00202885
10.02 -0.000419894
10.03 0.00156906
10.04 0.00384499
10.05 0.00634109
10.06 0.00898426
10.07 0.0116974
10.08 0.014402
10.09 0.0170068
10.1 0.0194325
10.11 0.0216152
10.12 0.0234956
10.13 0.0250236
10.14 0.0261599
10.15 0.0268687
10.16 0.0270989
10.17 0.0268921
10.18 0.0262599
10.19 0.025225
10.2 0.0238199
10.21 0.0220861
10.22 0.0200566
10.23 0.0178012
10.24 0.0153917
10.25 0.0128889
10.26 0.0103536
10.27 0.00784506
10.28 0.00542029
10.29 0.00315034
10.3 0.00106918
10.31 -0.000785624
10.32 -0.00238382
10.33 -0.00370282
10.34 -0.00472788
10.35 -0.00543402
10.36 -0.00582392
10.37 -0.00592434
10.38 -0.00575114
10.39 -0.00532583
10.4 -0.00467478
10.41 -0.00382846
10.42 -0.00280638
10.43 -0.00166605
10.44 -0.000446069
10.45 0.000815028
10.46 0.00207882
10.47 0.00330763
10.48 0.00445989
10.49 0.00549438
10.5 0.00638512
10.51 0.00710384
10.52 0.00762562
10.53 0.00792925
10.54 0.00799756
10.55 0.00779156
10.56 0.00732455
10.57 0.00659827
10.58 0.00561574
10.59 0.00438513
10.6 0.00291987
10.61 0.00123137
10.62 -0.000660471
10.63 -0.00270882
10.64 -0.00487919
10.65 -0.00713305
10.66 -0.00942847
10.67 -0.0117208
10.68 -0.0139544
10.69 -0.0160794
10.7 -0.01805
10.71 -0.0198207
10.72 -0.0213484
10.73 -0.0225943
10.74 -0.023515
10.75 -0.024058
10.76 -0.024234
10.77 -0.0240325
10.78 -0.023452
10.79 -0.0224999
10.8 -0.0211935
10.81 -0.0195356
10.82 -0.0175815
10.83 -0.0153891
10.84 -0.0130112
10.85 -0.0105065
10.86 -0.00793811
10.87 -0.00537344
10.88 -0.00289427
10.89 -0.000565219
10.9 0.00155055
10.91 0.00339467
10.92 0.00491532
10.93 0.00606867
10.94 0.00679108
10.95 0.0070652
10.96 0.00690146
10.97 0.00630249
10.98 0.00528285
10.99 0.00386876
11 0.00209605
11.01 -1.47157e-05
11.02 -0.00236606
11.03 -0.00489302
11.04 -0.00752573
11.05 -0.0101914
11.06 -0.0128161
11.07 -0.0153167
11.08 -0.017613
11.09 -0.0196501
11.1 -0.0213727
11.11 -0.0227345
11.12 -0.0236991
11.13 -0.0242414
11.14 -0.0242991
11.15 -0.0239178
11.16 -0.0231133
11.17 -0.0219094
11.18 -0.0203404
11.19 -0.0184491
11.2 -0.0162766
11.21 -0.0138834
11.22 -0.0113501
11.23 -0.00874036
11.24 -0.00611833
11.25 -0.00354631
11.26 -0.00108339
11.27 0.00119511
11.28 0.00325057
11.29 0.00504748
11.3 0.00655568
11.31 0.00775391
11.32 0.00862996
11.33 0.00916942
11.34 0.00936507
11.35 0.00925949
11.36 0.00887585
11.37 0.00824349
11.38 0.00739683
11.39 0.0063742
11.4 0.00520842
11.41 0.00395508
11.42 0.00266011
11.43 0.00136431
11.44 0.000106094
11.45 -0.00107943
11.46 -0.00215802
11.47 -0.00309154
11.48 -0.0038703
11.49 -0.00447984
11.5 -0.00491111
11.51 -0.00516036
11.52 -0.00522891
11.53 -0.00511012
11.54 -0.00482289
11.55 -0.00438907
11.56 -0.00382656
11.57 -0.00315561
11.58 -0.00239817
11.59 -0.00157681
11.6 -0.000714441
11.61 0.00015941
11.62 0.00102204
11.63 0.00185188
11.64 0.0026289
11.65 0.00333492
11.66 0.0039472
11.67 0.00445177
11.68 0.00484276
11.69 0.00511244
11.7 0.0052558
11.71 0.00527066
11.72 0.00515732
11.73 0.00490572
11.74 0.00453722
11.75 0.00406101
11.76 0.00348862
11.77 0.00283369
11.78 0.00211181
11.79 0.00133847
11.8 0.000534945
11.81 -0.000276245
11.82 -0.00107509
11.83 -0.00184162
