# xPDFsuite Configuration #
[PDF]
wavelength = 0.1
dataformat = QA
inputfile = BiMsol6_insitu_700 C-00571.xy
backgroundfile = Quartz2mm-dist500-00000.xy
mode = xray
bgscale = 0.0042
composition = Bi2Fe4O9
outputtype = gr
qmaxinst = 24.998449118
qmin = 0.1
qmax = 21.4986662415
rmax = 80.0
rmin = 0.0
rstep = 0.01
rpoly = 0.9

[Misc]
inputdir = C:/Data/Seafile/CPH/Beamtime/Desy Oct 20/In situ data/Processed/BiMsol6/PDF
savedir = C:/Data/Seafile/CPH/Beamtime/Desy Oct 20/In situ data/PDF/BiMsol6
backgroundfilefull = C:/Data/Seafile/CPH/Beamtime/Desy Oct 20/In situ data/Processed/Standard_Empty_Cap/Quartz2mm-dist500-00000.xy

#### start data
#S 1
#L r($\AA$)  G($\AA^{-2}$)
0 0
0.01 0.00593193
0.02 0.0115241
0.03 0.016486
0.04 0.020557
0.05 0.0235187
0.06 0.0252051
0.07 0.0254351
0.08 0.0241576
0.09 0.0215086
0.1 0.0176011
0.11 0.0126088
0.12 0.00675898
0.13 0.000322201
0.14 -0.00639619
0.15 -0.0130168
0.16 -0.0192189
0.17 -0.0247026
0.18 -0.0292
0.19 -0.0324884
0.2 -0.0343401
0.21 -0.0346025
0.22 -0.0333744
0.23 -0.0307247
0.24 -0.0267962
0.25 -0.0218008
0.26 -0.0160117
0.27 -0.00974209
0.28 -0.00343145
0.29 0.00252899
0.3 0.00776003
0.31 0.011903
0.32 0.0146376
0.33 0.0156405
0.34 0.0145981
0.35 0.0115726
0.36 0.00657272
0.37 -0.000292639
0.38 -0.00881376
0.39 -0.0186832
0.4 -0.0295411
0.41 -0.0407892
0.42 -0.051842
0.43 -0.062104
0.44 -0.0709617
0.45 -0.0778061
0.46 -0.0819945
0.47 -0.0826979
0.48 -0.0797519
0.49 -0.0728314
0.5 -0.0617305
0.51 -0.0463756
0.52 -0.0268353
0.53 -0.00306278
0.54 0.0243937
0.55 0.0548214
0.56 0.087557
0.57 0.121829
0.58 0.156779
0.59 0.191474
0.6 0.224719
0.61 0.255599
0.62 0.283189
0.63 0.306624
0.64 0.325127
0.65 0.338039
0.66 0.344436
0.67 0.343962
0.68 0.336809
0.69 0.323006
0.7 0.30276
0.71 0.27645
0.72 0.24462
0.73 0.207499
0.74 0.166544
0.75 0.122705
0.76 0.0769894
0.77 0.0304365
0.78 -0.0159091
0.79 -0.0609171
0.8 -0.10346
0.81 -0.142783
0.82 -0.178158
0.83 -0.208989
0.84 -0.234832
0.85 -0.255404
0.86 -0.270031
0.87 -0.279276
0.88 -0.283457
0.89 -0.282955
0.9 -0.278277
0.91 -0.270034
0.92 -0.258833
0.93 -0.245445
0.94 -0.230858
0.95 -0.215835
0.96 -0.201109
0.97 -0.187354
0.98 -0.175169
0.99 -0.165286
1 -0.157987
1.01 -0.153464
1.02 -0.151841
1.03 -0.153124
1.04 -0.157202
1.05 -0.163925
1.06 -0.173073
1.07 -0.184025
1.08 -0.196331
1.09 -0.209513
1.1 -0.223081
1.11 -0.236556
1.12 -0.249408
1.13 -0.261211
1.14 -0.271659
1.15 -0.280498
1.16 -0.287553
1.17 -0.292735
1.18 -0.296005
1.19 -0.297307
1.2 -0.296993
1.21 -0.295289
1.22 -0.292467
1.23 -0.288832
1.24 -0.284705
1.25 -0.280423
1.26 -0.276342
1.27 -0.27274
1.28 -0.269848
1.29 -0.267844
1.3 -0.266847
1.31 -0.266915
1.32 -0.26814
1.33 -0.270312
1.34 -0.273283
1.35 -0.276856
1.36 -0.280799
1.37 -0.28485
1.38 -0.288709
1.39 -0.292062
1.4 -0.294667
1.41 -0.296303
1.42 -0.296788
1.43 -0.295991
1.44 -0.293841
1.45 -0.290178
1.46 -0.285221
1.47 -0.279109
1.48 -0.272032
1.49 -0.264227
1.5 -0.255974
1.51 -0.247589
1.52 -0.239445
1.53 -0.231871
1.54 -0.225171
1.55 -0.219617
1.56 -0.215442
1.57 -0.212824
1.58 -0.212053
1.59 -0.213024
1.6 -0.215665
1.61 -0.219858
1.62 -0.225416
1.63 -0.232087
1.64 -0.239583
1.65 -0.247517
1.66 -0.255442
1.67 -0.262958
1.68 -0.269665
1.69 -0.275183
1.7 -0.279161
1.71 -0.281106
1.72 -0.280869
1.73 -0.278341
1.74 -0.273438
1.75 -0.266153
1.76 -0.256563
1.77 -0.24477
1.78 -0.230912
1.79 -0.215488
1.8 -0.198852
1.81 -0.181399
1.82 -0.163542
1.83 -0.145706
1.84 -0.128371
1.85 -0.111961
1.86 -0.0967989
1.87 -0.0831758
1.88 -0.0713198
1.89 -0.061389
1.9 -0.0534967
1.91 -0.0478178
1.92 -0.0440572
1.93 -0.0420571
1.94 -0.0415985
1.95 -0.0424111
1.96 -0.0441852
1.97 -0.0466026
1.98 -0.049254
1.99 -0.0517713
2 -0.053837
2.01 -0.0551696
2.02 -0.0555353
2.03 -0.0547539
2.04 -0.052573
2.05 -0.0491075
2.06 -0.0444125
2.07 -0.0386147
2.08 -0.0319088
2.09 -0.0245497
2.1 -0.0168451
2.11 -0.00919951
2.12 -0.00200847
2.13 0.00434266
2.14 0.00947536
2.15 0.0130326
2.16 0.0146924
2.17 0.0139197
2.18 0.0107132
2.19 0.00496354
2.2 -0.00337972
2.21 -0.0142883
2.22 -0.0276556
2.23 -0.0433903
2.24 -0.0612455
2.25 -0.0807301
2.26 -0.101465
2.27 -0.123036
2.28 -0.145005
2.29 -0.166926
2.3 -0.188271
2.31 -0.20862
2.32 -0.227611
2.33 -0.24492
2.34 -0.260285
2.35 -0.273506
2.36 -0.284379
2.37 -0.292742
2.38 -0.298826
2.39 -0.302741
2.4 -0.304662
2.41 -0.304819
2.42 -0.303488
2.43 -0.30091
2.44 -0.297528
2.45 -0.293723
2.46 -0.289834
2.47 -0.286181
2.48 -0.283059
2.49 -0.280745
2.5 -0.279541
2.51 -0.279509
2.52 -0.280736
2.53 -0.28325
2.54 -0.287024
2.55 -0.291979
2.56 -0.298052
2.57 -0.30501
2.58 -0.3126
2.59 -0.320593
2.6 -0.328748
2.61 -0.33682
2.62 -0.344568
2.63 -0.351699
2.64 -0.358064
2.65 -0.363509
2.66 -0.367918
2.67 -0.371214
2.68 -0.373362
2.69 -0.374297
2.7 -0.374091
2.71 -0.372894
2.72 -0.370825
2.73 -0.368026
2.74 -0.364653
2.75 -0.360875
2.76 -0.356853
2.77 -0.352792
2.78 -0.348839
2.79 -0.345124
2.8 -0.341752
2.81 -0.338803
2.82 -0.336356
2.83 -0.334434
2.84 -0.332994
2.85 -0.331993
2.86 -0.331369
2.87 -0.331037
2.88 -0.3309
2.89 -0.330847
2.9 -0.330747
2.91 -0.330486
2.92 -0.329962
2.93 -0.329079
2.94 -0.327758
2.95 -0.325907
2.96 -0.323459
2.97 -0.320424
2.98 -0.316791
2.99 -0.312566
3 -0.307761
3.01 -0.302401
3.02 -0.296464
3.03 -0.290019
3.04 -0.283097
3.05 -0.275711
3.06 -0.267858
3.07 -0.259523
3.08 -0.250654
3.09 -0.24116
3.1 -0.23101
3.11 -0.220115
3.12 -0.208369
3.13 -0.195658
3.14 -0.18186
3.15 -0.166742
3.16 -0.150237
3.17 -0.13228
3.18 -0.112785
3.19 -0.0916921
3.2 -0.0689659
3.21 -0.044572
3.22 -0.0184342
3.23 0.00920646
3.24 0.0382264
3.25 0.068463
3.26 0.0997165
3.27 0.131753
3.28 0.164324
3.29 0.197082
3.3 0.229696
3.31 0.261845
3.32 0.293206
3.33 0.323464
3.34 0.352297
3.35 0.379225
3.36 0.404157
3.37 0.426876
3.38 0.447206
3.39 0.465011
3.4 0.480197
3.41 0.492548
3.42 0.502084
3.43 0.508997
3.44 0.51337
3.45 0.515318
3.46 0.514986
3.47 0.512539
3.48 0.507958
3.49 0.501677
3.5 0.493896
3.51 0.484809
3.52 0.474604
3.53 0.463457
3.54 0.451494
3.55 0.438871
3.56 0.425754
3.57 0.412245
3.58 0.398423
3.59 0.384355
3.6 0.37009
3.61 0.355655
3.62 0.341097
3.63 0.326443
3.64 0.311722
3.65 0.296963
3.66 0.282204
3.67 0.267497
3.68 0.252916
3.69 0.238531
3.7 0.224435
3.71 0.210729
3.72 0.197531
3.73 0.184965
3.74 0.17325
3.75 0.162489
3.76 0.1528
3.77 0.14432
3.78 0.137176
3.79 0.131485
3.8 0.127395
3.81 0.125094
3.82 0.124501
3.83 0.12565
3.84 0.128551
3.85 0.133189
3.86 0.139526
3.87 0.147629
3.88 0.157323
3.89 0.168446
3.9 0.180878
3.91 0.194487
3.92 0.209133
3.93 0.224683
3.94 0.241033
3.95 0.257951
3.96 0.275301
3.97 0.292949
3.98 0.310772
3.99 0.328659
4 0.346497
4.01 0.364183
4.02 0.381642
4.03 0.398802
4.04 0.4156
4.05 0.431977
4.06 0.447873
4.07 0.463173
4.08 0.477875
4.09 0.49192
4.1 0.505246
4.11 0.517785
4.12 0.529464
4.13 0.540141
4.14 0.549722
4.15 0.558173
4.16 0.565403
4.17 0.57132
4.18 0.575837
4.19 0.578869
4.2 0.580156
4.21 0.579797
4.22 0.577746
4.23 0.573969
4.24 0.568444
4.25 0.56117
4.26 0.552078
4.27 0.54118
4.28 0.52865
4.29 0.514561
4.3 0.499001
4.31 0.482071
4.32 0.463881
4.33 0.444446
4.34 0.424001
4.35 0.402685
4.36 0.380619
4.37 0.357918
4.38 0.334691
4.39 0.311023
4.4 0.286997
4.41 0.262719
4.42 0.238248
4.43 0.213633
4.44 0.18891
4.45 0.164109
4.46 0.139247
4.47 0.114343
4.48 0.0894111
4.49 0.0644651
4.5 0.0395205
4.51 0.0145986
4.52 -0.0102695
4.53 -0.035034
4.54 -0.0596492
4.55 -0.084053
4.56 -0.108173
4.57 -0.131925
4.58 -0.155217
4.59 -0.177897
4.6 -0.19987
4.61 -0.221051
4.62 -0.241333
4.63 -0.260618
4.64 -0.278812
4.65 -0.295814
4.66 -0.311445
4.67 -0.325779
4.68 -0.338788
4.69 -0.350465
4.7 -0.360824
4.71 -0.369899
4.72 -0.377667
4.73 -0.38424
4.74 -0.389773
4.75 -0.394373
4.76 -0.398162
4.77 -0.401264
4.78 -0.40381
4.79 -0.405897
4.8 -0.407711
4.81 -0.409367
4.82 -0.41097
4.83 -0.41261
4.84 -0.414363
4.85 -0.416296
4.86 -0.418451
4.87 -0.42083
4.88 -0.423428
4.89 -0.426223
4.9 -0.429175
4.91 -0.432232
4.92 -0.435328
4.93 -0.438379
4.94 -0.441305
4.95 -0.444028
4.96 -0.446469
4.97 -0.448553
4.98 -0.45019
4.99 -0.451301
5 -0.451869
5.01 -0.451859
5.02 -0.451247
5.03 -0.45002
5.04 -0.448176
5.05 -0.445666
5.06 -0.442561
5.07 -0.438898
5.08 -0.434709
5.09 -0.430029
5.1 -0.424896
5.11 -0.419331
5.12 -0.413358
5.13 -0.407039
5.14 -0.400403
5.15 -0.39347
5.16 -0.386258
5.17 -0.378779
5.18 -0.37102
5.19 -0.363
5.2 -0.35473
5.21 -0.346212
5.22 -0.337449
5.23 -0.328447
5.24 -0.319209
5.25 -0.309738
5.26 -0.300077
5.27 -0.290257
5.28 -0.280312
5.29 -0.270289
5.3 -0.260237
5.31 -0.250221
5.32 -0.240313
5.33 -0.230579
5.34 -0.221089
5.35 -0.21191
5.36 -0.203113
5.37 -0.194767
5.38 -0.186982
5.39 -0.17976
5.4 -0.173141
5.41 -0.167154
5.42 -0.161817
5.43 -0.157138
5.44 -0.153153
5.45 -0.149832
5.46 -0.147113
5.47 -0.144957
5.48 -0.143319
5.49 -0.142144
5.5 -0.141377
5.51 -0.140988
5.52 -0.140872
5.53 -0.140966
5.54 -0.141214
5.55 -0.14156
5.56 -0.141952
5.57 -0.142344
5.58 -0.142688
5.59 -0.142951
5.6 -0.143101
5.61 -0.143114
5.62 -0.142965
5.63 -0.142633
5.64 -0.14207
5.65 -0.141274
5.66 -0.140221
5.67 -0.138882
5.68 -0.137228
5.69 -0.135221
5.7 -0.132804
5.71 -0.129913
5.72 -0.12653
5.73 -0.122606
5.74 -0.118091
5.75 -0.112937
5.76 -0.1071
5.77 -0.100466
5.78 -0.093058
5.79 -0.0848701
5.8 -0.0758949
5.81 -0.0661379
5.82 -0.0556197
5.83 -0.0443536
5.84 -0.0323661
5.85 -0.0197887
5.86 -0.00670678
5.87 0.00678117
5.88 0.0205658
5.89 0.0345291
5.9 0.0485411
5.91 0.0624565
5.92 0.0761495
5.93 0.0895004
5.94 0.102398
5.95 0.114743
5.96 0.126433
5.97 0.137342
5.98 0.147487
5.99 0.156844
6 0.165407
6.01 0.173193
6.02 0.180236
6.03 0.186542
6.04 0.192212
6.05 0.197358
6.06 0.20207
6.07 0.206442
6.08 0.210568
6.09 0.214541
6.1 0.218445
6.11 0.222365
6.12 0.226355
6.13 0.230452
6.14 0.234672
6.15 0.239014
6.16 0.243456
6.17 0.247943
6.18 0.252401
6.19 0.256744
6.2 0.26087
6.21 0.264669
6.22 0.268022
6.23 0.270724
6.24 0.27271
6.25 0.273864
6.26 0.274081
6.27 0.273268
6.28 0.27135
6.29 0.268207
6.3 0.263789
6.31 0.258163
6.32 0.251346
6.33 0.243376
6.34 0.234315
6.35 0.224241
6.36 0.213164
6.37 0.201297
6.38 0.18877
6.39 0.175713
6.4 0.162255
6.41 0.148525
6.42 0.134642
6.43 0.120735
6.44 0.10691
6.45 0.0932497
6.46 0.0798206
6.47 0.0666713
6.48 0.0538328
6.49 0.0413492
6.5 0.0291912
6.51 0.0173304
6.52 0.00573347
6.53 -0.00564197
6.54 -0.0168449
6.55 -0.0279258
6.56 -0.0389406
6.57 -0.0499478
6.58 -0.06099
6.59 -0.0721013
6.6 -0.0833052
6.61 -0.0946132
6.62 -0.106031
6.63 -0.117534
6.64 -0.129086
6.65 -0.140644
6.66 -0.152149
6.67 -0.163538
6.68 -0.174731
6.69 -0.185618
6.7 -0.196134
6.71 -0.206199
6.72 -0.215729
6.73 -0.224649
6.74 -0.232888
6.75 -0.240323
6.76 -0.246915
6.77 -0.252654
6.78 -0.257506
6.79 -0.261447
6.8 -0.264463
6.81 -0.266537
6.82 -0.267577
6.83 -0.267689
6.84 -0.266881
6.85 -0.265164
6.86 -0.262549
6.87 -0.259044
6.88 -0.254601
6.89 -0.249228
6.9 -0.242971
6.91 -0.235823
6.92 -0.227772
6.93 -0.218802
6.94 -0.208894
6.95 -0.197916
6.96 -0.185953
6.97 -0.172987
6.98 -0.159002
6.99 -0.143988
7 -0.127941
7.01 -0.110812
7.02 -0.0926034
7.03 -0.0734102
7.04 -0.0532713
7.05 -0.032237
7.06 -0.0103695
7.07 0.0122581
7.08 0.0356222
7.09 0.0595581
7.1 0.0839545
7.11 0.108703
7.12 0.133694
7.13 0.158812
7.14 0.183941
7.15 0.208953
7.16 0.23374
7.17 0.258203
7.18 0.28225
7.19 0.305794
7.2 0.328758
7.21 0.351006
7.22 0.372514
7.23 0.393246
7.24 0.413154
7.25 0.432197
7.26 0.450336
7.27 0.467506
7.28 0.483605
7.29 0.498681
7.3 0.512693
7.31 0.525597
7.32 0.537345
7.33 0.547883
7.34 0.557045
7.35 0.564819
7.36 0.571184
7.37 0.576072
7.38 0.579412
7.39 0.581138
7.4 0.581155
7.41 0.579254
7.42 0.575554
7.43 0.570017
7.44 0.562617
7.45 0.553343
7.46 0.542199
7.47 0.529082
7.48 0.514082
7.49 0.49735
7.5 0.478969
7.51 0.459041
7.52 0.437682
7.53 0.415019
7.54 0.391098
7.55 0.36622
7.56 0.340556
7.57 0.314282
7.58 0.287575
7.59 0.260615
7.6 0.233585
7.61 0.206683
7.62 0.180072
7.63 0.153906
7.64 0.128326
7.65 0.103458
7.66 0.0794177
7.67 0.0564169
7.68 0.0344474
7.69 0.0135703
7.7 -0.00616221
7.71 -0.0247113
7.72 -0.0420507
7.73 -0.0581068
7.74 -0.072849
7.75 -0.0863691
7.76 -0.098681
7.77 -0.109805
7.78 -0.119767
7.79 -0.128596
7.8 -0.136218
7.81 -0.142768
7.82 -0.148301
7.83 -0.152859
7.84 -0.156483
7.85 -0.159217
7.86 -0.161076
7.87 -0.162077
7.88 -0.162336
7.89 -0.1619
7.9 -0.160819
7.91 -0.159143
7.92 -0.156921
7.93 -0.154165
7.94 -0.150961
7.95 -0.147372
7.96 -0.143446
7.97 -0.139228
7.98 -0.134762
7.99 -0.130084
8 -0.125224
8.01 -0.120232
8.02 -0.115136
8.03 -0.109962
8.04 -0.104727
8.05 -0.09945
8.06 -0.0941409
8.07 -0.0888127
8.08 -0.0834743
8.09 -0.0781324
8.1 -0.0727938
8.11 -0.0674657
8.12 -0.0621574
8.13 -0.0568847
8.14 -0.0516604
8.15 -0.0465033
8.16 -0.0414359
8.17 -0.0364848
8.18 -0.03168
8.19 -0.0270695
8.2 -0.0226916
8.21 -0.0185749
8.22 -0.0147573
8.23 -0.0112753
8.24 -0.00816313
8.25 -0.00545226
8.26 -0.00321619
8.27 -0.00142446
8.28 -8.43978e-05
8.29 0.00080593
8.3 0.00125829
8.31 0.0012946
8.32 0.000927734
8.33 0.000205933
8.34 -0.000794923
8.35 -0.00201461
8.36 -0.00338722
8.37 -0.00484305
8.38 -0.0063107
8.39 -0.00770544
8.4 -0.00895969
8.41 -0.0100135
8.42 -0.0108149
8.43 -0.0113222
8.44 -0.0115057
8.45 -0.011334
8.46 -0.0107987
8.47 -0.00994227
8.48 -0.00879761
8.49 -0.00741209
8.5 -0.00584632
8.51 -0.0041726
8.52 -0.00247921
8.53 -0.000868329
8.54 0.000565392
8.55 0.00172689
8.56 0.00252337
8.57 0.00286727
8.58 0.00265832
8.59 0.00179068
8.6 0.000257605
8.61 -0.00197762
8.62 -0.00493532
8.63 -0.00861874
8.64 -0.013014
8.65 -0.0181459
8.66 -0.0239207
8.67 -0.0302546
8.68 -0.0370725
8.69 -0.0442905
8.7 -0.0518188
8.71 -0.0595671
8.72 -0.0674395
8.73 -0.0753283
8.74 -0.0831515
8.75 -0.090836
8.76 -0.0983193
8.77 -0.105552
8.78 -0.112475
8.79 -0.119075
8.8 -0.125362
8.81 -0.131345
8.82 -0.137045
8.83 -0.142496
8.84 -0.147735
8.85 -0.1528
8.86 -0.157764
8.87 -0.162674
8.88 -0.16758
8.89 -0.172521
8.9 -0.177534
8.91 -0.182649
8.92 -0.18788
8.93 -0.193221
8.94 -0.198656
8.95 -0.204162
8.96 -0.2097
8.97 -0.215224
8.98 -0.220663
8.99 -0.225956
9 -0.231038
9.01 -0.235842
9.02 -0.240304
9.03 -0.244364
9.04 -0.247942
9.05 -0.250985
9.06 -0.253495
9.07 -0.255455
9.08 -0.256863
9.09 -0.25773
9.1 -0.258081
9.11 -0.257908
9.12 -0.257312
9.13 -0.256359
9.14 -0.255115
9.15 -0.253651
9.16 -0.252039
9.17 -0.250348
9.18 -0.248654
9.19 -0.247019
9.2 -0.24549
9.21 -0.244106
9.22 -0.242889
9.23 -0.241852
9.24 -0.241008
9.25 -0.240324
9.26 -0.239766
9.27 -0.239294
9.28 -0.238859
9.29 -0.238405
9.3 -0.237869
9.31 -0.237176
9.32 -0.236278
9.33 -0.235122
9.34 -0.233665
9.35 -0.231873
9.36 -0.229722
9.37 -0.227172
9.38 -0.224245
9.39 -0.220973
9.4 -0.217387
9.41 -0.213528
9.42 -0.209448
9.43 -0.205202
9.44 -0.200853
9.45 -0.196478
9.46 -0.192141
9.47 -0.187895
9.48 -0.183789
9.49 -0.179861
9.5 -0.176149
9.51 -0.172656
9.52 -0.169363
9.53 -0.166241
9.54 -0.163247
9.55 -0.160321
9.56 -0.157389
9.57 -0.154344
9.58 -0.151091
9.59 -0.147527
9.6 -0.143545
9.61 -0.13904
9.62 -0.133911
9.63 -0.128016
9.64 -0.121267
9.65 -0.113641
9.66 -0.105091
9.67 -0.0955878
9.68 -0.0851222
9.69 -0.0737051
9.7 -0.0612666
9.71 -0.047969
9.72 -0.0338848
9.73 -0.0190996
9.74 -0.00371051
9.75 0.0121763
9.76 0.0284629
9.77 0.0450223
9.78 0.0617189
9.79 0.0784467
9.8 0.0951076
9.81 0.111614
9.82 0.127892
9.83 0.143846
9.84 0.159453
9.85 0.174692
9.86 0.189549
9.87 0.204026
9.88 0.218133
9.89 0.231879
9.9 0.245285
9.91 0.25841
9.92 0.271284
9.93 0.283938
9.94 0.296396
9.95 0.308674
9.96 0.320763
9.97 0.332665
9.98 0.344364
9.99 0.355827
10 0.367007
10.01 0.377846
10.02 0.388262
10.03 0.39814
10.04 0.407433
10.05 0.416058
10.06 0.423932
10.07 0.430977
10.08 0.437121
10.09 0.442222
10.1 0.446275
10.11 0.449287
10.12 0.451251
10.13 0.452177
10.14 0.452096
10.15 0.451042
10.16 0.44902
10.17 0.446216
10.18 0.442733
10.19 0.438687
10.2 0.434201
10.21 0.429405
10.22 0.424426
10.23 0.419414
10.24 0.414497
10.25 0.409785
10.26 0.405376
10.27 0.401351
10.28 0.397777
10.29 0.394752
10.3 0.392245
10.31 0.390254
10.32 0.388757
10.33 0.387715
10.34 0.387071
10.35 0.386767
10.36 0.386702
10.37 0.386763
10.38 0.386848
10.39 0.386851
10.4 0.386669
10.41 0.386198
10.42 0.38529
10.43 0.38389
10.44 0.381924
10.45 0.379325
10.46 0.376041
10.47 0.37203
10.48 0.367226
10.49 0.361596
10.5 0.355187
10.51 0.348005
10.52 0.340064
10.53 0.331384
10.54 0.32199
10.55 0.311844
10.56 0.301039
10.57 0.289616
10.58 0.277605
10.59 0.265037
10.6 0.251939
10.61 0.238319
10.62 0.224186
10.63 0.209603
10.64 0.194593
10.65 0.17918
10.66 0.163391
10.67 0.147254
10.68 0.130774
10.69 0.114014
10.7 0.0970242
10.71 0.0798509
10.72 0.0625466
10.73 0.045168
10.74 0.0277778
10.75 0.0104519
10.76 -0.0067432
10.77 -0.0237413
10.78 -0.0404779
10.79 -0.0568924
10.8 -0.0729291
10.81 -0.0885028
10.82 -0.103589
10.83 -0.118177
10.84 -0.132255
10.85 -0.14582
10.86 -0.158884
10.87 -0.171465
10.88 -0.183568
10.89 -0.195291
10.9 -0.206694
10.91 -0.217845
10.92 -0.228814
10.93 -0.239676
10.94 -0.250506
10.95 -0.261385
10.96 -0.272374
10.97 -0.283524
10.98 -0.294874
10.99 -0.306448
11 -0.318257
11.01 -0.330311
11.02 -0.342555
11.03 -0.354937
11.04 -0.367393
11.05 -0.379841
11.06 -0.392185
11.07 -0.404301
11.08 -0.416053
11.09 -0.427333
11.1 -0.438021
11.11 -0.447995
11.12 -0.457143
11.13 -0.465359
11.14 -0.472428
11.15 -0.478375
11.16 -0.483151
11.17 -0.486719
11.18 -0.489061
11.19 -0.490179
11.2 -0.490043
11.21 -0.488673
11.22 -0.486216
11.23 -0.482746
11.24 -0.478352
11.25 -0.473129
11.26 -0.467176
11.27 -0.460542
11.28 -0.45339
11.29 -0.445823
11.3 -0.437926
11.31 -0.42977
11.32 -0.421417
11.33 -0.412906
11.34 -0.404262
11.35 -0.395506
11.36 -0.38663
11.37 -0.377614
11.38 -0.368421
11.39 -0.359008
11.4 -0.349289
11.41 -0.339214
11.42 -0.328729
11.43 -0.317772
11.44 -0.306287
11.45 -0.294225
11.46 -0.281531
11.47 -0.268132
11.48 -0.254078
11.49 -0.239376
11.5 -0.224052
11.51 -0.208146
11.52 -0.191716
11.53 -0.174807
11.54 -0.157538
11.55 -0.140028
11.56 -0.122388
11.57 -0.104737
11.58 -0.0871948
11.59 -0.0698885
11.6 -0.0529834
11.61 -0.0365649
11.62 -0.0207364
11.63 -0.00559016
11.64 0.00879446
11.65 0.0223526
11.66 0.0349747
11.67 0.0466387
11.68 0.0573775
11.69 0.0671945
11.7 0.0761082
11.71 0.084151
11.72 0.0913656
11.73 0.0977269
11.74 0.103394
11.75 0.108436
11.76 0.112927
11.77 0.116942
11.78 0.120553
11.79 0.123816
11.8 0.126804
11.81 0.129594
11.82 0.132235
11.83 0.134769
11.84 0.137228
11.85 0.139633
11.86 0.141995
11.87 0.144321
11.88 0.146605
11.89 0.148833
11.9 0.150984
11.91 0.153032
11.92 0.154937
11.93 0.156654
11.94 0.158152
11.95 0.15939
11.96 0.160325
11.97 0.160913
11.98 0.161111
11.99 0.160828
12 0.160049
12.01 0.158742
12.02 0.156867
12.03 0.154383
12.04 0.151254
12.05 0.14742
12.06 0.142807
12.07 0.137443
12.08 0.1313
12.09 0.124354
12.1 0.116587
12.11 0.107982
12.12 0.0984579
12.13 0.0880571
12.14 0.0768116
12.15 0.0647341
12.16 0.051846
