# xPDFsuite Configuration #
[PDF]
wavelength = 0.1
dataformat = QA
inputfile = BiMsol6_insitu_700 C-00130.xy
backgroundfile = Quartz2mm-dist500-00000.xy
mode = xray
bgscale = 0.0042
composition = Bi2Fe4O9
outputtype = gr
qmaxinst = 24.998449118
qmin = 0.1
qmax = 21.4986662415
rmax = 80.0
rmin = 0.0
rstep = 0.01
rpoly = 0.9

[Misc]
inputdir = C:/Data/Seafile/CPH/Beamtime/Desy Oct 20/In situ data/Processed/BiMsol6/PDF
savedir = C:/Data/Seafile/CPH/Beamtime/Desy Oct 20/In situ data/PDF/BiMsol6
backgroundfilefull = C:/Data/Seafile/CPH/Beamtime/Desy Oct 20/In situ data/Processed/Standard_Empty_Cap/Quartz2mm-dist500-00000.xy

#### start data
#S 1
#L r($\AA$)  G($\AA^{-2}$)
0 0
0.01 0.00676412
0.02 0.0131521
0.03 0.0188417
0.04 0.023544
0.05 0.0270158
0.06 0.0290716
0.07 0.0295077
0.08 0.0282636
0.09 0.0254866
0.1 0.0212973
0.11 0.0158835
0.12 0.00949264
0.13 0.00241998
0.14 -0.00500366
0.15 -0.0123572
0.16 -0.0192858
0.17 -0.0254562
0.18 -0.0305687
0.19 -0.034372
0.2 -0.0366072
0.21 -0.0370951
0.22 -0.035932
0.23 -0.0331811
0.24 -0.0289865
0.25 -0.0235681
0.26 -0.0172135
0.27 -0.0102471
0.28 -0.00314661
0.29 0.00366372
0.3 0.00977162
0.31 0.0147842
0.32 0.018347
0.33 0.020101
0.34 0.0196938
0.35 0.0171701
0.36 0.0125199
0.37 0.00583939
0.38 -0.00266748
0.39 -0.0126921
0.4 -0.023879
0.41 -0.0356039
0.42 -0.0472533
0.43 -0.0582046
0.44 -0.0678127
0.45 -0.0754346
0.46 -0.0803913
0.47 -0.0818109
0.48 -0.0794976
0.49 -0.0730967
0.5 -0.0623773
0.51 -0.0472466
0.52 -0.0277603
0.53 -0.00385344
0.54 0.0239176
0.55 0.0548207
0.56 0.0881745
0.57 0.123183
0.58 0.158956
0.59 0.194526
0.6 0.228658
0.61 0.260391
0.62 0.28876
0.63 0.31286
0.64 0.331883
0.65 0.345137
0.66 0.35166
0.67 0.351077
0.68 0.343583
0.69 0.329208
0.7 0.308166
0.71 0.280851
0.72 0.247831
0.73 0.209348
0.74 0.166918
0.75 0.121532
0.76 0.0742391
0.77 0.026123
0.78 -0.0217286
0.79 -0.0681366
0.8 -0.111928
0.81 -0.152325
0.82 -0.188571
0.83 -0.220052
0.84 -0.246314
0.85 -0.267067
0.86 -0.281618
0.87 -0.290567
0.88 -0.294249
0.89 -0.293072
0.9 -0.287571
0.91 -0.278386
0.92 -0.266157
0.93 -0.251691
0.94 -0.236012
0.95 -0.219913
0.96 -0.20415
0.97 -0.189417
0.98 -0.176328
0.99 -0.165631
1 -0.157602
1.01 -0.152427
1.02 -0.150218
1.03 -0.150964
1.04 -0.154537
1.05 -0.160761
1.06 -0.169391
1.07 -0.179779
1.08 -0.191455
1.09 -0.203922
1.1 -0.216676
1.11 -0.229227
1.12 -0.241033
1.13 -0.25168
1.14 -0.260878
1.15 -0.268392
1.16 -0.274074
1.17 -0.277865
1.18 -0.279767
1.19 -0.279771
1.2 -0.278272
1.21 -0.275536
1.22 -0.271878
1.23 -0.267637
1.24 -0.263171
1.25 -0.25886
1.26 -0.255073
1.27 -0.25208
1.28 -0.250107
1.29 -0.249318
1.3 -0.249804
1.31 -0.251592
1.32 -0.254738
1.33 -0.258955
1.34 -0.264031
1.35 -0.269706
1.36 -0.275677
1.37 -0.281615
1.38 -0.287137
1.39 -0.291859
1.4 -0.2955
1.41 -0.297793
1.42 -0.298525
1.43 -0.297545
1.44 -0.294774
1.45 -0.290015
1.46 -0.283558
1.47 -0.275583
1.48 -0.266331
1.49 -0.256105
1.5 -0.245254
1.51 -0.234176
1.52 -0.223343
1.53 -0.213176
1.54 -0.204065
1.55 -0.196369
1.56 -0.190395
1.57 -0.186389
1.58 -0.184747
1.59 -0.185373
1.6 -0.188208
1.61 -0.193141
1.62 -0.199977
1.63 -0.208437
1.64 -0.218205
1.65 -0.228845
1.66 -0.239797
1.67 -0.250576
1.68 -0.260689
1.69 -0.269655
1.7 -0.277021
1.71 -0.282168
1.72 -0.284848
1.73 -0.284866
1.74 -0.282057
1.75 -0.276349
1.76 -0.267764
1.77 -0.256352
1.78 -0.242189
1.79 -0.225832
1.8 -0.207659
1.81 -0.1881
1.82 -0.167625
1.83 -0.146725
1.84 -0.125944
1.85 -0.105821
1.86 -0.0867949
1.87 -0.0692591
1.88 -0.0535448
1.89 -0.0399104
1.9 -0.0285687
1.91 -0.019819
1.92 -0.0134097
1.93 -0.00923998
1.94 -0.00713204
1.95 -0.00684008
1.96 -0.00806151
1.97 -0.0105027
1.98 -0.0137104
1.99 -0.0172421
2 -0.0207188
2.01 -0.0237853
2.02 -0.0261243
2.03 -0.027465
2.04 -0.0274547
2.05 -0.0260974
2.06 -0.0233544
2.07 -0.0192643
2.08 -0.0139412
2.09 -0.00756981
2.1 -0.000371678
2.11 0.0072988
2.12 0.0150426
2.13 0.0224827
2.14 0.0292328
2.15 0.0349125
2.16 0.0391618
2.17 0.0414323
2.18 0.0416091
2.19 0.0395041
2.2 0.0349856
2.21 0.0279959
2.22 0.0185547
2.23 0.00665993
2.24 -0.00753863
2.25 -0.0236167
2.26 -0.0412595
2.27 -0.0601054
2.28 -0.0797579
2.29 -0.0997993
2.3 -0.119758
2.31 -0.139176
2.32 -0.157664
2.33 -0.174869
2.34 -0.190484
2.35 -0.20426
2.36 -0.215936
2.37 -0.225282
2.38 -0.232438
2.39 -0.237445
2.4 -0.240407
2.41 -0.241486
2.42 -0.2409
2.43 -0.238808
2.44 -0.235624
2.45 -0.231703
2.46 -0.227365
2.47 -0.222926
2.48 -0.218682
2.49 -0.214924
2.5 -0.211963
2.51 -0.209932
2.52 -0.208966
2.53 -0.209146
2.54 -0.210505
2.55 -0.213023
2.56 -0.216708
2.57 -0.221393
2.58 -0.22688
2.59 -0.232988
2.6 -0.23952
2.61 -0.246268
2.62 -0.253018
2.63 -0.259528
2.64 -0.265616
2.65 -0.271123
2.66 -0.275916
2.67 -0.279894
2.68 -0.282987
2.69 -0.285104
2.7 -0.286261
2.71 -0.286545
2.72 -0.286024
2.73 -0.284786
2.74 -0.282937
2.75 -0.280594
2.76 -0.277851
2.77 -0.274883
2.78 -0.271802
2.79 -0.268709
2.8 -0.265684
2.81 -0.262792
2.82 -0.260082
2.83 -0.257571
2.84 -0.255238
2.85 -0.253047
2.86 -0.250947
2.87 -0.248871
2.88 -0.246739
2.89 -0.24444
2.9 -0.241891
2.91 -0.239009
2.92 -0.235715
2.93 -0.231945
2.94 -0.227649
2.95 -0.222769
2.96 -0.217274
2.97 -0.211219
2.98 -0.204633
2.99 -0.197568
3 -0.190088
3.01 -0.182271
3.02 -0.174189
3.03 -0.165966
3.04 -0.157701
3.05 -0.149483
3.06 -0.141393
3.07 -0.133501
3.08 -0.125871
3.09 -0.118558
3.1 -0.111552
3.11 -0.104845
3.12 -0.098409
3.13 -0.092197
3.14 -0.0861447
3.15 -0.0801719
3.16 -0.0741708
3.17 -0.0680388
3.18 -0.0616727
3.19 -0.0549703
3.2 -0.0478343
3.21 -0.0401631
3.22 -0.0318266
3.23 -0.0228188
3.24 -0.0130993
3.25 -0.00264621
3.26 0.00854337
3.27 0.0204536
3.28 0.0330977
3.29 0.0463956
3.3 0.0602507
3.31 0.074586
3.32 0.0893169
3.33 0.104355
3.34 0.119614
3.35 0.135009
3.36 0.150441
3.37 0.165839
3.38 0.181145
3.39 0.196311
3.4 0.211301
3.41 0.22608
3.42 0.240639
3.43 0.254992
3.44 0.269149
3.45 0.283128
3.46 0.296947
3.47 0.310629
3.48 0.32418
3.49 0.337628
3.5 0.350976
3.51 0.36422
3.52 0.377341
3.53 0.39031
3.54 0.40307
3.55 0.415551
3.56 0.427696
3.57 0.439421
3.58 0.450635
3.59 0.461242
3.6 0.471141
3.61 0.480134
3.62 0.488187
3.63 0.495218
3.64 0.501143
3.65 0.505889
3.66 0.509398
3.67 0.511572
3.68 0.512334
3.69 0.511776
3.7 0.509909
3.71 0.506759
3.72 0.502369
3.73 0.496793
3.74 0.490002
3.75 0.482163
3.76 0.473389
3.77 0.463771
3.78 0.453403
3.79 0.44238
3.8 0.430779
3.81 0.418674
3.82 0.406196
3.83 0.39342
3.84 0.380419
3.85 0.367254
3.86 0.353985
3.87 0.340661
3.88 0.327338
3.89 0.314057
3.9 0.300856
3.91 0.28777
3.92 0.274833
3.93 0.262083
3.94 0.249572
3.95 0.237315
3.96 0.225345
3.97 0.213694
3.98 0.202391
3.99 0.191466
4 0.180975
4.01 0.170932
4.02 0.161331
4.03 0.152181
4.04 0.14348
4.05 0.135221
4.06 0.127386
4.07 0.119984
4.08 0.112928
4.09 0.106171
4.1 0.0996568
4.11 0.0933225
4.12 0.0871025
4.13 0.0809271
4.14 0.0747183
4.15 0.0684106
4.16 0.0619467
4.17 0.0552781
4.18 0.0483672
4.19 0.0411894
4.2 0.0337035
4.21 0.0259491
4.22 0.0179533
4.23 0.00975792
4.24 0.00141986
4.25 -0.00699046
4.26 -0.0153859
4.27 -0.023659
4.28 -0.0317137
4.29 -0.0394507
4.3 -0.0467727
4.31 -0.0535883
4.32 -0.0598153
4.33 -0.0653109
4.34 -0.070076
4.35 -0.0740896
4.36 -0.0773412
4.37 -0.0798414
4.38 -0.0816221
4.39 -0.0827137
4.4 -0.0831771
4.41 -0.0831583
4.42 -0.082765
4.43 -0.0821154
4.44 -0.0813338
4.45 -0.0805468
4.46 -0.0799006
4.47 -0.0795176
4.48 -0.0794979
4.49 -0.0799292
4.5 -0.0808808
4.51 -0.0824009
4.52 -0.0845307
4.53 -0.087306
4.54 -0.0906436
4.55 -0.0944911
4.56 -0.0987754
4.57 -0.103405
4.58 -0.108271
4.59 -0.113257
4.6 -0.118212
4.61 -0.123004
4.62 -0.127508
4.63 -0.131606
4.64 -0.13519
4.65 -0.138159
4.66 -0.140375
4.67 -0.141854
4.68 -0.142573
4.69 -0.142533
4.7 -0.141757
4.71 -0.14029
4.72 -0.138162
4.73 -0.135485
4.74 -0.13239
4.75 -0.12899
4.76 -0.125405
4.77 -0.121754
4.78 -0.118158
4.79 -0.114762
4.8 -0.111656
4.81 -0.108928
4.82 -0.106651
4.83 -0.104879
4.84 -0.103647
4.85 -0.103006
4.86 -0.102952
4.87 -0.103428
4.88 -0.104398
4.89 -0.10581
4.9 -0.107604
4.91 -0.109713
4.92 -0.112082
4.93 -0.114608
4.94 -0.11722
4.95 -0.119853
4.96 -0.122453
4.97 -0.124971
4.98 -0.127364
4.99 -0.129603
5 -0.131684
5.01 -0.133607
5.02 -0.135381
5.03 -0.137022
5.04 -0.138553
5.05 -0.139994
5.06 -0.141383
5.07 -0.142748
5.08 -0.14411
5.09 -0.145489
5.1 -0.146893
5.11 -0.148327
5.12 -0.149784
5.13 -0.151246
5.14 -0.152687
5.15 -0.154077
5.16 -0.155378
5.17 -0.156549
5.18 -0.157528
5.19 -0.158279
5.2 -0.158769
5.21 -0.158966
5.22 -0.158844
5.23 -0.158387
5.24 -0.157583
5.25 -0.156417
5.26 -0.154943
5.27 -0.153193
5.28 -0.151209
5.29 -0.149045
5.3 -0.146758
5.31 -0.144413
5.32 -0.142087
5.33 -0.139845
5.34 -0.137748
5.35 -0.135848
5.36 -0.134186
5.37 -0.132798
5.38 -0.131727
5.39 -0.130941
5.4 -0.130424
5.41 -0.130141
5.42 -0.130045
5.43 -0.130075
5.44 -0.13016
5.45 -0.130206
5.46 -0.130126
5.47 -0.129837
5.48 -0.129256
5.49 -0.128308
5.5 -0.126928
5.51 -0.125005
5.52 -0.122561
5.53 -0.119583
5.54 -0.116078
5.55 -0.112074
5.56 -0.107618
5.57 -0.102758
5.58 -0.0975899
5.59 -0.092235
5.6 -0.0868014
5.61 -0.0814027
5.62 -0.0761535
5.63 -0.0711652
5.64 -0.0665912
5.65 -0.0624935
5.66 -0.0589401
5.67 -0.0559825
5.68 -0.0536497
5.69 -0.0519472
5.7 -0.0508805
5.71 -0.0504123
5.72 -0.0504249
5.73 -0.0508246
5.74 -0.0515002
5.75 -0.0523268
5.76 -0.0531706
5.77 -0.0538675
5.78 -0.0542748
5.79 -0.0542662
5.8 -0.0537249
5.81 -0.0525509
5.82 -0.0506653
5.83 -0.0479865
5.84 -0.0444455
5.85 -0.0401147
5.86 -0.0350296
5.87 -0.0292532
5.88 -0.0228737
5.89 -0.0160019
5.9 -0.00874891
5.91 -0.00129849
5.92 0.00618418
5.93 0.0135425
5.94 0.0206235
5.95 0.0272832
5.96 0.0333772
5.97 0.0387354
5.98 0.0433323
5.99 0.0471152
6 0.0500609
6.01 0.0521764
6.02 0.053499
6.03 0.0540476
6.04 0.0539563
6.05 0.0533775
6.06 0.0524514
6.07 0.0513311
6.08 0.0501772
6.09 0.0491551
6.1 0.0484687
6.11 0.0482449
6.12 0.0486111
6.13 0.0496729
6.14 0.0515108
6.15 0.0541764
6.16 0.0577449
6.17 0.0621905
6.18 0.0674183
6.19 0.0733491
6.2 0.0798775
6.21 0.0868745
6.22 0.0941925
6.23 0.101669
6.24 0.109098
6.25 0.116308
6.26 0.123131
6.27 0.129411
6.28 0.135005
6.29 0.139742
6.3 0.143505
6.31 0.146281
6.32 0.148038
6.33 0.148769
6.34 0.148501
6.35 0.147286
6.36 0.145124
6.37 0.142212
6.38 0.138687
6.39 0.134688
6.4 0.130362
6.41 0.125861
6.42 0.121339
6.43 0.116964
6.44 0.112862
6.45 0.109147
6.46 0.105911
6.47 0.103225
6.48 0.101137
6.49 0.099729
6.5 0.0989508
6.51 0.0987589
6.52 0.0991024
6.53 0.0999125
6.54 0.101105
6.55 0.10259
6.56 0.104259
6.57 0.105981
6.58 0.107649
6.59 0.109163
6.6 0.110428
6.61 0.111362
6.62 0.111857
6.63 0.111878
6.64 0.111406
6.65 0.110425
6.66 0.108937
6.67 0.106961
6.68 0.104522
6.69 0.10164
6.7 0.0984168
6.71 0.0949192
6.72 0.0912174
6.73 0.087384
6.74 0.083491
6.75 0.0796128
6.76 0.0758208
6.77 0.072169
6.78 0.0687034
6.79 0.0654603
6.8 0.0624662
6.81 0.0597397
6.82 0.0573144
6.83 0.0551565
6.84 0.0532536
6.85 0.051587
6.86 0.0501333
6.87 0.0488653
6.88 0.0477618
6.89 0.0467882
6.9 0.0459076
6.91 0.045094
6.92 0.0443242
6.93 0.0435785
6.94 0.0428408
6.95 0.0420974
6.96 0.0413396
6.97 0.0405626
6.98 0.0397632
6.99 0.0389401
7 0.0380922
7.01 0.037217
7.02 0.0363111
7.03 0.0353716
7.04 0.0343916
7.05 0.0333615
7.06 0.0322687
7.07 0.0310984
7.08 0.0298215
7.09 0.0284252
7.1 0.0268912
7.11 0.0251997
7.12 0.0233327
7.13 0.0212744
7.14 0.0190043
7.15 0.0165064
7.16 0.0137962
7.17 0.0108798
7.18 0.00777015
7.19 0.00448729
7.2 0.00105844
7.21 -0.00248888
7.22 -0.00610111
7.23 -0.00972865
7.24 -0.0133207
7.25 -0.0168238
7.26 -0.0201835
7.27 -0.0233387
7.28 -0.0262158
7.29 -0.0287864
7.3 -0.0310094
7.31 -0.0328504
7.32 -0.0342836
7.33 -0.0352919
7.34 -0.0358331
7.35 -0.0359315
7.36 -0.035618
7.37 -0.0349178
7.38 -0.0338648
7.39 -0.0325009
7.4 -0.0308715
7.41 -0.0290212
7.42 -0.0270345
7.43 -0.0249725
7.44 -0.0228967
7.45 -0.0208675
7.46 -0.0189424
7.47 -0.0171892
7.48 -0.0156583
7.49 -0.0143815
7.5 -0.0133909
7.51 -0.012711
7.52 -0.0123578
7.53 -0.0123412
7.54 -0.0126954
7.55 -0.0133732
7.56 -0.0143581
7.57 -0.0156274
7.58 -0.0171532
7.59 -0.0189036
7.6 -0.0208518
7.61 -0.022954
7.62 -0.0251604
7.63 -0.0274319
7.64 -0.0297299
7.65 -0.0320176
7.66 -0.0342599
7.67 -0.0364128
7.68 -0.0384533
7.69 -0.0403573
7.7 -0.042104
7.71 -0.0436765
7.72 -0.0450621
7.73 -0.0462425
7.74 -0.0472085
7.75 -0.0479742
7.76 -0.0485439
7.77 -0.0489255
7.78 -0.0491304
7.79 -0.0491733
7.8 -0.0490595
7.81 -0.0488245
7.82 -0.048494
7.83 -0.0480932
7.84 -0.0476487
7.85 -0.0471877
7.86 -0.046739
7.87 -0.0463348
7.88 -0.0459988
7.89 -0.0457535
7.9 -0.0456186
7.91 -0.0456098
7.92 -0.0457383
7.93 -0.0460228
7.94 -0.0464535
7.95 -0.0470188
7.96 -0.0477046
7.97 -0.0484904
7.98 -0.0493496
7.99 -0.05025
8 -0.0511492
8.01 -0.0520018
8.02 -0.0527633
8.03 -0.0533878
8.04 -0.0538303
8.05 -0.0540474
8.06 -0.0539761
8.07 -0.0535896
8.08 -0.0528734
8.09 -0.0518114
8.1 -0.0503978
8.11 -0.0486375
8.12 -0.0465425
8.13 -0.0441194
8.14 -0.0414445
8.15 -0.0385713
8.16 -0.035563
8.17 -0.0324905
8.18 -0.0294311
8.19 -0.026478
8.2 -0.0237244
8.21 -0.0212455
8.22 -0.0191173
8.23 -0.0174083
8.24 -0.0161773
8.25 -0.0154724
8.26 -0.015389
8.27 -0.015878
8.28 -0.0169334
8.29 -0.0185313
8.3 -0.0206303
8.31 -0.0231718
8.32 -0.0260971
8.33 -0.0293037
8.34 -0.0326675
8.35 -0.0360785
8.36 -0.0394221
8.37 -0.0425827
8.38 -0.0454474
8.39 -0.0478544
8.4 -0.0497405
8.41 -0.0510287
8.42 -0.0516558
8.43 -0.051577
8.44 -0.0507682
8.45 -0.0491939
8.46 -0.0468601
8.47 -0.0438649
8.48 -0.0402736
8.49 -0.0361688
8.5 -0.0316483
8.51 -0.0268214
8.52 -0.0217998
8.53 -0.0167343
8.54 -0.0117501
8.55 -0.00696436
8.56 -0.0024855
8.57 0.00159003
8.58 0.00516203
8.59 0.00813427
8.6 0.0105099
8.61 0.0122721
8.62 0.0134251
8.63 0.0139944
8.64 0.0140247
8.65 0.0135443
8.66 0.0126703
8.67 0.0115094
8.68 0.0101618
8.69 0.00873149
8.7 0.00732221
8.71 0.00603886
8.72 0.00499923
8.73 0.00426756
8.74 0.00390641
8.75 0.0039615
8.76 0.00446016
8.77 0.00541062
8.78 0.00683311
8.79 0.0086756
8.8 0.0108691
8.81 0.0133484
8.82 0.0160365
8.83 0.0188482
8.84 0.0216926
8.85 0.0244617
8.86 0.0270659
8.87 0.0294245
8.88 0.0314666
8.89 0.0331344
8.9 0.0343847
8.91 0.0351616
8.92 0.0354637
8.93 0.0353278
8.94 0.0347846
8.95 0.03388
8.96 0.0326738
8.97 0.0312362
8.98 0.0296383
8.99 0.0279889
9 0.0263722
9.01 0.0248691
9.02 0.0235537
9.03 0.0224906
9.04 0.0217506
9.05 0.0213778
9.06 0.0213695
9.07 0.0217258
9.08 0.0224296
9.09 0.0234478
9.1 0.0247322
9.11 0.0262359
9.12 0.0278589
9.13 0.0295192
9.14 0.0311337
9.15 0.0326198
9.16 0.0338991
9.17 0.0348855
9.18 0.0355007
9.19 0.0357225
9.2 0.0355233
9.21 0.0348921
9.22 0.0338362
9.23 0.0323803
9.24 0.0305373
9.25 0.0284006
9.26 0.0260513
9.27 0.0235733
9.28 0.0210568
9.29 0.0185953
9.3 0.0162892
9.31 0.0142509
9.32 0.0125443
9.33 0.0112351
9.34 0.0103744
9.35 0.00999604
9.36 0.0101157
9.37 0.0107694
9.38 0.0119017
9.39 0.0134494
9.4 0.0153489
9.41 0.0175216
9.42 0.0198775
9.43 0.0223173
9.44 0.0247227
9.45 0.0269836
9.46 0.0290004
9.47 0.0306815
9.48 0.0319467
9.49 0.0327303
9.5 0.0329423
9.51 0.0325683
9.52 0.0316281
9.53 0.0301386
9.54 0.0281366
9.55 0.0256781
9.56 0.0228326
9.57 0.0196699
9.58 0.0163298
9.59 0.0129185
9.6 0.00954494
9.61 0.00631626
9.62 0.00333422
9.63 0.000717898
9.64 -0.00144562
9.65 -0.00311571
9.66 -0.00425075
9.67 -0.00482875
9.68 -0.00484797
9.69 -0.00432691
9.7 -0.00325188
9.71 -0.00174429
9.72 0.000119992
9.73 0.00225407
9.74 0.00456254
9.75 0.00694514
9.76 0.00929377
9.77 0.0114941
9.78 0.0134594
9.79 0.0151109
9.8 0.0163837
9.81 0.0172287
9.82 0.0176148
9.83 0.0174809
9.84 0.0168813
9.85 0.0158523
9.86 0.0144414
9.87 0.0127113
9.88 0.0107371
9.89 0.00860128
9.9 0.00640647
9.91 0.00425808
9.92 0.00224871
9.93 0.000465669
9.94 -0.00101221
9.95 -0.00211749
9.96 -0.00275326
9.97 -0.00291019
9.98 -0.00258292
9.99 -0.00177366
10 -0.000502272
10.01 0.0011946
10.02 0.00327379
10.03 0.00567753
10.04 0.00829512
10.05 0.0110406
10.06 0.0138242
10.07 0.016555
10.08 0.0191449
10.09 0.0214864
10.1 0.0235077
10.11 0.0251569
10.12 0.026387
10.13 0.027166
10.14 0.027477
10.15 0.0273109
10.16 0.0266488
10.17 0.0255697
10.18 0.0241187
10.19 0.0223513
10.2 0.0203315
10.21 0.0181289
10.22 0.0158141
10.23 0.0134732
10.24 0.0111807
10.25 0.00900132
10.26 0.00699249
10.27 0.00520243
10.28 0.003671
10.29 0.00245566
10.3 0.00153887
10.31 0.000920513
10.32 0.000589474
10.33 0.000524681
10.34 0.000696413
10.35 0.00107725
10.36 0.0016175
10.37 0.00226034
10.38 0.00295926
10.39 0.00366888
10.4 0.00434671
10.41 0.00495459
10.42 0.0054455
10.43 0.00580358
10.44 0.00601257
10.45 0.00606322
10.46 0.00595346
10.47 0.00568797
10.48 0.00527106
10.49 0.00471872
10.5 0.00406075
10.51 0.00331923
10.52 0.0025169
10.53 0.00167595
10.54 0.000816732
10.55 -4.17961e-05
10.56 -0.000884948
10.57 -0.00170427
10.58 -0.00249582
10.59 -0.00326012
10.6 -0.00400182
10.61 -0.004729
10.62 -0.00545427
10.63 -0.00619159
10.64 -0.00695418
10.65 -0.00775437
10.66 -0.00860241
10.67 -0.00950543
10.68 -0.0104715
10.69 -0.0114939
10.7 -0.0125622
10.71 -0.0136619
10.72 -0.0147729
10.73 -0.0158699
10.74 -0.0169212
10.75 -0.0178838
10.76 -0.0187266
10.77 -0.0194132
10.78 -0.0199087
10.79 -0.0201808
10.8 -0.0202015
10.81 -0.0199257
10.82 -0.0193497
10.83 -0.0184798
10.84 -0.0173214
10.85 -0.0158897
10.86 -0.0142097
10.87 -0.0123137
10.88 -0.0102373
10.89 -0.00805498
10.9 -0.00582622
10.91 -0.00361491
10.92 -0.00148724
10.93 0.000490369
10.94 0.00223438
10.95 0.00368106
10.96 0.00478941
10.97 0.00551634
10.98 0.00582923
10.99 0.00570717
11 0.00514002
11.01 0.00408785
11.02 0.00262291
11.03 0.000780418
11.04 -0.00139233
11.05 -0.00383727
11.06 -0.00648718
11.07 -0.0092703
11.08 -0.0120943
11.09 -0.0148699
11.1 -0.0175152
11.11 -0.0199515
11.12 -0.0221056
11.13 -0.0239115
11.14 -0.0252636
11.15 -0.0261568
11.16 -0.026565
11.17 -0.0264732
11.18 -0.02588
11.19 -0.024798
11.2 -0.0232335
11.21 -0.0212217
11.22 -0.0188474
11.23 -0.0161715
11.24 -0.0132623
11.25 -0.0101929
11.26 -0.00703906
11.27 -0.00388393
11.28 -0.000810444
11.29 0.00211197
11.3 0.00482008
11.31 0.00725842
11.32 0.00938056
11.33 0.0111367
11.34 0.0124817
11.35 0.0134332
11.36 0.0139904
11.37 0.0141629
11.38 0.01397
11.39 0.0134392
11.4 0.0125827
11.41 0.0114654
11.42 0.0101423
11.43 0.00866208
11.44 0.00707453
11.45 0.00542873
11.46 0.00377275
11.47 0.00215817
11.48 0.00062375
11.49 -0.000797191
11.5 -0.00207707
11.51 -0.00319438
11.52 -0.00413378
11.53 -0.00487132
11.54 -0.00541108
11.55 -0.00576394
11.56 -0.00593787
11.57 -0.00594485
11.58 -0.0058
11.59 -0.00551946
11.6 -0.00511464
11.61 -0.0046195
11.62 -0.00405452
11.63 -0.00343974
11.64 -0.00279421
11.65 -0.00213567
11.66 -0.00148144
11.67 -0.000847571
11.68 -0.000245663
11.69 0.000314331
11.7 0.000824299
11.71 0.00127786
11.72 0.00167008
11.73 0.00199005
11.74 0.00224314
11.75 0.00242862
11.76 0.0025467
11.77 0.00259844
11.78 0.00258567
11.79 0.0025077
11.8 0.00236804
11.81 0.00217473
