# xPDFsuite Configuration #
[PDF]
wavelength = 0.1
dataformat = QA
inputfile = BiMsol6_insitu_700 C-00431.xy
backgroundfile = Quartz2mm-dist500-00000.xy
mode = xray
bgscale = 0.0042
composition = Bi2Fe4O9
outputtype = gr
qmaxinst = 24.998449118
qmin = 0.1
qmax = 21.4986662415
rmax = 80.0
rmin = 0.0
rstep = 0.01
rpoly = 0.9

[Misc]
inputdir = C:/Data/Seafile/CPH/Beamtime/Desy Oct 20/In situ data/Processed/BiMsol6/PDF
savedir = C:/Data/Seafile/CPH/Beamtime/Desy Oct 20/In situ data/PDF/BiMsol6
backgroundfilefull = C:/Data/Seafile/CPH/Beamtime/Desy Oct 20/In situ data/Processed/Standard_Empty_Cap/Quartz2mm-dist500-00000.xy

#### start data
#S 1
#L r($\AA$)  G($\AA^{-2}$)
0 0
0.01 0.00674827
0.02 0.0131188
0.03 0.0187881
0.04 0.0234658
0.05 0.0269079
0.06 0.0289279
0.07 0.0293214
0.08 0.0280274
0.09 0.0251939
0.1 0.020942
0.11 0.0154605
0.12 0.00899764
0.13 0.00185025
0.14 -0.00564926
0.15 -0.0130778
0.16 -0.0200789
0.17 -0.0263174
0.18 -0.0314924
0.19 -0.0353511
0.2 -0.0376336
0.21 -0.03816
0.22 -0.0370275
0.23 -0.0343003
0.24 -0.0301242
0.25 -0.0247213
0.26 -0.0183822
0.27 -0.0114358
0.28 -0.00436405
0.29 0.0024041
0.3 0.00845159
0.31 0.0133807
0.32 0.0168323
0.33 0.0184423
0.34 0.0178525
0.35 0.0151083
0.36 0.0101991
0.37 0.00322217
0.38 -0.00561599
0.39 -0.016002
0.4 -0.0275746
0.41 -0.0396977
0.42 -0.0517455
0.43 -0.0630813
0.44 -0.0730443
0.45 -0.0809744
0.46 -0.0861724
0.47 -0.0877381
0.48 -0.0854628
0.49 -0.078973
0.5 -0.0680199
0.51 -0.0524948
0.52 -0.0324393
0.53 -0.00776412
0.54 0.0209767
0.55 0.0530445
0.56 0.087755
0.57 0.124304
0.58 0.161789
0.59 0.199227
0.6 0.235365
0.61 0.269202
0.62 0.299737
0.63 0.32603
0.64 0.347232
0.65 0.362612
0.66 0.371156
0.67 0.372442
0.68 0.366632
0.69 0.353716
0.7 0.333876
0.71 0.307479
0.72 0.275065
0.73 0.236826
0.74 0.194302
0.75 0.148485
0.76 0.100431
0.77 0.0512377
0.78 0.0020151
0.79 -0.0460414
0.8 -0.0917226
0.81 -0.134192
0.82 -0.17265
0.83 -0.206436
0.84 -0.235048
0.85 -0.25815
0.86 -0.274994
0.87 -0.286135
0.88 -0.291876
0.89 -0.292591
0.9 -0.288791
0.91 -0.2811
0.92 -0.270138
0.93 -0.256702
0.94 -0.241843
0.95 -0.226369
0.96 -0.21106
0.97 -0.196638
0.98 -0.18375
0.99 -0.173181
1 -0.165255
1.01 -0.160203
1.02 -0.158178
1.03 -0.159206
1.04 -0.163194
1.05 -0.170003
1.06 -0.179424
1.07 -0.19081
1.08 -0.203698
1.09 -0.21759
1.1 -0.231974
1.11 -0.246342
1.12 -0.26014
1.13 -0.272909
1.14 -0.284314
1.15 -0.294078
1.16 -0.302006
1.17 -0.307993
1.18 -0.311988
1.19 -0.31392
1.2 -0.314151
1.21 -0.312911
1.22 -0.310481
1.23 -0.307178
1.24 -0.30334
1.25 -0.29932
1.26 -0.295494
1.27 -0.292159
1.28 -0.289562
1.29 -0.287893
1.3 -0.287281
1.31 -0.287792
1.32 -0.289523
1.33 -0.292253
1.34 -0.295827
1.35 -0.300034
1.36 -0.304625
1.37 -0.30932
1.38 -0.313793
1.39 -0.317704
1.4 -0.320794
1.41 -0.322818
1.42 -0.32358
1.43 -0.322935
1.44 -0.320803
1.45 -0.317008
1.46 -0.311788
1.47 -0.305294
1.48 -0.297734
1.49 -0.289371
1.5 -0.280514
1.51 -0.271513
1.52 -0.262788
1.53 -0.254706
1.54 -0.247613
1.55 -0.24182
1.56 -0.237597
1.57 -0.235152
1.58 -0.234829
1.59 -0.236522
1.6 -0.240162
1.61 -0.24563
1.62 -0.252728
1.63 -0.261185
1.64 -0.270688
1.65 -0.280815
1.66 -0.291053
1.67 -0.300947
1.68 -0.310043
1.69 -0.317896
1.7 -0.324099
1.71 -0.328078
1.72 -0.329634
1.73 -0.328617
1.74 -0.324904
1.75 -0.318463
1.76 -0.309351
1.77 -0.297658
1.78 -0.28351
1.79 -0.267464
1.8 -0.249913
1.81 -0.231297
1.82 -0.212092
1.83 -0.192788
1.84 -0.173943
1.85 -0.156069
1.86 -0.139571
1.87 -0.124817
1.88 -0.112105
1.89 -0.10166
1.9 -0.0936552
1.91 -0.0883507
1.92 -0.0854343
1.93 -0.0847573
1.94 -0.0860929
1.95 -0.0891464
1.96 -0.0935667
1.97 -0.098997
1.98 -0.104937
1.99 -0.110913
2 -0.11651
2.01 -0.12134
2.02 -0.125059
2.03 -0.127373
2.04 -0.127867
2.05 -0.126584
2.06 -0.123483
2.07 -0.11861
2.08 -0.112089
2.09 -0.104122
2.1 -0.0949353
2.11 -0.0849138
2.12 -0.0745126
2.13 -0.0641455
2.14 -0.0542385
2.15 -0.0452132
2.16 -0.0374723
2.17 -0.0316001
2.18 -0.0277684
2.19 -0.0262059
2.2 -0.0270826
2.21 -0.0304914
2.22 -0.0364446
2.23 -0.0449793
2.24 -0.055977
2.25 -0.0690239
2.26 -0.0838207
2.27 -0.100017
2.28 -0.117226
2.29 -0.135034
2.3 -0.152992
2.31 -0.170626
2.32 -0.187541
2.33 -0.20338
2.34 -0.217833
2.35 -0.230646
2.36 -0.241562
2.37 -0.250358
2.38 -0.257155
2.39 -0.261992
2.4 -0.264973
2.41 -0.266262
2.42 -0.266075
2.43 -0.264594
2.44 -0.262219
2.45 -0.259302
2.46 -0.256163
2.47 -0.253116
2.48 -0.250454
2.49 -0.248466
2.5 -0.247466
2.51 -0.247559
2.52 -0.248865
2.53 -0.251448
2.54 -0.25532
2.55 -0.26044
2.56 -0.266794
2.57 -0.274181
2.58 -0.282373
2.59 -0.291161
2.6 -0.300319
2.61 -0.309611
2.62 -0.318795
2.63 -0.327587
2.64 -0.335799
2.65 -0.34325
2.66 -0.349792
2.67 -0.355312
2.68 -0.359731
2.69 -0.362938
2.7 -0.364949
2.71 -0.365864
2.72 -0.365755
2.73 -0.364714
2.74 -0.362855
2.75 -0.360301
2.76 -0.357132
2.77 -0.353553
2.78 -0.349679
2.79 -0.345615
2.8 -0.341443
2.81 -0.337226
2.82 -0.332998
2.83 -0.328769
2.84 -0.324518
2.85 -0.320199
2.86 -0.315748
2.87 -0.311084
2.88 -0.306113
2.89 -0.300681
2.9 -0.294715
2.91 -0.288124
2.92 -0.280822
2.93 -0.272738
2.94 -0.263818
2.95 -0.253993
2.96 -0.243228
2.97 -0.23161
2.98 -0.219181
2.99 -0.206008
3 -0.192175
3.01 -0.17778
3.02 -0.162903
3.03 -0.147707
3.04 -0.132321
3.05 -0.116858
3.06 -0.101423
3.07 -0.0861061
3.08 -0.0709904
3.09 -0.0561486
3.1 -0.0415906
3.11 -0.0273219
3.12 -0.0133264
3.13 0.000431808
3.14 0.0140062
3.15 0.0274612
3.16 0.0408915
3.17 0.054384
3.18 0.0680215
3.19 0.0818805
3.2 0.0960273
3.21 0.110521
3.22 0.125421
3.23 0.1407
3.24 0.156334
3.25 0.172278
3.26 0.188457
3.27 0.204775
3.28 0.221105
3.29 0.237284
3.3 0.253157
3.31 0.26856
3.32 0.283324
3.33 0.297284
3.34 0.310272
3.35 0.32202
3.36 0.332514
3.37 0.341659
3.38 0.349388
3.39 0.355662
3.4 0.360475
3.41 0.363766
3.42 0.36562
3.43 0.366208
3.44 0.365653
3.45 0.364096
3.46 0.361701
3.47 0.358641
3.48 0.355066
3.49 0.351232
3.5 0.34732
3.51 0.343501
3.52 0.339932
3.53 0.336753
3.54 0.334113
3.55 0.332129
3.56 0.33083
3.57 0.330257
3.58 0.330429
3.59 0.331339
3.6 0.332963
3.61 0.335326
3.62 0.338304
3.63 0.341821
3.64 0.345809
3.65 0.350197
3.66 0.354915
3.67 0.35991
3.68 0.365129
3.69 0.370511
3.7 0.376027
3.71 0.38166
3.72 0.387404
3.73 0.393264
3.74 0.39927
3.75 0.405436
3.76 0.411785
3.77 0.418343
3.78 0.425133
3.79 0.432173
3.8 0.439479
3.81 0.447062
3.82 0.454878
3.83 0.462894
3.84 0.471057
3.85 0.479302
3.86 0.487545
3.87 0.495672
3.88 0.503561
3.89 0.511094
3.9 0.518143
3.91 0.524574
3.92 0.530256
3.93 0.535041
3.94 0.538711
3.95 0.541248
3.96 0.542556
3.97 0.542554
3.98 0.541182
3.99 0.538394
4 0.534064
4.01 0.528226
4.02 0.520962
4.03 0.512309
4.04 0.502316
4.05 0.491045
4.06 0.478563
4.07 0.464845
4.08 0.450109
4.09 0.434445
4.1 0.417942
4.11 0.400686
4.12 0.382761
4.13 0.364213
4.14 0.345124
4.15 0.32559
4.16 0.305668
4.17 0.285407
4.18 0.264852
4.19 0.244045
4.2 0.223003
4.21 0.201791
4.22 0.180447
4.23 0.15901
4.24 0.137524
4.25 0.116034
4.26 0.0945954
4.27 0.0732752
4.28 0.0521298
4.29 0.0312233
4.3 0.0106221
4.31 -0.00960649
4.32 -0.0293956
4.33 -0.0486234
4.34 -0.0672684
4.35 -0.0852868
4.36 -0.102636
4.37 -0.119283
4.38 -0.135207
4.39 -0.150372
4.4 -0.164756
4.41 -0.178437
4.42 -0.19145
4.43 -0.20384
4.44 -0.215662
4.45 -0.22698
4.46 -0.237831
4.47 -0.248324
4.48 -0.258544
4.49 -0.268561
4.5 -0.278441
4.51 -0.288239
4.52 -0.298003
4.53 -0.307769
4.54 -0.317557
4.55 -0.327368
4.56 -0.337191
4.57 -0.346997
4.58 -0.356745
4.59 -0.366368
4.6 -0.375796
4.61 -0.384961
4.62 -0.393785
4.63 -0.402186
4.64 -0.410086
4.65 -0.417402
4.66 -0.424002
4.67 -0.429893
4.68 -0.435031
4.69 -0.43939
4.7 -0.442957
4.71 -0.445737
4.72 -0.447698
4.73 -0.448902
4.74 -0.449439
4.75 -0.449379
4.76 -0.448799
4.77 -0.447787
4.78 -0.446437
4.79 -0.444832
4.8 -0.443104
4.81 -0.441348
4.82 -0.439654
4.83 -0.438103
4.84 -0.436767
4.85 -0.435728
4.86 -0.43504
4.87 -0.434718
4.88 -0.434782
4.89 -0.43524
4.9 -0.436084
4.91 -0.437299
4.92 -0.438892
4.93 -0.440786
4.94 -0.442936
4.95 -0.445291
4.96 -0.4478
4.97 -0.450406
4.98 -0.453053
4.99 -0.455677
5 -0.458219
5.01 -0.460625
5.02 -0.462843
5.03 -0.464822
5.04 -0.46651
5.05 -0.467818
5.06 -0.468718
5.07 -0.469166
5.08 -0.469108
5.09 -0.468489
5.1 -0.467253
5.11 -0.465314
5.12 -0.462566
5.13 -0.459002
5.14 -0.454556
5.15 -0.449163
5.16 -0.442759
5.17 -0.435282
5.18 -0.426569
5.19 -0.416631
5.2 -0.405459
5.21 -0.393019
5.22 -0.379291
5.23 -0.364264
5.24 -0.347912
5.25 -0.330168
5.26 -0.311188
5.27 -0.291021
5.28 -0.269728
5.29 -0.247384
5.3 -0.224072
5.31 -0.199827
5.32 -0.174795
5.33 -0.149115
5.34 -0.122895
5.35 -0.0962408
5.36 -0.0692554
5.37 -0.042036
5.38 -0.0146732
5.39 0.012728
5.4 0.0400931
5.41 0.0673561
5.42 0.0944596
5.43 0.121353
5.44 0.147973
5.45 0.17428
5.46 0.200249
5.47 0.225845
5.48 0.251029
5.49 0.275756
5.5 0.299975
5.51 0.323554
5.52 0.346478
5.53 0.36866
5.54 0.390004
5.55 0.410396
5.56 0.429716
5.57 0.447755
5.58 0.46434
5.59 0.479401
5.6 0.492788
5.61 0.504356
5.62 0.513964
5.63 0.521484
5.64 0.526553
5.65 0.529289
5.66 0.529645
5.67 0.527581
5.68 0.523087
5.69 0.516183
5.7 0.50682
5.71 0.495032
5.72 0.481112
5.73 0.46521
5.74 0.447502
5.75 0.428183
5.76 0.40747
5.77 0.385498
5.78 0.36262
5.79 0.339094
5.8 0.315153
5.81 0.291017
5.82 0.266895
5.83 0.242986
5.84 0.219494
5.85 0.196535
5.86 0.174212
5.87 0.152606
5.88 0.131768
5.89 0.111722
5.9 0.0925372
5.91 0.0741447
5.92 0.05648
5.93 0.039492
5.94 0.023123
5.95 0.00731375
5.96 -0.00798242
5.97 -0.0227859
5.98 -0.0371767
5.99 -0.0511718
6 -0.0647694
6.01 -0.0779476
6.02 -0.0906632
6.03 -0.102806
6.04 -0.114297
6.05 -0.125051
6.06 -0.134951
6.07 -0.143868
6.08 -0.151671
6.09 -0.158211
6.1 -0.163217
6.11 -0.166709
6.12 -0.168594
6.13 -0.168797
6.14 -0.167269
6.15 -0.163991
6.16 -0.158865
6.17 -0.151967
6.18 -0.143473
6.19 -0.1335
6.2 -0.122194
6.21 -0.109727
6.22 -0.0962947
6.23 -0.0820463
6.24 -0.0673165
6.25 -0.0523367
6.26 -0.0373367
6.27 -0.0225389
6.28 -0.00815262
6.29 0.00559027
6.3 0.0184921
6.31 0.0304617
6.32 0.0413986
6.33 0.0512357
6.34 0.0599398
6.35 0.0675116
6.36 0.0738753
6.37 0.0792108
6.38 0.0836292
6.39 0.0872514
6.4 0.0902159
6.41 0.0926743
6.42 0.0947786
6.43 0.096707
6.44 0.0986404
6.45 0.100727
6.46 0.103101
6.47 0.10588
6.48 0.109162
6.49 0.113083
6.5 0.117657
6.51 0.122894
6.52 0.128794
6.53 0.135337
6.54 0.142484
6.55 0.150195
6.56 0.158416
6.57 0.167021
6.58 0.175925
6.59 0.185043
6.6 0.194289
6.61 0.203585
6.62 0.212853
6.63 0.222027
6.64 0.231061
6.65 0.239922
6.66 0.248588
6.67 0.25705
6.68 0.265307
6.69 0.273355
6.7 0.281235
6.71 0.288968
6.72 0.296578
6.73 0.304087
6.74 0.311513
6.75 0.31886
6.76 0.326128
6.77 0.333308
6.78 0.340373
6.79 0.347281
6.8 0.353979
6.81 0.360395
6.82 0.366404
6.83 0.371944
6.84 0.376914
6.85 0.381209
6.86 0.384721
6.87 0.387341
6.88 0.3889
6.89 0.389291
6.9 0.388486
6.91 0.386416
6.92 0.383023
6.93 0.378267
6.94 0.372128
6.95 0.364444
6.96 0.355392
6.97 0.345014
6.98 0.333364
6.99 0.320512
7 0.306541
7.01 0.2915
7.02 0.275491
7.03 0.258691
7.04 0.241211
7.05 0.22316
7.06 0.204647
7.07 0.185774
7.08 0.166619
7.09 0.1473
7.1 0.127897
7.11 0.108475
7.12 0.0890888
7.13 0.0697856
7.14 0.0506076
7.15 0.0315927
7.16 0.0127518
7.17 -0.00589912
7.18 -0.0243472
7.19 -0.0425812
7.2 -0.0605901
7.21 -0.0783381
7.22 -0.095824
7.23 -0.113034
7.24 -0.129946
7.25 -0.14653
7.26 -0.162755
7.27 -0.178573
7.28 -0.193913
7.29 -0.208768
7.3 -0.223097
7.31 -0.236858
7.32 -0.250011
7.33 -0.262523
7.34 -0.274305
7.35 -0.285364
7.36 -0.295708
7.37 -0.305334
7.38 -0.314245
7.39 -0.322455
7.4 -0.329976
7.41 -0.33679
7.42 -0.343007
7.43 -0.348675
7.44 -0.353848
7.45 -0.358583
7.46 -0.362938
7.47 -0.366956
7.48 -0.370707
7.49 -0.37426
7.5 -0.377659
7.51 -0.380945
7.52 -0.384146
7.53 -0.387284
7.54 -0.390363
7.55 -0.393386
7.56 -0.396338
7.57 -0.399197
7.58 -0.401926
7.59 -0.404485
7.6 -0.406807
7.61 -0.408828
7.62 -0.410501
7.63 -0.411764
7.64 -0.412557
7.65 -0.41282
7.66 -0.412497
7.67 -0.411464
7.68 -0.409742
7.69 -0.407304
7.7 -0.404126
7.71 -0.400199
7.72 -0.395521
7.73 -0.390069
7.74 -0.383853
7.75 -0.376961
7.76 -0.369438
7.77 -0.361337
7.78 -0.352722
7.79 -0.343661
7.8 -0.334201
7.81 -0.324462
7.82 -0.314533
7.83 -0.304497
7.84 -0.294438
7.85 -0.284439
7.86 -0.274588
7.87 -0.264981
7.88 -0.255675
7.89 -0.246735
7.9 -0.238219
7.91 -0.230179
7.92 -0.222658
7.93 -0.215747
7.94 -0.209442
7.95 -0.203748
7.96 -0.198678
7.97 -0.194236
7.98 -0.190422
7.99 -0.187244
8 -0.184726
8.01 -0.182792
8.02 -0.181416
8.03 -0.18057
8.04 -0.180222
8.05 -0.180337
8.06 -0.180909
8.07 -0.181876
8.08 -0.183182
8.09 -0.184788
8.1 -0.186652
8.11 -0.188736
8.12 -0.191004
8.13 -0.193426
8.14 -0.195949
8.15 -0.198539
8.16 -0.201164
8.17 -0.203793
8.18 -0.206396
8.19 -0.208939
8.2 -0.21139
8.21 -0.213725
8.22 -0.215914
8.23 -0.217928
8.24 -0.219736
8.25 -0.221304
8.26 -0.222561
8.27 -0.223497
8.28 -0.22407
8.29 -0.224232
8.3 -0.223935
8.31 -0.223127
8.32 -0.221718
8.33 -0.219636
8.34 -0.216857
8.35 -0.21332
8.36 -0.208964
8.37 -0.203729
8.38 -0.197559
8.39 -0.190285
8.4 -0.181957
8.41 -0.17254
8.42 -0.162002
8.43 -0.15032
8.44 -0.137477
8.45 -0.123418
8.46 -0.108122
8.47 -0.0916943
8.48 -0.0741676
8.49 -0.0555864
8.5 -0.0360056
8.51 -0.01549
8.52 0.00596293
8.53 0.0281928
8.54 0.0510941
8.55 0.0745731
8.56 0.0985333
8.57 0.122877
8.58 0.147514
8.59 0.172344
8.6 0.197257
8.61 0.222166
8.62 0.246992
8.63 0.271664
8.64 0.296116
8.65 0.320262
8.66 0.344062
8.67 0.367483
8.68 0.39049
8.69 0.413051
8.7 0.435138
8.71 0.456716
8.72 0.477718
8.73 0.498167
8.74 0.518036
8.75 0.537291
8.76 0.555895
8.77 0.573805
8.78 0.59091
8.79 0.607166
8.8 0.622538
8.81 0.636949
8.82 0.650315
8.83 0.662547
8.84 0.673535
8.85 0.683042
8.86 0.6911
8.87 0.697608
8.88 0.702465
8.89 0.705579
8.9 0.706861
8.91 0.706101
8.92 0.703245
8.93 0.698341
8.94 0.691346
8.95 0.682235
8.96 0.670998
8.97 0.657638
8.98 0.641943
8.99 0.6242
9 0.604469
9.01 0.582825
9.02 0.559356
9.03 0.534163
9.04 0.507279
9.05 0.478831
9.06 0.449052
9.07 0.418082
9.08 0.386062
9.09 0.353139
9.1 0.319459
9.11 0.285121
9.12 0.250344
9.13 0.21528
9.14 0.180069
9.15 0.14485
9.16 0.109757
9.17 0.0749397
9.18 0.0405544
9.19 0.0067038
9.2 -0.0264924
9.21 -0.0589178
9.22 -0.0904589
9.23 -0.121005
9.24 -0.150332
9.25 -0.178406
9.26 -0.205149
9.27 -0.230464
9.28 -0.254254
9.29 -0.276431
9.3 -0.296851
9.31 -0.315329
9.32 -0.33194
9.33 -0.346618
9.34 -0.359308
9.35 -0.369961
9.36 -0.378542
9.37 -0.384845
9.38 -0.388964
9.39 -0.390967
9.4 -0.390866
9.41 -0.388685
9.42 -0.384461
9.43 -0.378201
9.44 -0.369828
9.45 -0.359605
9.46 -0.347614
9.47 -0.333947
9.48 -0.3187
9.49 -0.301979
9.5 -0.2838
9.51 -0.264334
9.52 -0.243755
9.53 -0.22218
9.54 -0.199726
9.55 -0.176508
9.56 -0.152637
9.57 -0.128184
9.58 -0.103324
9.59 -0.078162
9.6 -0.0527986
9.61 -0.0273307
9.62 -0.00185195
9.63 0.0235372
9.64 0.0487382
9.65 0.0736732
9.66 0.0982623
9.67 0.122428
9.68 0.146094
9.69 0.169189
9.7 0.191557
9.71 0.213198
9.72 0.234045
9.73 0.254034
9.74 0.273103
9.75 0.291193
9.76 0.308193
9.77 0.324028
9.78 0.33872
9.79 0.352229
9.8 0.364519
9.81 0.375562
9.82 0.385333
9.83 0.393682
9.84 0.400719
9.85 0.406459
9.86 0.410912
9.87 0.41409
9.88 0.416016
9.89 0.416669
9.9 0.416045
9.91 0.414278
9.92 0.411411
9.93 0.407494
9.94 0.402578
9.95 0.396714
9.96 0.389879
9.97 0.382196
9.98 0.37374
9.99 0.364565
10 0.354722
10.01 0.344261
10.02 0.333214
10.03 0.321601
10.04 0.309515
10.05 0.296995
10.06 0.284081
10.07 0.270807
10.08 0.257209
10.09 0.2433
10.1 0.229133
10.11 0.214749
10.12 0.200184
10.13 0.185471
10.14 0.170647
10.15 0.155749
10.16 0.140817
10.17 0.125899
10.18 0.111037
10.19 0.0962766
10.2 0.0816611
10.21 0.0672369
10.22 0.0530705
10.23 0.0392081
10.24 0.0256836
10.25 0.0125401
10.26 -0.000181253
10.27 -0.0124425
10.28 -0.0242056
10.29 -0.0353831
10.3 -0.0460065
10.31 -0.0560576
10.32 -0.0655241
10.33 -0.0744002
10.34 -0.0826868
10.35 -0.0903575
10.36 -0.0974319
10.37 -0.103966
10.38 -0.10999
10.39 -0.11554
10.4 -0.120657
10.41 -0.125389
10.42 -0.129755
10.43 -0.133855
10.44 -0.137749
10.45 -0.1415
10.46 -0.14517
10.47 -0.148823
10.48 -0.152527
10.49 -0.156355
10.5 -0.160361
10.51 -0.1646
10.52 -0.169121
10.53 -0.17397
10.54 -0.179185
10.55 -0.184842
10.56 -0.190932
10.57 -0.197465
10.58 -0.204449
10.59 -0.211881
10.6 -0.219754
10.61 -0.228067
10.62 -0.236805
10.63 -0.245903
10.64 -0.255321
10.65 -0.265013
10.66 -0.274929
10.67 -0.285013
10.68 -0.295214
10.69 -0.305457
10.7 -0.315681
10.71 -0.325826
10.72 -0.335835
10.73 -0.345657
10.74 -0.355232
10.75 -0.364496
10.76 -0.373433
10.77 -0.382014
10.78 -0.390218
10.79 -0.398031
10.8 -0.405446
10.81 -0.412434
10.82 -0.419023
10.83 -0.425246
10.84 -0.431125
10.85 -0.43669
10.86 -0.441973
10.87 -0.447006
10.88 -0.451813
10.89 -0.456457
10.9 -0.460971
10.91 -0.46539
10.92 -0.469741
10.93 -0.474049
10.94 -0.478328
10.95 -0.48259
10.96 -0.486836
10.97 -0.491055
10.98 -0.495232
10.99 -0.49934
11 -0.503343
11.01 -0.507178
11.02 -0.510807
11.03 -0.514172
11.04 -0.517212
11.05 -0.519862
11.06 -0.522057
11.07 -0.523694
11.08 -0.524698
11.09 -0.525038
11.1 -0.524658
11.11 -0.523505
11.12 -0.521536
11.13 -0.518715
11.14 -0.514916
11.15 -0.510213
11.16 -0.504607
11.17 -0.498105
11.18 -0.490722
11.19 -0.482484
11.2 -0.473387
11.21 -0.463463
11.22 -0.45282
11.23 -0.441515
11.24 -0.429608
11.25 -0.417162
11.26 -0.404242
11.27 -0.390879
11.28 -0.377174
11.29 -0.363195
11.3 -0.348997
11.31 -0.334629
11.32 -0.320136
11.33 -0.30555
11.34 -0.290903
11.35 -0.276221
11.36 -0.261517
11.37 -0.246794
11.38 -0.232051
11.39 -0.21728
11.4 -0.20246
11.41 -0.18757
11.42 -0.172589
11.43 -0.157488
11.44 -0.142237
11.45 -0.126807
11.46 -0.111161
11.47 -0.095251
11.48 -0.0790693
11.49 -0.0625926
11.5 -0.0458006
11.51 -0.0286771
11.52 -0.0112105
11.53 0.00663347
11.54 0.0248432
11.55 0.0434005
11.56 0.0622963
11.57 0.0815168
11.58 0.101044
11.59 0.120859
11.6 0.140955
11.61 0.161273
11.62 0.18178
11.63 0.20244
11.64 0.223216
11.65 0.244068
11.66 0.264955
11.67 0.285828
11.68 0.306641
11.69 0.327351
11.7 0.347912
11.71 0.368279
11.72 0.388405
11.73 0.408204
11.74 0.427658
11.75 0.446718
11.76 0.465333
11.77 0.483454
11.78 0.501029
11.79 0.517969
11.8 0.53421
11.81 0.549734
11.82 0.564488
11.83 0.578417
11.84 0.591468
11.85 0.603585
11.86 0.614605
11.87 0.624569
11.88 0.633435
11.89 0.641156
11.9 0.647689
11.91 0.652991
11.92 0.656967
11.93 0.659542
11.94 0.66078
11.95 0.660658
11.96 0.659159
11.97 0.656268
11.98 0.65198
11.99 0.646156
12 0.63891
12.01 0.630282
12.02 0.620287
12.03 0.608949
12.04 0.596295
12.05 0.582318
12.06 0.566999
12.07 0.550489
12.08 0.532838
12.09 0.514102
12.1 0.494338
12.11 0.47361
12.12 0.451915
12.13 0.429384
12.14 0.406122
12.15 0.382208
12.16 0.357729
12.17 0.332773
12.18 0.307424
12.19 0.281771
12.2 0.255947
12.21 0.230054
12.22 0.204196
12.23 0.178477
12.24 0.153006
12.25 0.127924
12.26 0.103341
