# xPDFsuite Configuration #
[PDF]
wavelength = 0.1
dataformat = QA
inputfile = BiMsol6_insitu_700 C-00525.xy
backgroundfile = Quartz2mm-dist500-00000.xy
mode = xray
bgscale = 0.0042
composition = Bi2Fe4O9
outputtype = gr
qmaxinst = 24.998449118
qmin = 0.1
qmax = 21.4986662415
rmax = 80.0
rmin = 0.0
rstep = 0.01
rpoly = 0.9

[Misc]
inputdir = C:/Data/Seafile/CPH/Beamtime/Desy Oct 20/In situ data/Processed/BiMsol6/PDF
savedir = C:/Data/Seafile/CPH/Beamtime/Desy Oct 20/In situ data/PDF/BiMsol6
backgroundfilefull = C:/Data/Seafile/CPH/Beamtime/Desy Oct 20/In situ data/Processed/Standard_Empty_Cap/Quartz2mm-dist500-00000.xy

#### start data
#S 1
#L r($\AA$)  G($\AA^{-2}$)
0 0
0.01 0.00537545
0.02 0.0104391
0.03 0.0149242
0.04 0.018592
0.05 0.0212423
0.06 0.0227236
0.07 0.0228708
0.08 0.0216385
0.09 0.0191531
0.1 0.01552
0.11 0.0109006
0.12 0.00550553
0.13 -0.000415218
0.14 -0.00657805
0.15 -0.0126349
0.16 -0.0182911
0.17 -0.0232714
0.18 -0.027331
0.19 -0.0302675
0.2 -0.0318741
0.21 -0.0320153
0.22 -0.0307873
0.23 -0.0282591
0.24 -0.0245683
0.25 -0.0199166
0.26 -0.0145619
0.27 -0.008803
0.28 -0.00304858
0.29 0.00233674
0.3 0.00699971
0.31 0.0106073
0.32 0.0128635
0.33 0.0134699
0.34 0.0121387
0.35 0.00893753
0.36 0.00388303
0.37 -0.00291362
0.38 -0.0112459
0.39 -0.0208148
0.4 -0.0312676
0.41 -0.0420321
0.42 -0.0525484
0.43 -0.0622462
0.44 -0.0705381
0.45 -0.0768415
0.46 -0.0805405
0.47 -0.0808372
0.48 -0.0775807
0.49 -0.0704597
0.5 -0.0592771
0.51 -0.0439626
0.52 -0.0245818
0.53 -0.00108629
0.54 0.0259961
0.55 0.055978
0.56 0.0882208
0.57 0.121981
0.58 0.156428
0.59 0.19066
0.6 0.223521
0.61 0.254118
0.62 0.281545
0.63 0.304955
0.64 0.323583
0.65 0.336773
0.66 0.343609
0.67 0.343719
0.68 0.337269
0.69 0.324264
0.7 0.30488
0.71 0.279462
0.72 0.248515
0.73 0.212219
0.74 0.171993
0.75 0.128751
0.76 0.0834672
0.77 0.0371524
0.78 -0.00917052
0.79 -0.0543968
0.8 -0.097408
0.81 -0.137429
0.82 -0.173715
0.83 -0.205647
0.84 -0.232751
0.85 -0.254702
0.86 -0.270785
0.87 -0.281503
0.88 -0.287117
0.89 -0.287958
0.9 -0.284483
0.91 -0.277254
0.92 -0.266826
0.93 -0.253924
0.94 -0.239528
0.95 -0.224392
0.96 -0.209244
0.97 -0.194768
0.98 -0.181582
0.99 -0.170429
1 -0.161654
1.01 -0.155505
1.02 -0.152163
1.03 -0.151694
1.04 -0.154051
1.05 -0.15915
1.06 -0.16685
1.07 -0.176575
1.08 -0.187924
1.09 -0.200457
1.1 -0.213715
1.11 -0.227236
1.12 -0.240524
1.13 -0.253129
1.14 -0.26471
1.15 -0.274979
1.16 -0.28372
1.17 -0.290789
1.18 -0.296093
1.19 -0.299507
1.2 -0.301304
1.21 -0.301641
1.22 -0.300726
1.23 -0.298802
1.24 -0.296139
1.25 -0.293002
1.26 -0.289716
1.27 -0.286551
1.28 -0.28373
1.29 -0.28143
1.3 -0.279786
1.31 -0.27888
1.32 -0.278814
1.33 -0.279459
1.34 -0.280724
1.35 -0.282468
1.36 -0.28452
1.37 -0.286682
1.38 -0.288721
1.39 -0.290387
1.4 -0.291487
1.41 -0.29184
1.42 -0.291299
1.43 -0.28976
1.44 -0.287163
1.45 -0.283389
1.46 -0.278614
1.47 -0.272957
1.48 -0.266583
1.49 -0.259694
1.5 -0.25253
1.51 -0.245367
1.52 -0.238527
1.53 -0.232281
1.54 -0.226888
1.55 -0.222577
1.56 -0.219542
1.57 -0.217927
1.58 -0.217978
1.59 -0.219584
1.6 -0.222666
1.61 -0.227104
1.62 -0.232717
1.63 -0.239266
1.64 -0.246475
1.65 -0.253981
1.66 -0.261378
1.67 -0.268294
1.68 -0.274364
1.69 -0.279238
1.7 -0.282595
1.71 -0.283977
1.72 -0.283256
1.73 -0.280339
1.74 -0.275156
1.75 -0.267708
1.76 -0.258073
1.77 -0.246352
1.78 -0.232681
1.79 -0.217534
1.8 -0.201251
1.81 -0.184204
1.82 -0.166788
1.83 -0.149404
1.84 -0.132513
1.85 -0.116514
1.86 -0.101714
1.87 -0.0883911
1.88 -0.076762
1.89 -0.0669782
1.9 -0.0591483
1.91 -0.0534414
1.92 -0.0495757
1.93 -0.0474018
1.94 -0.0467116
1.95 -0.0472472
1.96 -0.048713
1.97 -0.0508055
1.98 -0.0531323
1.99 -0.0553394
2 -0.0571214
2.01 -0.0582068
2.02 -0.0583698
2.03 -0.0574352
2.04 -0.0551591
2.05 -0.0516497
2.06 -0.0469587
2.07 -0.0412076
2.08 -0.0345836
2.09 -0.0273332
2.1 -0.019755
2.11 -0.0122424
2.12 -0.00518053
2.13 0.00105384
2.14 0.00608968
2.15 0.00957593
2.16 0.0111951
2.17 0.0104181
2.18 0.00724104
2.19 0.00155269
2.2 -0.00670003
2.21 -0.0174928
2.22 -0.0307237
2.23 -0.0463059
2.24 -0.0639978
2.25 -0.0833138
2.26 -0.103878
2.27 -0.125279
2.28 -0.147078
2.29 -0.168829
2.3 -0.190001
2.31 -0.210168
2.32 -0.228963
2.33 -0.246056
2.34 -0.261176
2.35 -0.274118
2.36 -0.284667
2.37 -0.292653
2.38 -0.298305
2.39 -0.301733
2.4 -0.30311
2.41 -0.302671
2.42 -0.300698
2.43 -0.297437
2.44 -0.293348
2.45 -0.288829
2.46 -0.284235
2.47 -0.279907
2.48 -0.276159
2.49 -0.273292
2.5 -0.271636
2.51 -0.271266
2.52 -0.272284
2.53 -0.274733
2.54 -0.278596
2.55 -0.283798
2.56 -0.290291
2.57 -0.29783
2.58 -0.306148
2.59 -0.314999
2.6 -0.324125
2.61 -0.333259
2.62 -0.342133
2.63 -0.350426
2.64 -0.357953
2.65 -0.36453
2.66 -0.370012
2.67 -0.374294
2.68 -0.377315
2.69 -0.378981
2.7 -0.379346
2.71 -0.378555
2.72 -0.376721
2.73 -0.373985
2.74 -0.370511
2.75 -0.366473
2.76 -0.362034
2.77 -0.357434
2.78 -0.352843
2.79 -0.348412
2.8 -0.344271
2.81 -0.340523
2.82 -0.33727
2.83 -0.334559
2.84 -0.332361
2.85 -0.330647
2.86 -0.329363
2.87 -0.328427
2.88 -0.327742
2.89 -0.327196
2.9 -0.32664
2.91 -0.325949
2.92 -0.325003
2.93 -0.323689
2.94 -0.32191
2.95 -0.319557
2.96 -0.31654
2.97 -0.312863
2.98 -0.308507
2.99 -0.303474
3 -0.297779
3.01 -0.291454
3.02 -0.284485
3.03 -0.276968
3.04 -0.268961
3.05 -0.260504
3.06 -0.251628
3.07 -0.242352
3.08 -0.232664
3.09 -0.222521
3.1 -0.211915
3.11 -0.200783
3.12 -0.189046
3.13 -0.176607
3.14 -0.163358
3.15 -0.149089
3.16 -0.133714
3.17 -0.117146
3.18 -0.0992766
3.19 -0.0800139
3.2 -0.0592877
3.21 -0.0370231
3.22 -0.0130971
3.23 0.0123102
3.24 0.0391255
3.25 0.0672356
3.26 0.0964876
3.27 0.12669
3.28 0.157651
3.29 0.189048
3.3 0.220561
3.31 0.251882
3.32 0.28269
3.33 0.312663
3.34 0.341467
3.35 0.368618
3.36 0.393963
3.37 0.417252
3.38 0.438264
3.39 0.456821
3.4 0.472785
3.41 0.485891
3.42 0.496116
3.43 0.503619
3.44 0.508454
3.45 0.510717
3.46 0.510539
3.47 0.508084
3.48 0.50332
3.49 0.496717
3.5 0.4885
3.51 0.478894
3.52 0.468125
3.53 0.456409
3.54 0.443925
3.55 0.430878
3.56 0.417478
3.57 0.403866
3.58 0.390159
3.59 0.376452
3.6 0.362817
3.61 0.349325
3.62 0.336
3.63 0.322859
3.64 0.309912
3.65 0.297164
3.66 0.284618
3.67 0.272291
3.68 0.260205
3.69 0.248371
3.7 0.236825
3.71 0.225619
3.72 0.214816
3.73 0.204496
3.74 0.194813
3.75 0.185843
3.76 0.177686
3.77 0.170459
3.78 0.164282
3.79 0.159271
3.8 0.155577
3.81 0.153393
3.82 0.152687
3.83 0.153525
3.84 0.15595
3.85 0.159986
3.86 0.165632
3.87 0.17299
3.88 0.181926
3.89 0.192307
3.9 0.204035
3.91 0.216994
3.92 0.23105
3.93 0.246073
3.94 0.261952
3.95 0.278433
3.96 0.295353
3.97 0.312551
3.98 0.329869
3.99 0.347158
4 0.364258
4.01 0.381026
4.02 0.397358
4.03 0.413155
4.04 0.42833
4.05 0.442809
4.06 0.456521
4.07 0.469328
4.08 0.48127
4.09 0.492314
4.1 0.50243
4.11 0.51159
4.12 0.519768
4.13 0.526879
4.14 0.532894
4.15 0.537844
4.16 0.541699
4.17 0.544427
4.18 0.545995
4.19 0.546369
4.2 0.545372
4.21 0.543104
4.22 0.539539
4.23 0.534654
4.24 0.528431
4.25 0.520857
4.26 0.511863
4.27 0.501432
4.28 0.489674
4.29 0.476618
4.3 0.4623
4.31 0.44677
4.32 0.430084
4.33 0.412202
4.34 0.393299
4.35 0.373467
4.36 0.352789
4.37 0.331345
4.38 0.309219
4.39 0.286472
4.4 0.263172
4.41 0.239441
4.42 0.215347
4.43 0.190957
4.44 0.166332
4.45 0.141527
4.46 0.116589
4.47 0.0915797
4.48 0.0665491
4.49 0.0415428
4.5 0.0166071
4.51 -0.0082107
4.52 -0.0328544
4.53 -0.057249
4.54 -0.0813514
4.55 -0.105098
4.56 -0.128422
4.57 -0.151249
4.58 -0.173504
4.59 -0.195049
4.6 -0.21582
4.61 -0.235764
4.62 -0.254802
4.63 -0.272861
4.64 -0.289875
4.65 -0.305767
4.66 -0.320387
4.67 -0.333815
4.68 -0.346034
4.69 -0.357041
4.7 -0.366847
4.71 -0.375482
4.72 -0.382915
4.73 -0.38924
4.74 -0.394588
4.75 -0.399045
4.76 -0.402711
4.77 -0.40569
4.78 -0.40809
4.79 -0.409986
4.8 -0.411552
4.81 -0.412895
4.82 -0.414113
4.83 -0.4153
4.84 -0.416533
4.85 -0.41789
4.86 -0.41943
4.87 -0.42118
4.88 -0.423156
4.89 -0.425362
4.9 -0.427786
4.91 -0.430401
4.92 -0.433181
4.93 -0.436052
4.94 -0.438955
4.95 -0.44182
4.96 -0.444578
4.97 -0.447155
4.98 -0.449462
4.99 -0.451408
5 -0.452946
5.01 -0.454014
5.02 -0.454556
5.03 -0.454526
5.04 -0.453883
5.05 -0.45253
5.06 -0.450497
5.07 -0.447782
5.08 -0.444381
5.09 -0.440297
5.1 -0.43554
5.11 -0.430102
5.12 -0.423978
5.13 -0.417247
5.14 -0.409939
5.15 -0.402087
5.16 -0.393726
5.17 -0.384894
5.18 -0.375595
5.19 -0.365904
5.2 -0.355875
5.21 -0.345554
5.22 -0.334988
5.23 -0.324226
5.24 -0.313317
5.25 -0.302312
5.26 -0.291277
5.27 -0.280268
5.28 -0.269338
5.29 -0.258542
5.3 -0.247932
5.31 -0.237582
5.32 -0.227537
5.33 -0.217832
5.34 -0.208505
5.35 -0.19959
5.36 -0.191113
5.37 -0.183101
5.38 -0.175609
5.39 -0.168592
5.4 -0.162045
5.41 -0.155955
5.42 -0.150304
5.43 -0.145066
5.44 -0.140235
5.45 -0.135766
5.46 -0.131601
5.47 -0.127706
5.48 -0.124042
5.49 -0.120576
5.5 -0.117277
5.51 -0.114134
5.52 -0.111108
5.53 -0.108188
5.54 -0.105369
5.55 -0.10265
5.56 -0.100038
5.57 -0.097552
5.58 -0.0952124
5.59 -0.0930301
5.6 -0.0910243
5.61 -0.0892125
5.62 -0.0876092
5.63 -0.0862232
5.64 -0.0850795
5.65 -0.0841468
5.66 -0.0834032
5.67 -0.0828173
5.68 -0.0823458
5.69 -0.0819339
5.7 -0.0815111
5.71 -0.080986
5.72 -0.080272
5.73 -0.0792755
5.74 -0.0778988
5.75 -0.0760436
5.76 -0.0736135
5.77 -0.0704447
5.78 -0.066499
5.79 -0.0617229
5.8 -0.0560649
5.81 -0.0494909
5.82 -0.0419869
5.83 -0.0335303
5.84 -0.0241115
5.85 -0.0138647
5.86 -0.00286801
5.87 0.00878098
5.88 0.0209672
5.89 0.033561
5.9 0.046431
5.91 0.0593945
5.92 0.0722915
5.93 0.0849716
5.94 0.0972909
5.95 0.109115
5.96 0.12031
5.97 0.13071
5.98 0.140299
5.99 0.149027
6 0.156864
6.01 0.163809
6.02 0.169882
6.03 0.175071
6.04 0.179482
6.05 0.183237
6.06 0.186439
6.07 0.189201
6.08 0.19164
6.09 0.193875
6.1 0.196027
6.11 0.198219
6.12 0.200543
6.13 0.203073
6.14 0.205865
6.15 0.20895
6.16 0.212356
6.17 0.216058
6.18 0.219994
6.19 0.224095
6.2 0.228272
6.21 0.232418
6.22 0.236412
6.23 0.240073
6.24 0.243285
6.25 0.245908
6.26 0.247809
6.27 0.248863
6.28 0.248957
6.29 0.247937
6.3 0.245705
6.31 0.242283
6.32 0.237649
6.33 0.231804
6.34 0.224776
6.35 0.216615
6.36 0.207291
6.37 0.197011
6.38 0.185898
6.39 0.174077
6.4 0.161682
6.41 0.14885
6.42 0.13571
6.43 0.12241
6.44 0.109091
6.45 0.0958665
6.46 0.0828312
6.47 0.0700654
6.48 0.0576312
6.49 0.0456097
6.5 0.0339983
6.51 0.0227906
6.52 0.0119727
6.53 0.00151693
6.54 -0.00861613
6.55 -0.0184678
6.56 -0.0280872
6.57 -0.0375533
6.58 -0.0469207
6.59 -0.0562394
6.6 -0.0655523
6.61 -0.0748928
6.62 -0.084288
6.63 -0.0937438
6.64 -0.103251
6.65 -0.112789
6.66 -0.122323
6.67 -0.131807
6.68 -0.141182
6.69 -0.15036
6.7 -0.159279
6.71 -0.167864
6.72 -0.176035
6.73 -0.183718
6.74 -0.190839
6.75 -0.197282
6.76 -0.202997
6.77 -0.207965
6.78 -0.212147
6.79 -0.215515
6.8 -0.218051
6.81 -0.219739
6.82 -0.220497
6.83 -0.220426
6.84 -0.219541
6.85 -0.217861
6.86 -0.215408
6.87 -0.212202
6.88 -0.208219
6.89 -0.20348
6.9 -0.198037
6.91 -0.191894
6.92 -0.185047
6.93 -0.177488
6.94 -0.1692
6.95 -0.160074
6.96 -0.150163
6.97 -0.139439
6.98 -0.12787
6.99 -0.115425
7 -0.102076
7.01 -0.0877508
7.02 -0.0724175
7.03 -0.0561331
7.04 -0.0389041
7.05 -0.0207495
7.06 -0.00170164
7.07 0.0181929
7.08 0.0389465
7.09 0.0604035
7.1 0.0824612
7.11 0.105016
7.12 0.127954
7.13 0.151154
7.14 0.174485
7.15 0.197798
7.16 0.22095
7.17 0.243808
7.18 0.266244
7.19 0.288138
7.2 0.309373
7.21 0.329767
7.22 0.349268
7.23 0.367816
7.24 0.385343
7.25 0.401796
7.26 0.41713
7.27 0.43128
7.28 0.444148
7.29 0.455826
7.3 0.466305
7.31 0.475584
7.32 0.483664
7.33 0.490546
7.34 0.496137
7.35 0.500489
7.36 0.503643
7.37 0.505593
7.38 0.506328
7.39 0.505835
7.4 0.504074
7.41 0.500918
7.42 0.49647
7.43 0.490706
7.44 0.483606
7.45 0.475152
7.46 0.465331
7.47 0.45404
7.48 0.441313
7.49 0.42723
7.5 0.411815
7.51 0.395106
7.52 0.377154
7.53 0.358018
7.54 0.33767
7.55 0.316336
7.56 0.294124
7.57 0.271153
7.58 0.247552
7.59 0.223461
7.6 0.199011
7.61 0.174377
7.62 0.149731
7.63 0.125223
7.64 0.101004
7.65 0.0772187
7.66 0.0540051
7.67 0.0315859
7.68 0.0100158
7.69 -0.0106033
7.7 -0.0301786
7.71 -0.0486307
7.72 -0.0658938
7.73 -0.0818556
7.74 -0.0964476
7.75 -0.109737
7.76 -0.121716
7.77 -0.132391
7.78 -0.141778
7.79 -0.149905
7.8 -0.156689
7.81 -0.162286
7.82 -0.166767
7.83 -0.170191
7.84 -0.172621
7.85 -0.174122
7.86 -0.174733
7.87 -0.174498
7.88 -0.173554
7.89 -0.171968
7.9 -0.169806
7.91 -0.167132
7.92 -0.164007
7.93 -0.160459
7.94 -0.156572
7.95 -0.152408
7.96 -0.148011
7.97 -0.143424
7.98 -0.138684
7.99 -0.133823
8 -0.128869
8.01 -0.123857
8.02 -0.11881
8.03 -0.113746
8.04 -0.108683
8.05 -0.103635
8.06 -0.0986165
8.07 -0.0936406
8.08 -0.0887157
8.09 -0.0838517
8.1 -0.0790587
8.11 -0.074347
8.12 -0.0697293
8.13 -0.0652286
8.14 -0.0608488
8.15 -0.0566046
8.16 -0.0525121
8.17 -0.0485881
8.18 -0.0448501
8.19 -0.0413308
8.2 -0.0380468
8.21 -0.0350042
8.22 -0.0322181
8.23 -0.0297011
8.24 -0.0274632
8.25 -0.0255116
8.26 -0.0238802
8.27 -0.0225326
8.28 -0.0214599
8.29 -0.0206482
8.3 -0.0200779
8.31 -0.0197241
8.32 -0.0195657
8.33 -0.0195629
8.34 -0.0196658
8.35 -0.0198326
8.36 -0.0200198
8.37 -0.0201835
8.38 -0.0202801
8.39 -0.0202523
8.4 -0.0200699
8.41 -0.0197017
8.42 -0.0191214
8.43 -0.0183097
8.44 -0.0172554
8.45 -0.0159446
8.46 -0.0143791
8.47 -0.0125937
8.48 -0.0106147
8.49 -0.00847608
8.5 -0.0062198
8.51 -0.00389406
8.52 -0.00155665
8.53 0.000726717
8.54 0.00289558
8.55 0.00488936
8.56 0.00664876
8.57 0.00811739
8.58 0.00922983
8.59 0.00991547
8.6 0.0101663
8.61 0.00995348
8.62 0.00925672
8.63 0.00806499
8.64 0.0063764
8.65 0.00415672
8.66 0.00145285
8.67 -0.0016955
8.68 -0.00525691
8.69 -0.00919483
8.7 -0.0134689
8.71 -0.0180421
8.72 -0.0228827
8.73 -0.0279211
8.74 -0.0331163
8.75 -0.0384308
8.76 -0.043831
8.77 -0.049288
8.78 -0.0547794
8.79 -0.060284
8.8 -0.0657892
8.81 -0.0712884
8.82 -0.0767792
8.83 -0.0822627
8.84 -0.0877426
8.85 -0.0932251
8.86 -0.0987161
8.87 -0.104221
8.88 -0.109742
8.89 -0.115279
8.9 -0.120831
8.91 -0.12639
8.92 -0.131943
8.93 -0.137473
8.94 -0.142961
8.95 -0.148384
8.96 -0.153717
8.97 -0.158933
8.98 -0.163984
8.99 -0.168858
9 -0.173531
9.01 -0.177982
9.02 -0.182195
9.03 -0.186157
9.04 -0.189849
9.05 -0.193271
9.06 -0.196449
9.07 -0.199397
9.08 -0.202137
9.09 -0.204697
9.1 -0.207105
9.11 -0.209389
9.12 -0.211597
9.13 -0.213765
9.14 -0.215926
9.15 -0.21811
9.16 -0.220338
9.17 -0.22263
9.18 -0.224998
9.19 -0.227433
9.2 -0.229924
9.21 -0.232448
9.22 -0.234974
9.23 -0.237462
9.24 -0.239852
9.25 -0.242089
9.26 -0.244115
9.27 -0.24587
9.28 -0.247294
9.29 -0.248326
9.3 -0.248899
9.31 -0.248933
9.32 -0.248432
9.33 -0.247372
9.34 -0.245739
9.35 -0.243535
9.36 -0.240773
9.37 -0.23744
9.38 -0.23361
9.39 -0.229354
9.4 -0.224737
9.41 -0.21983
9.42 -0.214709
9.43 -0.209452
9.44 -0.204143
9.45 -0.198866
9.46 -0.193689
9.47 -0.188668
9.48 -0.183849
9.49 -0.179261
9.5 -0.174939
9.51 -0.170872
9.52 -0.167025
9.53 -0.163359
9.54 -0.159819
9.55 -0.156334
9.56 -0.15282
9.57 -0.14916
9.58 -0.145259
9.59 -0.141009
9.6 -0.136308
9.61 -0.131053
9.62 -0.125149
9.63 -0.118461
9.64 -0.110912
9.65 -0.102491
9.66 -0.0931626
9.67 -0.0829086
9.68 -0.0717317
9.69 -0.0596534
9.7 -0.0466211
9.71 -0.0327992
9.72 -0.0182667
9.73 -0.00311356
9.74 0.0125598
9.75 0.028646
9.76 0.0450431
9.77 0.0616249
9.78 0.0782642
9.79 0.0948588
9.8 0.111315
9.81 0.12755
9.82 0.143493
9.83 0.159047
9.84 0.1742
9.85 0.188932
9.86 0.203233
9.87 0.217103
9.88 0.230554
9.89 0.243592
9.9 0.256233
9.91 0.268537
9.92 0.280535
9.93 0.292252
9.94 0.303711
9.95 0.314925
9.96 0.325877
9.97 0.336574
9.98 0.347003
9.99 0.357129
10 0.366909
10.01 0.37629
10.02 0.385191
10.03 0.393501
10.04 0.401187
10.05 0.40817
10.06 0.414377
10.07 0.419737
10.08 0.424188
10.09 0.427596
10.1 0.429967
10.11 0.431315
10.12 0.431641
10.13 0.430963
10.14 0.429318
10.15 0.426747
10.16 0.423269
10.17 0.419068
10.18 0.414252
10.19 0.408944
10.2 0.40327
10.21 0.397365
10.22 0.391367
10.23 0.385428
10.24 0.379675
10.25 0.374223
10.26 0.36917
10.27 0.364601
10.28 0.360584
10.29 0.357229
10.3 0.354492
10.31 0.352368
10.32 0.350831
10.33 0.349836
10.34 0.349319
10.35 0.349215
10.36 0.349412
10.37 0.349778
10.38 0.350197
10.39 0.35055
10.4 0.350716
10.41 0.350576
10.42 0.349961
10.43 0.348804
10.44 0.347017
10.45 0.344526
10.46 0.341268
10.47 0.337198
10.48 0.332243
10.49 0.326373
10.5 0.319649
10.51 0.312089
10.52 0.303722
10.53 0.294586
10.54 0.28473
10.55 0.274144
10.56 0.262949
10.57 0.251215
10.58 0.238999
10.59 0.226357
10.6 0.213341
10.61 0.199988
10.62 0.186334
10.63 0.172437
10.64 0.158327
10.65 0.144026
10.66 0.129553
10.67 0.114922
10.68 0.100131
10.69 0.0851999
10.7 0.0701409
10.71 0.0549631
10.72 0.0396772
10.73 0.0242965
10.74 0.00883603
10.75 -0.00668442
10.76 -0.0222328
10.77 -0.03778
10.78 -0.0532937
10.79 -0.0687385
10.8 -0.0840775
10.81 -0.0992578
10.82 -0.114243
10.83 -0.129003
10.84 -0.143505
10.85 -0.15772
10.86 -0.171625
10.87 -0.185197
10.88 -0.198396
10.89 -0.211255
10.9 -0.223779
10.91 -0.235981
10.92 -0.24788
10.93 -0.259501
10.94 -0.270858
10.95 -0.281994
10.96 -0.292955
10.97 -0.303775
10.98 -0.314484
10.99 -0.325111
11 -0.335679
11.01 -0.346197
11.02 -0.356676
11.03 -0.367113
11.04 -0.37749
11.05 -0.387783
11.06 -0.397956
11.07 -0.407948
11.08 -0.417696
11.09 -0.427142
11.1 -0.436215
11.11 -0.444838
11.12 -0.452932
11.13 -0.460416
11.14 -0.467127
11.15 -0.473055
11.16 -0.478134
11.17 -0.482305
11.18 -0.485516
11.19 -0.487727
11.2 -0.488858
11.21 -0.488867
11.22 -0.487826
11.23 -0.485746
11.24 -0.48265
11.25 -0.478573
11.26 -0.473557
11.27 -0.467574
11.28 -0.460761
11.29 -0.4532
11.3 -0.444958
11.31 -0.436103
11.32 -0.426702
11.33 -0.416802
11.34 -0.406452
11.35 -0.395741
11.36 -0.384714
11.37 -0.373405
11.38 -0.361844
11.39 -0.350049
11.4 -0.338013
11.41 -0.325752
11.42 -0.313267
11.43 -0.300549
11.44 -0.287585
11.45 -0.274358
11.46 -0.260846
11.47 -0.24701
11.48 -0.232865
11.49 -0.218403
11.5 -0.203622
11.51 -0.188528
11.52 -0.173132
11.53 -0.157439
11.54 -0.141493
11.55 -0.125347
11.56 -0.109052
11.57 -0.0926639
11.58 -0.076249
11.59 -0.0598793
11.6 -0.0436507
11.61 -0.0276362
11.62 -0.0119156
11.63 0.00343205
11.64 0.01833
11.65 0.0327058
11.66 0.0464494
11.67 0.0595028
11.68 0.0718478
11.69 0.0834455
11.7 0.0942674
11.71 0.104296
11.72 0.113524
11.73 0.121868
11.74 0.129439
11.75 0.136266
11.76 0.142385
11.77 0.147843
11.78 0.152691
11.79 0.15696
11.8 0.160717
11.81 0.164057
11.82 0.167043
11.83 0.169734
11.84 0.172188
11.85 0.174456
11.86 0.176572
11.87 0.178588
11.88 0.180533
11.89 0.182423
11.9 0.184264
11.91 0.186053
11.92 0.187773
11.93 0.189392
11.94 0.19088
11.95 0.192192
11.96 0.193278
11.97 0.194079
11.98 0.194534
11.99 0.194529
12 0.194019
12.01 0.192944
12.02 0.191237
12.03 0.188832
12.04 0.185669
12.05 0.181664
12.06 0.17672
12.07 0.170867
12.08 0.164077
12.09 0.15633
12.1 0.147617
12.11 0.137938
12.12 0.127225
12.13 0.115559
12.14 0.103002
12.15 0.0896001
12.16 0.0754072
