# xPDFsuite Configuration #
[PDF]
wavelength = 0.1
dataformat = QA
inputfile = BiMsol6_insitu_700 C-00302.xy
backgroundfile = Quartz2mm-dist500-00000.xy
mode = xray
bgscale = 0.0042
composition = Bi2Fe4O9
outputtype = gr
qmaxinst = 24.998449118
qmin = 0.1
qmax = 21.4986662415
rmax = 80.0
rmin = 0.0
rstep = 0.01
rpoly = 0.9

[Misc]
inputdir = C:/Data/Seafile/CPH/Beamtime/Desy Oct 20/In situ data/Processed/BiMsol6/PDF
savedir = C:/Data/Seafile/CPH/Beamtime/Desy Oct 20/In situ data/PDF/BiMsol6
backgroundfilefull = C:/Data/Seafile/CPH/Beamtime/Desy Oct 20/In situ data/Processed/Standard_Empty_Cap/Quartz2mm-dist500-00000.xy

#### start data
#S 1
#L r($\AA$)  G($\AA^{-2}$)
0 0
0.01 0.00658993
0.02 0.0128095
0.03 0.0183416
0.04 0.0229017
0.05 0.026251
0.06 0.028207
0.07 0.0285703
0.08 0.0272822
0.09 0.0244889
0.1 0.0203103
0.11 0.0149329
0.12 0.0086014
0.13 0.00160801
0.14 -0.0057192
0.15 -0.0129657
0.16 -0.0197818
0.17 -0.0258394
0.18 -0.030844
0.19 -0.0345495
0.2 -0.0367026
0.21 -0.03713
0.22 -0.0359305
0.23 -0.0331707
0.24 -0.0289973
0.25 -0.0236321
0.26 -0.0173638
0.27 -0.0105207
0.28 -0.00357743
0.29 0.00304349
0.3 0.00893158
0.31 0.0136964
0.32 0.0169864
0.33 0.0184457
0.34 0.0177258
0.35 0.0148779
0.36 0.0098976
0.37 0.0028871
0.38 -0.0059432
0.39 -0.0162776
0.4 -0.0277504
0.41 -0.0397291
0.42 -0.0515924
0.43 -0.0627083
0.44 -0.0724225
0.45 -0.0800825
0.46 -0.0849981
0.47 -0.0862805
0.48 -0.0837331
0.49 -0.0769937
0.5 -0.0658251
0.51 -0.0501297
0.52 -0.02996
0.53 -0.00524177
0.54 0.0234631
0.55 0.0554126
0.56 0.0899171
0.57 0.12617
0.58 0.163268
0.59 0.200227
0.6 0.235793
0.61 0.268979
0.62 0.298794
0.63 0.324308
0.64 0.344684
0.65 0.359206
0.66 0.366876
0.67 0.367289
0.68 0.360628
0.69 0.346899
0.7 0.326301
0.71 0.299218
0.72 0.266208
0.73 0.227488
0.74 0.1846
0.75 0.138549
0.76 0.0903967
0.77 0.041248
0.78 -0.00778484
0.79 -0.0554988
0.8 -0.100686
0.81 -0.142525
0.82 -0.180225
0.83 -0.213139
0.84 -0.240776
0.85 -0.262816
0.86 -0.278525
0.87 -0.288486
0.88 -0.293022
0.89 -0.292528
0.9 -0.287535
0.91 -0.278688
0.92 -0.266629
0.93 -0.25218
0.94 -0.236399
0.95 -0.22011
0.96 -0.204103
0.97 -0.189107
0.98 -0.175775
0.99 -0.164902
1 -0.156803
1.01 -0.151698
1.02 -0.14973
1.03 -0.150914
1.04 -0.15514
1.05 -0.162255
1.06 -0.17203
1.07 -0.183792
1.08 -0.197058
1.09 -0.211309
1.1 -0.226011
1.11 -0.240639
1.12 -0.254614
1.13 -0.267465
1.14 -0.278848
1.15 -0.288479
1.16 -0.29616
1.17 -0.301785
1.18 -0.305304
1.19 -0.30665
1.2 -0.306205
1.21 -0.304217
1.22 -0.300983
1.23 -0.296843
1.24 -0.292156
1.25 -0.287302
1.26 -0.282682
1.27 -0.278617
1.28 -0.275375
1.29 -0.273165
1.3 -0.272131
1.31 -0.272355
1.32 -0.273957
1.33 -0.276705
1.34 -0.280442
1.35 -0.284952
1.36 -0.289973
1.37 -0.295212
1.38 -0.300326
1.39 -0.304952
1.4 -0.308795
1.41 -0.311585
1.42 -0.313095
1.43 -0.313154
1.44 -0.311651
1.45 -0.308373
1.46 -0.303541
1.47 -0.297291
1.48 -0.289815
1.49 -0.281367
1.5 -0.272254
1.51 -0.26282
1.52 -0.253493
1.53 -0.244668
1.54 -0.236709
1.55 -0.229956
1.56 -0.224706
1.57 -0.221201
1.58 -0.219822
1.59 -0.220504
1.6 -0.223212
1.61 -0.227861
1.62 -0.234283
1.63 -0.242234
1.64 -0.251429
1.65 -0.261473
1.66 -0.271845
1.67 -0.282089
1.68 -0.291744
1.69 -0.300353
1.7 -0.307484
1.71 -0.312549
1.72 -0.3153
1.73 -0.315545
1.74 -0.313117
1.75 -0.307939
1.76 -0.300025
1.77 -0.289416
1.78 -0.276181
1.79 -0.26085
1.8 -0.243784
1.81 -0.225401
1.82 -0.206156
1.83 -0.186532
1.84 -0.167066
1.85 -0.148292
1.86 -0.130646
1.87 -0.114526
1.88 -0.100268
1.89 -0.0881403
1.9 -0.0783677
1.91 -0.0712703
1.92 -0.0666028
1.93 -0.0642772
1.94 -0.0641268
1.95 -0.0659147
1.96 -0.0693437
1.97 -0.0741306
1.98 -0.0798154
1.99 -0.0859398
2 -0.09211
2.01 -0.0979502
2.02 -0.103118
2.03 -0.107311
2.04 -0.110136
2.05 -0.111556
2.06 -0.111491
2.07 -0.109934
2.08 -0.106958
2.09 -0.102702
2.1 -0.0973321
2.11 -0.0911571
2.12 -0.0845613
2.13 -0.0778958
2.14 -0.0715269
2.15 -0.0658223
2.16 -0.0611367
2.17 -0.0579772
2.18 -0.0565136
2.19 -0.0569566
2.2 -0.0594654
2.21 -0.064131
2.22 -0.0709732
2.23 -0.0800302
2.24 -0.091203
2.25 -0.104135
2.26 -0.118563
2.27 -0.13418
2.28 -0.150641
2.29 -0.167577
2.3 -0.184583
2.31 -0.201236
2.32 -0.217182
2.33 -0.2321
2.34 -0.24571
2.35 -0.257783
2.36 -0.268084
2.37 -0.276407
2.38 -0.282869
2.39 -0.287505
2.4 -0.290409
2.41 -0.291731
2.42 -0.291671
2.43 -0.290389
2.44 -0.288255
2.45 -0.285592
2.46 -0.282692
2.47 -0.279842
2.48 -0.277312
2.49 -0.275366
2.5 -0.274289
2.51 -0.274181
2.52 -0.275152
2.53 -0.277263
2.54 -0.280526
2.55 -0.284905
2.56 -0.290387
2.57 -0.296793
2.58 -0.303916
2.59 -0.311571
2.6 -0.319553
2.61 -0.32765
2.62 -0.335646
2.63 -0.343288
2.64 -0.350406
2.65 -0.356842
2.66 -0.362463
2.67 -0.367169
2.68 -0.370892
2.69 -0.373531
2.7 -0.375101
2.71 -0.37569
2.72 -0.375356
2.73 -0.374179
2.74 -0.372249
2.75 -0.369667
2.76 -0.366484
2.77 -0.362868
2.78 -0.358903
2.79 -0.35466
2.8 -0.350186
2.81 -0.34551
2.82 -0.340623
2.83 -0.335497
2.84 -0.330096
2.85 -0.324353
2.86 -0.318184
2.87 -0.311494
2.88 -0.30418
2.89 -0.296051
2.9 -0.287071
2.91 -0.277162
2.92 -0.266255
2.93 -0.254302
2.94 -0.241281
2.95 -0.227148
2.96 -0.211914
2.97 -0.195725
2.98 -0.178675
2.99 -0.160886
3 -0.142498
3.01 -0.123671
3.02 -0.104566
3.03 -0.0854024
3.04 -0.0663623
3.05 -0.047616
3.06 -0.0293215
3.07 -0.0116189
3.08 0.00534801
3.09 0.0214357
3.1 0.036651
3.11 0.0509691
3.12 0.0643956
3.13 0.0769653
3.14 0.0887406
3.15 0.0997572
3.16 0.110176
3.17 0.120144
3.18 0.129796
3.19 0.13927
3.2 0.148699
3.21 0.158216
3.22 0.167963
3.23 0.17802
3.24 0.18846
3.25 0.199327
3.26 0.210643
3.27 0.222402
3.28 0.234603
3.29 0.247166
3.3 0.259994
3.31 0.272992
3.32 0.28605
3.33 0.299051
3.34 0.311871
3.35 0.324349
3.36 0.336396
3.37 0.347912
3.38 0.358812
3.39 0.36903
3.4 0.378516
3.41 0.387198
3.42 0.395077
3.43 0.402215
3.44 0.40865
3.45 0.414436
3.46 0.419641
3.47 0.424342
3.48 0.428583
3.49 0.432505
3.5 0.43619
3.51 0.439714
3.52 0.443142
3.53 0.446528
3.54 0.44991
3.55 0.453313
3.56 0.456738
3.57 0.460171
3.58 0.46358
3.59 0.466924
3.6 0.470146
3.61 0.473158
3.62 0.4759
3.63 0.478303
3.64 0.480299
3.65 0.481823
3.66 0.482822
3.67 0.483224
3.68 0.482975
3.69 0.482102
3.7 0.480608
3.71 0.478505
3.72 0.475823
3.73 0.472603
3.74 0.468855
3.75 0.46468
3.76 0.460156
3.77 0.455346
3.78 0.450317
3.79 0.445127
3.8 0.439827
3.81 0.434458
3.82 0.429054
3.83 0.423629
3.84 0.418179
3.85 0.412689
3.86 0.407126
3.87 0.401433
3.88 0.395552
3.89 0.389421
3.9 0.38297
3.91 0.376126
3.92 0.368816
3.93 0.360959
3.94 0.35244
3.95 0.343263
3.96 0.333391
3.97 0.322801
3.98 0.311487
3.99 0.299457
4 0.286689
4.01 0.273251
4.02 0.259231
4.03 0.244702
4.04 0.229742
4.05 0.21444
4.06 0.198887
4.07 0.183174
4.08 0.167418
4.09 0.151707
4.1 0.136122
4.11 0.120736
4.12 0.105612
4.13 0.0908198
4.14 0.0764022
4.15 0.062364
4.16 0.0487171
4.17 0.0354631
4.18 0.0225948
4.19 0.0100978
4.2 -0.00200969
4.21 -0.0137908
4.22 -0.0252694
4.23 -0.036466
4.24 -0.0473975
4.25 -0.0580752
4.26 -0.0684915
4.27 -0.0786375
4.28 -0.0885175
4.29 -0.0981117
4.3 -0.107393
4.31 -0.11633
4.32 -0.124886
4.33 -0.132975
4.34 -0.14059
4.35 -0.147702
4.36 -0.154279
4.37 -0.160294
4.38 -0.16573
4.39 -0.170558
4.4 -0.174759
4.41 -0.178396
4.42 -0.1815
4.43 -0.184111
4.44 -0.186279
4.45 -0.188066
4.46 -0.189515
4.47 -0.19073
4.48 -0.191794
4.49 -0.192781
4.5 -0.193765
4.51 -0.19481
4.52 -0.195981
4.53 -0.197342
4.54 -0.198916
4.55 -0.200721
4.56 -0.202766
4.57 -0.205043
4.58 -0.207531
4.59 -0.210207
4.6 -0.213012
4.61 -0.215883
4.62 -0.218758
4.63 -0.221569
4.64 -0.224249
4.65 -0.226728
4.66 -0.228914
4.67 -0.230775
4.68 -0.232268
4.69 -0.233359
4.7 -0.23403
4.71 -0.234274
4.72 -0.234072
4.73 -0.233458
4.74 -0.232493
4.75 -0.231225
4.76 -0.229715
4.77 -0.228029
4.78 -0.226243
4.79 -0.224437
4.8 -0.2227
4.81 -0.221105
4.82 -0.219722
4.83 -0.218611
4.84 -0.217827
4.85 -0.217435
4.86 -0.217469
4.87 -0.217923
4.88 -0.218799
4.89 -0.220089
4.9 -0.221773
4.91 -0.22382
4.92 -0.226223
4.93 -0.228897
4.94 -0.231787
4.95 -0.234839
4.96 -0.237997
4.97 -0.241207
4.98 -0.244415
4.99 -0.247564
5 -0.250612
5.01 -0.253524
5.02 -0.256268
5.03 -0.258819
5.04 -0.261159
5.05 -0.263249
5.06 -0.265097
5.07 -0.266699
5.08 -0.268051
5.09 -0.269147
5.1 -0.269981
5.11 -0.270534
5.12 -0.27078
5.13 -0.270726
5.14 -0.27035
5.15 -0.269629
5.16 -0.268533
5.17 -0.267032
5.18 -0.265046
5.19 -0.262563
5.2 -0.259555
5.21 -0.255989
5.22 -0.251829
5.23 -0.247047
5.24 -0.241602
5.25 -0.235428
5.26 -0.228578
5.27 -0.221053
5.28 -0.212861
5.29 -0.20402
5.3 -0.194559
5.31 -0.184469
5.32 -0.173824
5.33 -0.162698
5.34 -0.151146
5.35 -0.139228
5.36 -0.127005
5.37 -0.114538
5.38 -0.101879
5.39 -0.0891089
5.4 -0.0762837
5.41 -0.0634533
5.42 -0.0506631
5.43 -0.0379534
5.44 -0.0253692
5.45 -0.0129431
5.46 -0.000694591
5.47 0.0113534
5.48 0.0231798
5.49 0.0347636
5.5 0.0460824
5.51 0.0570768
5.52 0.0677491
5.53 0.0780663
5.54 0.0879899
5.55 0.097476
5.56 0.106475
5.57 0.114898
5.58 0.122671
5.59 0.129765
5.6 0.136113
5.61 0.141651
5.62 0.146314
5.63 0.150045
5.64 0.152678
5.65 0.154268
5.66 0.154793
5.67 0.154239
5.68 0.152605
5.69 0.149908
5.7 0.146136
5.71 0.141321
5.72 0.135609
5.73 0.129086
5.74 0.12185
5.75 0.114014
5.76 0.105698
5.77 0.0970076
5.78 0.0881139
5.79 0.0791528
5.8 0.0702491
5.81 0.0615197
5.82 0.0530711
5.83 0.0450118
5.84 0.0374516
5.85 0.0304136
5.86 0.0239357
5.87 0.0180373
5.88 0.0127196
5.89 0.00796666
5.9 0.00378903
5.91 0.00010497
5.92 -0.00315968
5.93 -0.00606931
5.94 -0.00869156
5.95 -0.0110939
5.96 -0.0133383
5.97 -0.0154807
5.98 -0.0175785
5.99 -0.0196625
6 -0.0217481
6.01 -0.0238344
6.02 -0.0259036
6.03 -0.0279128
6.04 -0.0298028
6.05 -0.0315063
6.06 -0.0329416
6.07 -0.0340181
6.08 -0.0346393
6.09 -0.0346994
6.1 -0.0340281
6.11 -0.0325972
6.12 -0.0303284
6.13 -0.0271573
6.14 -0.023037
6.15 -0.0179404
6.16 -0.0118009
6.17 -0.00465376
6.18 0.00340007
6.19 0.0122885
6.2 0.021917
6.21 0.0321712
6.22 0.0429188
6.23 0.0540355
6.24 0.0653081
6.25 0.0765723
6.26 0.0876639
6.27 0.0984224
6.28 0.108696
6.29 0.118306
6.3 0.127106
6.31 0.135042
6.32 0.142039
6.33 0.148052
6.34 0.153059
6.35 0.157065
6.36 0.160005
6.37 0.162037
6.38 0.163256
6.39 0.163765
6.4 0.163684
6.41 0.163141
6.42 0.162266
6.43 0.161214
6.44 0.160146
6.45 0.159192
6.46 0.158473
6.47 0.158096
6.48 0.15815
6.49 0.158761
6.5 0.159943
6.51 0.16171
6.52 0.164064
6.53 0.166986
6.54 0.17044
6.55 0.174383
6.56 0.178759
6.57 0.183445
6.58 0.188351
6.59 0.193382
6.6 0.198445
6.61 0.203446
6.62 0.208282
6.63 0.212874
6.64 0.217164
6.65 0.221102
6.66 0.224652
6.67 0.227793
6.68 0.23051
6.69 0.232783
6.7 0.234674
6.71 0.236218
6.72 0.237459
6.73 0.238444
6.74 0.239225
6.75 0.239848
6.76 0.240374
6.77 0.240853
6.78 0.24132
6.79 0.241802
6.8 0.242313
6.81 0.242856
6.82 0.243416
6.83 0.243963
6.84 0.244455
6.85 0.244837
6.86 0.245046
6.87 0.245008
6.88 0.244619
6.89 0.243784
6.9 0.242436
6.91 0.240493
6.92 0.237877
6.93 0.234516
6.94 0.230349
6.95 0.225225
6.96 0.219202
6.97 0.212265
6.98 0.204411
6.99 0.195655
7 0.186026
7.01 0.175529
7.02 0.164222
7.03 0.152233
7.04 0.139645
7.05 0.12655
7.06 0.113045
7.07 0.099229
7.08 0.0851923
7.09 0.0710619
7.1 0.0569334
7.11 0.0428933
7.12 0.0290196
7.13 0.0153807
7.14 0.00204773
7.15 -0.0109149
7.16 -0.0234988
7.17 -0.0356837
7.18 -0.0474593
7.19 -0.0588251
7.2 -0.0697888
7.21 -0.080331
7.22 -0.0905001
7.23 -0.100329
7.24 -0.109842
7.25 -0.119061
7.26 -0.128009
7.27 -0.136693
7.28 -0.145113
7.29 -0.153292
7.3 -0.161228
7.31 -0.16891
7.32 -0.176318
7.33 -0.183428
7.34 -0.19018
7.35 -0.196546
7.36 -0.2025
7.37 -0.208
7.38 -0.213005
7.39 -0.217475
7.4 -0.221365
7.41 -0.224593
7.42 -0.227197
7.43 -0.229164
7.44 -0.230494
7.45 -0.231196
7.46 -0.231291
7.47 -0.230772
7.48 -0.229704
7.49 -0.228169
7.5 -0.22623
7.51 -0.223959
7.52 -0.221431
7.53 -0.218726
7.54 -0.215923
7.55 -0.213119
7.56 -0.210389
7.57 -0.207799
7.58 -0.20541
7.59 -0.20327
7.6 -0.201434
7.61 -0.199928
7.62 -0.19874
7.63 -0.197862
7.64 -0.19727
7.65 -0.196928
7.66 -0.196789
7.67 -0.1968
7.68 -0.19687
7.69 -0.196922
7.7 -0.196876
7.71 -0.196652
7.72 -0.196172
7.73 -0.195342
7.74 -0.194082
7.75 -0.192361
7.76 -0.190139
7.77 -0.187392
7.78 -0.184109
7.79 -0.180296
7.8 -0.175929
7.81 -0.171097
7.82 -0.165867
7.83 -0.16031
7.84 -0.15451
7.85 -0.148558
7.86 -0.142554
7.87 -0.136617
7.88 -0.130852
7.89 -0.125356
7.9 -0.120219
7.91 -0.115523
7.92 -0.111336
7.93 -0.107768
7.94 -0.104824
7.95 -0.102503
7.96 -0.100805
7.97 -0.0997114
7.98 -0.0991854
7.99 -0.0991874
8 -0.0996718
8.01 -0.100514
8.02 -0.101626
8.03 -0.102918
8.04 -0.104298
8.05 -0.105674
8.06 -0.106949
8.07 -0.108042
8.08 -0.108894
8.09 -0.109457
8.1 -0.1097
8.11 -0.109605
8.12 -0.109172
8.13 -0.108396
8.14 -0.107351
8.15 -0.106092
8.16 -0.104684
8.17 -0.103204
8.18 -0.101733
8.19 -0.10037
8.2 -0.0992103
8.21 -0.0983259
8.22 -0.0977871
8.23 -0.0976517
8.24 -0.0979625
8.25 -0.0987466
8.26 -0.100061
8.27 -0.101833
8.28 -0.104019
8.29 -0.10656
8.3 -0.109374
8.31 -0.112363
8.32 -0.11541
8.33 -0.118368
8.34 -0.1211
8.35 -0.123468
8.36 -0.125332
8.37 -0.126562
8.38 -0.127033
8.39 -0.12653
8.4 -0.125041
8.41 -0.122504
8.42 -0.118872
8.43 -0.114122
8.44 -0.108257
8.45 -0.101254
8.46 -0.0931457
8.47 -0.0840879
8.48 -0.0741758
8.49 -0.0635209
8.5 -0.0522467
8.51 -0.0404851
8.52 -0.028351
8.53 -0.0160227
8.54 -0.00363616
8.55 0.00868835
8.56 0.0208432
8.57 0.0327362
8.58 0.0442796
8.59 0.0553949
8.6 0.0660823
8.61 0.0763334
8.62 0.0861593
8.63 0.0955889
8.64 0.104666
8.65 0.11343
8.66 0.121971
8.67 0.130374
8.68 0.138711
8.69 0.147054
8.7 0.155468
8.71 0.164011
8.72 0.17274
8.73 0.181663
8.74 0.190782
8.75 0.200083
8.76 0.20953
8.77 0.219068
8.78 0.22862
8.79 0.238085
8.8 0.247358
8.81 0.256325
8.82 0.264869
8.83 0.272867
8.84 0.280191
8.85 0.286642
8.86 0.292192
8.87 0.296752
8.88 0.30025
8.89 0.302633
8.9 0.303868
8.91 0.303866
8.92 0.302653
8.93 0.300325
8.94 0.296931
8.95 0.29254
8.96 0.287233
8.97 0.281102
8.98 0.274172
8.99 0.266642
9 0.258613
9.01 0.250184
9.02 0.241444
9.03 0.232474
9.04 0.223338
9.05 0.214092
9.06 0.204782
9.07 0.195427
9.08 0.18603
9.09 0.176582
9.1 0.16706
9.11 0.157418
9.12 0.147621
9.13 0.137627
9.14 0.127394
9.15 0.116882
9.16 0.106057
9.17 0.0948825
9.18 0.0833365
9.19 0.0714528
9.2 0.0592566
9.21 0.0467902
9.22 0.0341138
9.23 0.0213047
9.24 0.00846259
9.25 -0.00428764
9.26 -0.0168238
9.27 -0.0290164
9.28 -0.0407317
9.29 -0.0518351
9.3 -0.0621669
9.31 -0.0715398
9.32 -0.079908
9.33 -0.0871744
9.34 -0.0932596
9.35 -0.0981033
9.36 -0.101666
9.37 -0.103822
9.38 -0.104647
9.39 -0.104219
9.4 -0.102589
9.41 -0.099831
9.42 -0.0960322
9.43 -0.091278
9.44 -0.085633
9.45 -0.0793057
9.46 -0.0724184
9.47 -0.0650918
9.48 -0.0574422
9.49 -0.0495785
9.5 -0.0415975
9.51 -0.0335986
9.52 -0.0256547
9.53 -0.0178192
9.54 -0.01013
9.55 -0.00261022
9.56 0.00472927
9.57 0.0118766
9.58 0.0188677
9.59 0.025727
9.6 0.0324839
9.61 0.0391703
9.62 0.045818
9.63 0.0524566
9.64 0.0591121
9.65 0.0657986
9.66 0.0725203
9.67 0.0792705
9.68 0.0860315
9.69 0.0927739
9.7 0.0994444
9.71 0.105992
9.72 0.112356
9.73 0.118467
9.74 0.124253
9.75 0.129638
9.76 0.134519
9.77 0.138808
9.78 0.142472
9.79 0.145454
9.8 0.147711
9.81 0.149207
9.82 0.149922
9.83 0.149768
9.84 0.148829
9.85 0.14714
9.86 0.14474
9.87 0.141679
9.88 0.138018
9.89 0.133807
9.9 0.129118
9.91 0.124069
9.92 0.118743
9.93 0.113219
9.94 0.107572
9.95 0.101874
9.96 0.0961936
9.97 0.0905884
9.98 0.0850996
9.99 0.0797579
10 0.0745834
10.01 0.0695855
10.02 0.0647683
10.03 0.06013
10.04 0.055636
10.05 0.0512615
10.06 0.0469778
10.07 0.0427538
10.08 0.0385578
10.09 0.034357
10.1 0.0301207
10.11 0.0258269
10.12 0.0214589
10.13 0.0170062
10.14 0.012465
10.15 0.00783687
10.16 0.00312753
10.17 -0.00163717
10.18 -0.00643456
10.19 -0.0112378
10.2 -0.0160169
10.21 -0.0207404
10.22 -0.0253676
10.23 -0.0298655
10.24 -0.0342103
10.25 -0.0383773
10.26 -0.0423464
10.27 -0.046103
10.28 -0.049636
10.29 -0.0529194
10.3 -0.0559817
10.31 -0.0588324
10.32 -0.0614858
10.33 -0.0639603
10.34 -0.0662773
10.35 -0.068454
10.36 -0.0705193
10.37 -0.0725051
10.38 -0.0744341
10.39 -0.0763272
10.4 -0.0782018
10.41 -0.0800715
10.42 -0.0819471
10.43 -0.0838328
10.44 -0.0857282
10.45 -0.0876288
10.46 -0.0895264
10.47 -0.0914102
10.48 -0.0932649
10.49 -0.0950733
10.5 -0.0968227
10.51 -0.0984998
10.52 -0.100093
10.53 -0.101593
10.54 -0.102995
10.55 -0.104287
10.56 -0.105482
10.57 -0.106589
10.58 -0.107623
10.59 -0.108598
10.6 -0.109535
10.61 -0.110458
10.62 -0.111394
10.63 -0.11237
10.64 -0.11341
10.65 -0.114536
10.66 -0.115768
10.67 -0.117122
10.68 -0.118621
10.69 -0.120264
10.7 -0.122043
10.71 -0.12395
10.72 -0.125973
10.73 -0.128089
10.74 -0.130276
10.75 -0.132499
10.76 -0.134719
10.77 -0.1369
10.78 -0.139002
10.79 -0.14099
10.8 -0.142826
10.81 -0.144462
10.82 -0.145875
10.83 -0.147051
10.84 -0.147975
10.85 -0.148639
10.86 -0.149045
10.87 -0.149196
10.88 -0.149091
10.89 -0.14878
10.9 -0.148292
10.91 -0.147664
10.92 -0.146935
10.93 -0.146147
10.94 -0.145344
10.95 -0.144574
10.96 -0.143879
10.97 -0.143291
10.98 -0.142843
10.99 -0.142556
11 -0.142447
11.01 -0.142543
11.02 -0.14282
11.03 -0.143265
11.04 -0.143857
11.05 -0.144564
11.06 -0.14535
11.07 -0.14617
11.08 -0.146966
11.09 -0.147683
11.1 -0.148264
11.11 -0.148654
11.12 -0.148799
11.13 -0.148645
11.14 -0.148104
11.15 -0.147166
11.16 -0.145802
11.17 -0.143986
11.18 -0.141704
11.19 -0.138948
11.2 -0.135701
11.21 -0.131966
11.22 -0.127799
11.23 -0.123231
11.24 -0.1183
11.25 -0.113048
11.26 -0.107525
11.27 -0.101765
11.28 -0.0958446
11.29 -0.0898225
11.3 -0.0837511
11.31 -0.077681
11.32 -0.0716592
11.33 -0.0657333
11.34 -0.0599514
11.35 -0.0543358
11.36 -0.0489107
11.37 -0.0436937
11.38 -0.0386964
11.39 -0.033924
11.4 -0.0293951
11.41 -0.0250887
11.42 -0.0209865
11.43 -0.0170722
11.44 -0.0133267
11.45 -0.00972788
11.46 -0.00625432
11.47 -0.00288421
11.48 0.000419236
11.49 0.00368172
11.5 0.00692847
11.51 0.0101838
11.52 0.013471
11.53 0.0168177
11.54 0.0202447
11.55 0.0237684
11.56 0.0274058
11.57 0.0311722
11.58 0.0350817
11.59 0.0391492
11.6 0.0434022
11.61 0.0478338
11.62 0.0524518
11.63 0.0572628
11.64 0.0622712
11.65 0.06748
11.66 0.0729028
11.67 0.0785339
11.68 0.0843578
11.69 0.0903658
11.7 0.096546
11.71 0.102883
11.72 0.109357
11.73 0.115954
11.74 0.12263
11.75 0.129353
11.76 0.136085
11.77 0.142787
11.78 0.149415
11.79 0.155913
11.8 0.162226
11.81 0.16831
11.82 0.174117
11.83 0.179597
11.84 0.184703
11.85 0.189388
11.86 0.193558
11.87 0.197218
11.88 0.200339
11.89 0.202897
11.9 0.204872
11.91 0.206252
11.92 0.207004
11.93 0.207113
11.94 0.206633
11.95 0.20558
11.96 0.203977
11.97 0.20185
11.98 0.199232
11.99 0.196119
12 0.192588
12.01 0.18869
12.02 0.184466
12.03 0.179956
12.04 0.175201
12.05 0.170233
12.06 0.165081
12.07 0.159793
12.08 0.154395
12.09 0.14891
12.1 0.143355
12.11 0.137745
12.12 0.132086
12.13 0.126387
12.14 0.120653
12.15 0.114886
12.16 0.109085
